Data from QEP037381__10__09-57-19-926.txt Node

Date: Wed Dec 21 09:57:19 EST 2022
User: dcclab
Spectrometer: QEP03738
Trigger mode: 4
Integration Time (sec): 1.000000E1
Scans to average: 1
Electric dark correction enabled: true
Nonlinearity correction enabled: false
Boxcar width: 0
XAxis mode: Wavelengths
Number of Pixels in Spectrum: 1044
>>>>>Begin Spectral Data<<<<<
784.041	10.38
784.3	-1.62
784.558	-2.62
784.817	-4.62
785.075	125750.38
785.334	21930.38
785.592	10231.38
785.851	7031.38
786.109	5288.38
786.368	4065.38
786.626	3238.38
786.884	2685.38
787.143	2277.38
787.401	1868.38
787.659	1625.38
787.917	1406.38
788.175	1288.38
788.433	1111.38
788.691	983.38
788.949	921.38
789.207	849.38
789.465	748.38
789.723	693.38
789.98	650.38
790.238	674.38
790.496	646.38
790.753	605.38
791.011	647.38
791.268	575.38
791.526	567.38
791.783	563.38
792.041	551.38
792.298	458.38
792.556	519.38
792.813	504.38
793.07	476.38
793.327	465.38
793.584	520.38
793.841	450.38
794.099	463.38
794.356	534.38
794.613	430.38
794.869	461.38
795.126	403.38
795.383	402.38
795.64	428.38
795.897	375.38
796.153	422.38
796.41	430.38
796.667	415.38
796.923	405.38
797.18	404.38
797.436	423.38
797.693	389.38
797.949	445.38
798.206	468.38
798.462	379.38
798.718	434.38
798.974	418.38
799.231	447.38
799.487	444.38
799.743	447.38
799.999	455.38
800.255	448.38
800.511	432.38
800.767	499.38
801.023	450.38
801.279	486.38
801.534	503.38
801.79	533.38
802.046	525.38
802.302	633.38
802.557	681.38
802.813	796.38
803.068	912.38
803.324	1223.38
803.579	1588.38
803.835	2136.38
804.09	2905.38
804.345	3677.38
804.601	4591.38
804.856	5522.38
805.111	6366.38
805.366	6951.38
805.621	7361.38
805.876	7644.38
806.131	7887.38
806.386	7957.38
806.641	8042.38
806.896	8149.38
807.151	8351.38
807.406	8402.38
807.661	8564.38
807.915	8715.38
808.17	8811.38
808.425	8842.38
808.679	8896.38
808.934	9038.38
809.188	9044.38
809.443	9093.38
809.697	9258.38
809.951	9261.38
810.206	9233.38
810.46	9373.38
810.714	9382.38
810.968	9591.38
811.223	9536.38
811.477	9662.38
811.731	9720.38
811.985	9616.38
812.239	9737.38
812.493	9791.38
812.747	9867.38
813	9857.38
813.254	9892.38
813.508	9979.38
813.762	9910.38
814.015	9973.38
814.269	9980.38
814.522	10126.38
814.776	10228.38
815.03	10317.38
815.283	10465.38
815.536	10594.38
815.79	10724.38
816.043	10854.38
816.296	10989.38
816.55	11050.38
816.803	11174.38
817.056	11423.38
817.309	11380.38
817.562	11424.38
817.815	11552.38
818.068	11639.38
818.321	11686.38
818.574	11825.38
818.827	11992.38
819.079	12040.38
819.332	12304.38
819.585	12423.38
819.838	12606.38
820.09	12595.38
820.343	12733.38
820.595	12698.38
820.848	12844.38
821.1	12824.38
821.353	12884.38
821.605	12859.38
821.857	12929.38
822.11	12812.38
822.362	12802.38
822.614	12783.38
822.866	12777.38
823.118	12739.38
823.37	12858.38
823.622	12824.38
823.874	12852.38
824.126	12993.38
824.378	12898.38
824.63	12938.38
824.882	13029.38
825.134	12938.38
825.385	12952.38
825.637	12945.38
825.888	12862.38
826.14	12856.38
826.392	12760.38
826.643	12655.38
826.895	12677.38
827.146	12594.38
827.397	12578.38
827.649	12669.38
827.9	12547.38
828.151	12627.38
828.402	12645.38
828.653	12631.38
828.905	12692.38
829.156	12707.38
829.407	12598.38
829.658	12620.38
829.909	12685.38
830.159	12661.38
830.41	12638.38
830.661	12577.38
830.912	12391.38
831.162	12383.38
831.413	12381.38
831.664	12396.38
831.914	12312.38
832.165	12354.38
832.415	12405.38
832.666	12357.38
832.916	12401.38
833.167	12280.38
833.417	12397.38
833.667	12274.38
833.917	12306.38
834.168	12284.38
834.418	12212.38
834.668	12110.38
834.918	12130.38
835.168	12176.38
835.418	12019.38
835.668	11961.38
835.918	12070.38
836.167	12002.38
836.417	11917.38
836.667	11913.38
836.917	11933.38
837.166	11885.38
837.416	11900.38
837.666	11844.38
837.915	11793.38
838.165	11805.38
838.414	11752.38
838.663	11722.38
838.913	11676.38
839.162	11670.38
839.411	11670.38
839.661	11572.38
839.91	11574.38
840.159	11573.38
840.408	11569.38
840.657	11515.38
840.906	11506.38
841.155	11575.38
841.404	11519.38
841.653	11558.38
841.902	11549.38
842.15	11594.38
842.399	11466.38
842.648	11555.38
842.897	11465.38
843.145	11381.38
843.394	11251.38
843.642	11289.38
843.891	11290.38
844.139	11236.38
844.388	11144.38
844.636	11074.38
844.884	11064.38
845.133	11041.38
845.381	11032.38
845.629	11067.38
845.877	10940.38
846.125	11016.38
846.373	10979.38
846.621	10981.38
846.869	10886.38
847.117	10840.38
847.365	10788.38
847.613	10776.38
847.861	10748.38
848.108	10740.38
848.356	10680.38
848.604	10669.38
848.851	10650.38
849.099	10698.38
849.346	10731.38
849.594	10708.38
849.841	10854.38
850.089	10883.38
850.336	10736.38
850.583	10804.38
850.831	10738.38
851.078	10671.38
851.325	10610.38
851.572	10659.38
851.819	10496.38
852.066	10367.38
852.313	10303.38
852.56	10124.38
852.807	10129.38
853.054	10104.38
853.301	10135.38
853.548	10127.38
853.794	10248.38
854.041	10225.38
854.288	10219.38
854.534	10432.38
854.781	10338.38
855.028	10242.38
855.274	10272.38
855.52	10232.38
855.767	10139.38
856.013	10079.38
856.26	10241.38
856.506	9977.38
856.752	10040.38
856.998	9978.38
857.244	10026.38
857.49	10012.38
857.736	10098.38
857.982	10088.38
858.228	10022.38
858.474	10002.38
858.72	9923.38
858.966	9851.38
859.212	9784.38
859.458	9689.38
859.703	9606.38
859.949	9525.38
860.195	9397.38
860.44	9331.38
860.686	9311.38
860.931	9299.38
861.177	9263.38
861.422	9266.38
861.667	9236.38
861.913	9188.38
862.158	9267.38
862.403	9265.38
862.648	9253.38
862.893	9307.38
863.138	9324.38
863.384	9248.38
863.629	9200.38
863.873	9211.38
864.118	9158.38
864.363	9086.38
864.608	9116.38
864.853	9098.38
865.098	9036.38
865.342	8937.38
865.587	8973.38
865.832	8996.38
866.076	8907.38
866.321	8863.38
866.565	8860.38
866.81	8793.38
867.054	8860.38
867.298	8810.38
867.543	8780.38
867.787	8804.38
868.031	8728.38
868.275	8700.38
868.519	8704.38
868.764	8603.38
869.008	8675.38
869.252	8704.38
869.496	8562.38
869.739	8529.38
869.983	8633.38
870.227	8616.38
870.471	8485.38
870.715	8634.38
870.958	8595.38
871.202	8547.38
871.446	8538.38
871.689	8601.38
871.933	8586.38
872.176	8626.38
872.42	8534.38
872.663	8532.38
872.906	8545.38
873.15	8458.38
873.393	8387.38
873.636	8452.38
873.879	8397.38
874.122	8409.38
874.366	8183.38
874.609	8196.38
874.852	8092.38
875.095	8057.38
875.337	7979.38
875.58	7907.38
875.823	7919.38
876.066	7903.38
876.309	7927.38
876.551	7874.38
876.794	7739.38
877.037	7896.38
877.279	7809.38
877.522	7768.38
877.764	7813.38
878.007	7710.38
878.249	7736.38
878.491	7752.38
878.734	7750.38
878.976	7681.38
879.218	7699.38
879.46	7682.38
879.702	7622.38
879.945	7534.38
880.187	7463.38
880.429	7426.38
880.671	7415.38
880.912	7366.38
881.154	7311.38
881.396	7285.38
881.638	7325.38
881.88	7307.38
882.121	7224.38
882.363	7188.38
882.605	7271.38
882.846	7229.38
883.088	7223.38
883.329	7224.38
883.571	7195.38
883.812	7191.38
884.053	7253.38
884.295	7418.38
884.536	7486.38
884.777	7438.38
885.018	7398.38
885.259	7367.38
885.5	7260.38
885.742	7518.38
885.982	7250.38
886.223	7217.38
886.464	7138.38
886.705	7098.38
886.946	7099.38
887.187	6895.38
887.428	6962.38
887.668	6814.38
887.909	6748.38
888.15	6718.38
888.39	6717.38
888.631	6763.38
888.871	6635.38
889.111	6647.38
889.352	6525.38
889.592	6506.38
889.833	6414.38
890.073	6459.38
890.313	6431.38
890.553	6300.38
890.793	6289.38
891.033	6208.38
891.273	6194.38
891.513	6276.38
891.753	6313.38
891.993	6228.38
892.233	6266.38
892.473	6246.38
892.713	6288.38
892.952	6172.38
893.192	6210.38
893.432	6139.38
893.671	6214.38
893.911	6183.38
894.15	6101.38
894.39	6059.38
894.629	5978.38
894.869	6013.38
895.108	5953.38
895.347	5887.38
895.587	5947.38
895.826	5886.38
896.065	5805.38
896.304	5797.38
896.543	5841.38
896.782	5740.38
897.021	5854.38
897.26	5765.38
897.499	5788.38
897.738	5767.38
897.977	5735.38
898.216	5675.38
898.454	5616.38
898.693	5579.38
898.932	5631.38
899.17	5479.38
899.409	5440.38
899.647	5520.38
899.886	5490.38
900.124	5502.38
900.363	5475.38
900.601	5515.38
900.839	5465.38
901.078	5494.38
901.316	5484.38
901.554	5516.38
901.792	5536.38
902.03	5445.38
902.268	5485.38
902.506	5490.38
902.744	5456.38
902.982	5446.38
903.22	5353.38
903.458	5281.38
903.695	5273.38
903.933	5231.38
904.171	5093.38
904.409	5068.38
904.646	5127.38
904.884	4983.38
905.121	4965.38
905.359	4923.38
905.596	4880.38
905.833	4797.38
906.071	4784.38
906.308	4821.38
906.545	4839.38
906.783	4778.38
907.02	4763.38
907.257	4704.38
907.494	4758.38
907.731	4746.38
907.968	4681.38
908.205	4656.38
908.442	4623.38
908.679	4632.38
908.915	4575.38
909.152	4531.38
909.389	4462.38
909.626	4466.38
909.862	4432.38
910.099	4465.38
910.335	4468.38
910.572	4387.38
910.808	4380.38
911.045	4384.38
911.281	4369.38
911.518	4410.38
911.754	4305.38
911.99	4317.38
912.226	4277.38
912.463	4217.38
912.699	4208.38
912.935	4210.38
913.171	4162.38
913.407	4120.38
913.643	4097.38
913.879	4116.38
914.114	4028.38
914.35	4003.38
914.586	3985.38
914.822	3905.38
915.057	4013.38
915.293	3848.38
915.529	3796.38
915.764	3886.38
916	3869.38
916.235	3822.38
916.471	3896.38
916.706	3740.38
916.941	3807.38
917.177	3806.38
917.412	3815.38
917.647	3813.38
917.882	3701.38
918.117	3756.38
918.352	3758.38
918.588	3801.38
918.823	3701.38
919.057	3682.38
919.292	3565.38
919.527	3688.38
919.762	3598.38
919.997	3623.38
920.232	3529.38
920.466	3579.38
920.701	3431.38
920.935	3478.38
921.17	3464.38
921.405	3403.38
921.639	3456.38
921.873	3406.38
922.108	3428.38
922.342	3396.38
922.576	3325.38
922.811	3316.38
923.045	3383.38
923.279	3389.38
923.513	3257.38
923.747	3326.38
923.981	3301.38
924.215	3264.38
924.449	3221.38
924.683	3155.38
924.917	3177.38
925.151	3161.38
925.385	3190.38
925.618	3174.38
925.852	3173.38
926.086	3091.38
926.319	3134.38
926.553	3167.38
926.786	3143.38
927.02	3138.38
927.253	3170.38
927.486	3141.38
927.72	3096.38
927.953	3096.38
928.186	3059.38
928.42	3146.38
928.653	3029.38
928.886	3030.38
929.119	3040.38
929.352	3036.38
929.585	3010.38
929.818	2981.38
930.051	2955.38
930.284	2985.38
930.516	2876.38
930.749	2889.38
930.982	2918.38
931.215	2932.38
931.447	2805.38
931.68	2850.38
931.912	2818.38
932.145	2828.38
932.377	2852.38
932.61	2960.38
932.842	2783.38
933.074	2830.38
933.307	2821.38
933.539	2867.38
933.771	2874.38
934.003	2776.38
934.236	2884.38
934.468	2891.38
934.7	2788.38
934.932	2809.38
935.164	2766.38
935.395	2779.38
935.627	2794.38
935.859	2783.38
936.091	2699.38
936.323	2808.38
936.554	2773.38
936.786	2729.38
937.017	2652.38
937.249	2711.38
937.481	2634.38
937.712	2733.38
937.943	2727.38
938.175	2668.38
938.406	2650.38
938.637	2740.38
938.869	2646.38
939.1	2687.38
939.331	2669.38
939.562	2672.38
939.793	2676.38
940.024	2668.38
940.255	2683.38
940.486	2609.38
940.717	2616.38
940.948	2597.38
941.179	2572.38
941.409	2572.38
941.64	2540.38
941.871	2562.38
942.102	2537.38
942.332	2539.38
942.563	2563.38
942.793	2548.38
943.024	2502.38
943.254	2516.38
943.484	2607.38
943.715	2579.38
943.945	2567.38
944.175	2496.38
944.405	2489.38
944.636	2487.38
944.866	2525.38
945.096	2493.38
945.326	2440.38
945.556	2520.38
945.786	2523.38
946.016	2483.38
946.245	2435.38
946.475	2410.38
946.705	2455.38
946.935	2422.38
947.164	2434.38
947.394	2419.38
947.624	2419.38
947.853	2410.38
948.083	2403.38
948.312	2363.38
948.542	2346.38
948.771	2318.38
949	2316.38
949.23	2317.38
949.459	2328.38
949.688	2388.38
949.917	2364.38
950.146	2324.38
950.375	2384.38
950.604	2289.38
950.833	2357.38
951.062	2340.38
951.291	2300.38
951.52	2250.38
951.749	2287.38
951.978	2267.38
952.206	2240.38
952.435	2257.38
952.664	2263.38
952.892	2301.38
953.121	2251.38
953.349	2270.38
953.578	2263.38
953.806	2234.38
954.035	2179.38
954.263	2218.38
954.491	2156.38
954.719	2236.38
954.948	2157.38
955.176	2161.38
955.404	2099.38
955.632	2172.38
955.86	2159.38
956.088	2130.38
956.316	2191.38
956.544	2179.38
956.772	2138.38
956.999	2088.38
957.227	2195.38
957.455	2084.38
957.683	2114.38
957.91	2066.38
958.138	2022.38
958.365	2041.38
958.593	2026.38
958.82	1990.38
959.048	2088.38
959.275	2048.38
959.502	2005.38
959.73	1979.38
959.957	2036.38
960.184	2053.38
960.411	2003.38
960.638	2073.38
960.865	1988.38
961.092	2040.38
961.319	1938.38
961.546	2013.38
961.773	2050.38
962	1993.38
962.227	2036.38
962.454	1957.38
962.68	1977.38
962.907	1989.38
963.134	1950.38
963.36	1949.38
963.587	1968.38
963.813	1913.38
964.04	1960.38
964.266	1893.38
964.493	1949.38
964.719	1946.38
964.945	1959.38
965.171	1879.38
965.398	1899.38
965.624	1937.38
965.85	1856.38
966.076	1839.38
966.302	1895.38
966.528	1852.38
966.754	1888.38
966.98	1840.38
967.206	1857.38
967.431	1789.38
967.657	1861.38
967.883	1872.38
968.109	1851.38
968.334	1794.38
968.56	1786.38
968.785	1812.38
969.011	1763.38
969.236	1810.38
969.462	1752.38
969.687	1790.38
969.912	1827.38
970.138	1821.38
970.363	1757.38
970.588	1765.38
970.813	1754.38
971.038	1719.38
971.263	1768.38
971.488	1744.38
971.713	1804.38
971.938	1789.38
972.163	1681.38
972.388	1713.38
972.613	1682.38
972.838	1725.38
973.062	1699.38
973.287	1707.38
973.512	1617.38
973.736	1661.38
973.961	1654.38
974.185	1640.38
974.41	1681.38
974.634	1594.38
974.858	1601.38
975.083	1638.38
975.307	1678.38
975.531	1597.38
975.755	1578.38
975.98	1572.38
976.204	1525.38
976.428	1513.38
976.652	1546.38
976.876	1521.38
977.1	1574.38
977.324	1524.38
977.547	1569.38
977.771	1564.38
977.995	1516.38
978.219	1469.38
978.442	1610.38
978.666	1536.38
978.89	1511.38
979.113	1542.38
979.337	1505.38
979.56	1484.38
979.783	1558.38
980.007	1441.38
980.23	1504.38
980.453	1472.38
980.677	1497.38
980.9	1503.38
981.123	1381.38
981.346	1493.38
981.569	1464.38
981.792	1485.38
982.015	1453.38
982.238	1417.38
982.461	1450.38
982.684	1394.38
982.907	1400.38
983.129	1412.38
983.352	1432.38
983.575	1412.38
983.797	1422.38
984.02	1369.38
984.242	1371.38
984.465	1393.38
984.687	1406.38
984.91	1426.38
985.132	1424.38
985.354	1425.38
985.577	1402.38
985.799	1401.38
986.021	1304.38
986.243	1363.38
986.465	1348.38
986.687	1403.38
986.909	1416.38
987.131	1407.38
987.353	1352.38
987.575	1344.38
987.797	1334.38
988.019	1292.38
988.241	1358.38
988.462	1331.38
988.684	1349.38
988.906	1360.38
989.127	1389.38
989.349	1286.38
989.57	1318.38
989.792	1383.38
990.013	1382.38
990.234	1361.38
990.456	1376.38
990.677	1389.38
990.898	1313.38
991.119	1322.38
991.341	1331.38
991.562	1290.38
991.783	1316.38
992.004	1277.38
992.225	1265.38
992.446	1307.38
992.667	1227.38
992.887	1297.38
993.108	1202.38
993.329	1332.38
993.55	1257.38
993.77	1218.38
993.991	1228.38
994.212	1277.38
994.432	1269.38
994.653	1273.38
994.873	1255.38
995.093	1151.38
995.314	1194.38
995.534	1243.38
995.754	1276.38
995.975	1294.38
996.195	1200.38
996.415	1244.38
996.635	1218.38
996.855	1237.38
997.075	1198.38
997.295	1184.38
997.515	1183.38
997.735	1244.38
997.955	1197.38
998.174	1220.38
998.394	1163.38
998.614	1229.38
998.834	1177.38
999.053	1241.38
999.273	1214.38
999.492	1252.38
999.712	1210.38
999.931	1187.38
1000.151	1229.38
1000.37	1182.38
1000.589	1241.38
1000.809	1168.38
1001.028	1303.38
1001.247	1233.38
1001.466	1147.38
1001.685	1270.38
1001.904	1211.38
1002.123	1218.38
1002.342	1210.38
1002.561	1159.38
1002.78	1183.38
1002.999	1274.38
1003.218	1167.38
1003.436	1171.38
1003.655	1224.38
1003.874	1169.38
1004.092	1182.38
1004.311	1229.38
1004.53	1239.38
1004.748	1252.38
1004.966	1188.38
1005.185	1248.38
1005.403	1226.38
1005.622	1207.38
1005.84	1251.38
1006.058	1177.38
1006.276	1180.38
1006.494	1690.38
1006.712	1215.38
1006.931	1250.38
1007.149	1147.38
1007.367	1184.38
1007.584	1180.38
1007.802	1213.38
1008.02	1145.38
1008.238	1276.38
1008.456	1254.38
1008.673	1116.38
1008.891	1204.38
1009.109	1167.38
1009.326	1195.38
1009.544	1303.38
1009.761	1196.38
1009.979	1275.38
1010.196	1265.38
1010.413	1301.38
1010.631	1363.38
1010.848	1364.38
1011.065	1372.38
1011.282	1316.38
1011.5	1254.38
1011.717	1356.38
1011.934	1307.38
1012.151	1341.38
1012.368	1301.38
1012.585	1241.38
1012.801	1303.38
1013.018	1279.38
1013.235	1263.38
1013.452	1267.38
1013.669	1255.38
1013.885	1250.38
1014.102	1288.38
1014.318	1233.38
1014.535	1214.38
1014.751	1261.38
1014.968	1236.38
1015.184	1248.38
1015.401	1194.38
1015.617	1231.38
1015.833	1171.38
1016.049	1193.38
1016.266	1175.38
1016.482	1182.38
1016.698	1095.38
1016.914	1152.38
1017.13	1114.38
1017.346	1119.38
1017.562	1183.38
1017.778	1092.38
1017.993	1088.38
1018.209	1129.38
1018.425	1118.38
1018.641	1079.38
1018.856	1036.38
1019.072	1078.38
1019.288	1135.38
1019.503	1054.38
1019.719	984.38
1019.934	1007.38
1020.149	1091.38
1020.365	1025.38
1020.58	966.38
1020.795	1034.38
1021.011	1003.38
1021.226	996.38
1021.441	1012.38
1021.656	932.38
1021.871	874.38
1022.086	891.38
1022.301	903.38
1022.516	893.38
1022.731	945.38
1022.946	861.38
1023.16	841.38
1023.375	818.38
1023.59	800.38
1023.804	788.38
1024.019	925.38
1024.234	765.38
1024.448	816.38
1024.663	748.38
1024.877	757.38
1025.092	790.38
1025.306	801.38
1025.52	698.38
1025.734	793.38
1025.949	721.38
1026.163	719.38
1026.377	652.38
1026.591	687.38
1026.805	642.38
1027.019	628.38
1027.233	599.38
1027.447	547.38
1027.661	660.38
1027.875	593.38
1028.088	619.38
1028.302	547.38
1028.516	534.38
1028.73	558.38
1028.943	535.38
1029.157	503.38
1029.37	475.38
1029.584	0.38
1029.797	-0.62
1030.011	-2.62
1030.224	1.38
