Data from QEP037381__28__10-00-19-927.txt Node

Date: Wed Dec 21 10:00:19 EST 2022
User: dcclab
Spectrometer: QEP03738
Trigger mode: 4
Integration Time (sec): 1.000000E1
Scans to average: 1
Electric dark correction enabled: true
Nonlinearity correction enabled: false
Boxcar width: 0
XAxis mode: Wavelengths
Number of Pixels in Spectrum: 1044
>>>>>Begin Spectral Data<<<<<
784.041	11.75
784.3	-0.25
784.558	-3.25
784.817	-5.25
785.075	114612.75
785.334	19379.75
785.592	9005.75
785.851	6122.75
786.109	4604.75
786.368	3583.75
786.626	2880.75
786.884	2385.75
787.143	1999.75
787.401	1692.75
787.659	1520.75
787.917	1286.75
788.175	1182.75
788.433	1016.75
788.691	915.75
788.949	834.75
789.207	808.75
789.465	699.75
789.723	649.75
789.98	599.75
790.238	640.75
790.496	582.75
790.753	577.75
791.011	624.75
791.268	550.75
791.526	521.75
791.783	548.75
792.041	530.75
792.298	441.75
792.556	507.75
792.813	463.75
793.07	477.75
793.327	435.75
793.584	513.75
793.841	429.75
794.099	453.75
794.356	511.75
794.613	406.75
794.869	457.75
795.126	421.75
795.383	377.75
795.64	405.75
795.897	371.75
796.153	439.75
796.41	415.75
796.667	395.75
796.923	395.75
797.18	399.75
797.436	423.75
797.693	380.75
797.949	439.75
798.206	455.75
798.462	364.75
798.718	432.75
798.974	404.75
799.231	440.75
799.487	409.75
799.743	438.75
799.999	452.75
800.255	437.75
800.511	419.75
800.767	464.75
801.023	443.75
801.279	449.75
801.534	478.75
801.79	508.75
802.046	494.75
802.302	564.75
802.557	615.75
802.813	724.75
803.068	804.75
803.324	1068.75
803.579	1322.75
803.835	1746.75
804.09	2404.75
804.345	3028.75
804.601	3791.75
804.856	4570.75
805.111	5219.75
805.366	5699.75
805.621	6079.75
805.876	6307.75
806.131	6463.75
806.386	6521.75
806.641	6522.75
806.896	6700.75
807.151	6824.75
807.406	6915.75
807.661	6995.75
807.915	7037.75
808.17	7198.75
808.425	7285.75
808.679	7249.75
808.934	7374.75
809.188	7364.75
809.443	7454.75
809.697	7543.75
809.951	7526.75
810.206	7588.75
810.46	7640.75
810.714	7768.75
810.968	7759.75
811.223	7801.75
811.477	7879.75
811.731	7972.75
811.985	7936.75
812.239	7884.75
812.493	7985.75
812.747	8056.75
813	8014.75
813.254	8060.75
813.508	8146.75
813.762	8132.75
814.015	8127.75
814.269	8246.75
814.522	8315.75
814.776	8400.75
815.03	8454.75
815.283	8565.75
815.536	8715.75
815.79	8847.75
816.043	8868.75
816.296	8998.75
816.55	9105.75
816.803	9117.75
817.056	9314.75
817.309	9248.75
817.562	9369.75
817.815	9514.75
818.068	9498.75
818.321	9516.75
818.574	9624.75
818.827	9776.75
819.079	9835.75
819.332	10176.75
819.585	10139.75
819.838	10350.75
820.09	10220.75
820.343	10418.75
820.595	10439.75
820.848	10552.75
821.1	10528.75
821.353	10526.75
821.605	10514.75
821.857	10569.75
822.11	10381.75
822.362	10431.75
822.614	10454.75
822.866	10488.75
823.118	10418.75
823.37	10556.75
823.622	10520.75
823.874	10562.75
824.126	10605.75
824.378	10603.75
824.63	10647.75
824.882	10633.75
825.134	10660.75
825.385	10650.75
825.637	10562.75
825.888	10557.75
826.14	10518.75
826.392	10445.75
826.643	10388.75
826.895	10385.75
827.146	10330.75
827.397	10302.75
827.649	10312.75
827.9	10275.75
828.151	10223.75
828.402	10239.75
828.653	10284.75
828.905	10322.75
829.156	10386.75
829.407	10389.75
829.658	10374.75
829.909	10379.75
830.159	10286.75
830.41	10333.75
830.661	10253.75
830.912	10148.75
831.162	10116.75
831.413	10065.75
831.664	10124.75
831.914	10073.75
832.165	10151.75
832.415	10149.75
832.666	10144.75
832.916	10122.75
833.167	10084.75
833.417	10137.75
833.667	10098.75
833.917	10023.75
834.168	10045.75
834.418	10032.75
834.668	10024.75
834.918	9937.75
835.168	9907.75
835.418	9797.75
835.668	9858.75
835.918	9872.75
836.167	9770.75
836.417	9724.75
836.667	9858.75
836.917	9848.75
837.166	9737.75
837.416	9722.75
837.666	9764.75
837.915	9715.75
838.165	9697.75
838.414	9572.75
838.663	9563.75
838.913	9639.75
839.162	9557.75
839.411	9605.75
839.661	9515.75
839.91	9522.75
840.159	9530.75
840.408	9477.75
840.657	9509.75
840.906	9471.75
841.155	9510.75
841.404	9474.75
841.653	9540.75
841.902	9412.75
842.15	9465.75
842.399	9511.75
842.648	9405.75
842.897	9444.75
843.145	9357.75
843.394	9373.75
843.642	9302.75
843.891	9234.75
844.139	9205.75
844.388	9137.75
844.636	9078.75
844.884	9126.75
845.133	9089.75
845.381	9127.75
845.629	9083.75
845.877	9064.75
846.125	9028.75
846.373	9104.75
846.621	9009.75
846.869	8989.75
847.117	8932.75
847.365	8899.75
847.613	8871.75
847.861	8868.75
848.108	8882.75
848.356	8773.75
848.604	8757.75
848.851	8840.75
849.099	8831.75
849.346	8739.75
849.594	8863.75
849.841	8916.75
850.089	8880.75
850.336	8880.75
850.583	8882.75
850.831	8816.75
851.078	8824.75
851.325	8730.75
851.572	8782.75
851.819	8720.75
852.066	8562.75
852.313	8426.75
852.56	8407.75
852.807	8368.75
853.054	8315.75
853.301	8383.75
853.548	8319.75
853.794	8430.75
854.041	8382.75
854.288	8390.75
854.534	8608.75
854.781	8533.75
855.028	8494.75
855.274	8479.75
855.52	8423.75
855.767	8393.75
856.013	8404.75
856.26	8662.75
856.506	8324.75
856.752	8293.75
856.998	8241.75
857.244	8301.75
857.49	8321.75
857.736	8320.75
857.982	8356.75
858.228	8293.75
858.474	8226.75
858.72	8249.75
858.966	8174.75
859.212	8057.75
859.458	7974.75
859.703	7951.75
859.949	7823.75
860.195	7804.75
860.44	7717.75
860.686	7759.75
860.931	7749.75
861.177	7676.75
861.422	7708.75
861.667	7649.75
861.913	7626.75
862.158	7666.75
862.403	7639.75
862.648	7695.75
862.893	7722.75
863.138	7618.75
863.384	7644.75
863.629	7668.75
863.873	7635.75
864.118	7638.75
864.363	7508.75
864.608	7531.75
864.853	7550.75
865.098	7500.75
865.342	7446.75
865.587	7393.75
865.832	7420.75
866.076	7419.75
866.321	7377.75
866.565	7407.75
866.81	7271.75
867.054	7313.75
867.298	7274.75
867.543	7220.75
867.787	7313.75
868.031	7273.75
868.275	7261.75
868.519	7195.75
868.764	7212.75
869.008	7225.75
869.252	7176.75
869.496	7159.75
869.739	7139.75
869.983	7102.75
870.227	7089.75
870.471	7092.75
870.715	7102.75
870.958	7137.75
871.202	7095.75
871.446	7104.75
871.689	7093.75
871.933	7193.75
872.176	7160.75
872.42	7148.75
872.663	7171.75
872.906	7164.75
873.15	7067.75
873.393	6995.75
873.636	7138.75
873.879	7036.75
874.122	7001.75
874.366	6867.75
874.609	6823.75
874.852	6683.75
875.095	6691.75
875.337	6675.75
875.58	6601.75
875.823	6609.75
876.066	6636.75
876.309	6622.75
876.551	6558.75
876.794	6493.75
877.037	6526.75
877.279	6464.75
877.522	6481.75
877.764	6524.75
878.007	6479.75
878.249	6490.75
878.491	6451.75
878.734	6466.75
878.976	6459.75
879.218	6379.75
879.46	6366.75
879.702	6330.75
879.945	6252.75
880.187	6163.75
880.429	6224.75
880.671	6148.75
880.912	6208.75
881.154	6116.75
881.396	6032.75
881.638	6061.75
881.88	6086.75
882.121	6006.75
882.363	6043.75
882.605	6076.75
882.846	6091.75
883.088	6017.75
883.329	5962.75
883.571	6013.75
883.812	6050.75
884.053	6140.75
884.295	6229.75
884.536	6327.75
884.777	6336.75
885.018	6288.75
885.259	6205.75
885.5	6163.75
885.742	6389.75
885.982	6160.75
886.223	6044.75
886.464	6081.75
886.705	5937.75
886.946	5983.75
887.187	5797.75
887.428	5815.75
887.668	5743.75
887.909	5653.75
888.15	5572.75
888.39	5603.75
888.631	5647.75
888.871	5576.75
889.111	5457.75
889.352	5469.75
889.592	5389.75
889.833	5355.75
890.073	5361.75
890.313	5378.75
890.553	5240.75
890.793	5245.75
891.033	5242.75
891.273	5211.75
891.513	5161.75
891.753	5247.75
891.993	5156.75
892.233	5175.75
892.473	5263.75
892.713	5172.75
892.952	5103.75
893.192	5181.75
893.432	5118.75
893.671	5162.75
893.911	5086.75
894.15	5115.75
894.39	5005.75
894.629	5022.75
894.869	4988.75
895.108	4980.75
895.347	4901.75
895.587	4961.75
895.826	4890.75
896.065	4869.75
896.304	4879.75
896.543	4940.75
896.782	4807.75
897.021	4879.75
897.26	4830.75
897.499	4826.75
897.738	4838.75
897.977	4789.75
898.216	4733.75
898.454	4707.75
898.693	4648.75
898.932	4689.75
899.17	4630.75
899.409	4619.75
899.647	4593.75
899.886	4565.75
900.124	4610.75
900.363	4556.75
900.601	4612.75
900.839	4642.75
901.078	4625.75
901.316	4604.75
901.554	4614.75
901.792	4614.75
902.03	4591.75
902.268	4654.75
902.506	4666.75
902.744	4580.75
902.982	4575.75
903.22	4500.75
903.458	4457.75
903.695	4457.75
903.933	4390.75
904.171	4308.75
904.409	4302.75
904.646	4256.75
904.884	4131.75
905.121	4171.75
905.359	4098.75
905.596	4076.75
905.833	4042.75
906.071	4040.75
906.308	4045.75
906.545	4022.75
906.783	3937.75
907.02	4007.75
907.257	3930.75
907.494	3973.75
907.731	3943.75
907.968	3932.75
908.205	3900.75
908.442	3871.75
908.679	3915.75
908.915	3851.75
909.152	3818.75
909.389	3725.75
909.626	3779.75
909.862	3702.75
910.099	3722.75
910.335	3750.75
910.572	3676.75
910.808	3712.75
911.045	3688.75
911.281	3655.75
911.518	3696.75
911.754	3604.75
911.99	3595.75
912.226	3563.75
912.463	3483.75
912.699	3527.75
912.935	3504.75
913.171	3498.75
913.407	3437.75
913.643	3499.75
913.879	3436.75
914.114	3427.75
914.35	3312.75
914.586	3366.75
914.822	3281.75
915.057	3363.75
915.293	3235.75
915.529	3195.75
915.764	3286.75
916	3241.75
916.235	3268.75
916.471	3247.75
916.706	3202.75
916.941	3231.75
917.177	3195.75
917.412	3269.75
917.647	3230.75
917.882	3169.75
918.117	3215.75
918.352	3166.75
918.588	3225.75
918.823	3122.75
919.057	3137.75
919.292	3037.75
919.527	3107.75
919.762	3011.75
919.997	3023.75
920.232	3000.75
920.466	2991.75
920.701	2871.75
920.935	2955.75
921.17	2876.75
921.405	2877.75
921.639	2923.75
921.873	2862.75
922.108	2888.75
922.342	2901.75
922.576	2830.75
922.811	2828.75
923.045	2857.75
923.279	2851.75
923.513	2712.75
923.747	2804.75
923.981	2795.75
924.215	2779.75
924.449	2719.75
924.683	2649.75
924.917	2672.75
925.151	2668.75
925.385	2733.75
925.618	2704.75
925.852	2685.75
926.086	2602.75
926.319	2624.75
926.553	2639.75
926.786	2695.75
927.02	2633.75
927.253	2705.75
927.486	2674.75
927.72	2596.75
927.953	2681.75
928.186	2652.75
928.42	2662.75
928.653	2598.75
928.886	2560.75
929.119	2610.75
929.352	2575.75
929.585	2576.75
929.818	2512.75
930.051	2546.75
930.284	2518.75
930.516	2459.75
930.749	2453.75
930.982	2518.75
931.215	2484.75
931.447	2391.75
931.68	2423.75
931.912	2419.75
932.145	2403.75
932.377	2427.75
932.61	2553.75
932.842	2369.75
933.074	2430.75
933.307	2382.75
933.539	2465.75
933.771	2446.75
934.003	2420.75
934.236	2491.75
934.468	2535.75
934.7	2466.75
934.932	2502.75
935.164	2471.75
935.395	2431.75
935.627	2433.75
935.859	2419.75
936.091	2344.75
936.323	2396.75
936.554	2400.75
936.786	2340.75
937.017	2292.75
937.249	2318.75
937.481	2266.75
937.712	2345.75
937.943	2300.75
938.175	2302.75
938.406	2294.75
938.637	2350.75
938.869	2282.75
939.1	2327.75
939.331	2308.75
939.562	2317.75
939.793	2342.75
940.024	2409.75
940.255	2576.75
940.486	2749.75
940.717	2932.75
940.948	2913.75
941.179	2718.75
941.409	2529.75
941.64	2435.75
941.871	2342.75
942.102	2232.75
942.332	2236.75
942.563	2263.75
942.793	2241.75
943.024	2153.75
943.254	2222.75
943.484	2255.75
943.715	2231.75
943.945	2216.75
944.175	2164.75
944.405	2130.75
944.636	2138.75
944.866	2189.75
945.096	2186.75
945.326	2089.75
945.556	2136.75
945.786	2180.75
946.016	2138.75
946.245	2082.75
946.475	2084.75
946.705	2079.75
946.935	2104.75
947.164	2088.75
947.394	2067.75
947.624	2041.75
947.853	2078.75
948.083	2063.75
948.312	2010.75
948.542	1986.75
948.771	1992.75
949	1979.75
949.23	2007.75
949.459	2006.75
949.688	2088.75
949.917	1986.75
950.146	2032.75
950.375	2071.75
950.604	1961.75
950.833	2063.75
951.062	2054.75
951.291	1996.75
951.52	1972.75
951.749	1992.75
951.978	1968.75
952.206	1975.75
952.435	1942.75
952.664	1978.75
952.892	2006.75
953.121	1948.75
953.349	2004.75
953.578	1969.75
953.806	1932.75
954.035	1881.75
954.263	1948.75
954.491	1864.75
954.719	1891.75
954.948	1881.75
955.176	1877.75
955.404	1824.75
955.632	1899.75
955.86	1868.75
956.088	1847.75
956.316	1902.75
956.544	1893.75
956.772	1869.75
956.999	1837.75
957.227	1885.75
957.455	1793.75
957.683	1820.75
957.91	1796.75
958.138	1763.75
958.365	1794.75
958.593	1783.75
958.82	1717.75
959.048	1796.75
959.275	1783.75
959.502	1774.75
959.73	1715.75
959.957	1773.75
960.184	1788.75
960.411	1706.75
960.638	1809.75
960.865	1741.75
961.092	1765.75
961.319	1678.75
961.546	1785.75
961.773	1773.75
962	1718.75
962.227	1780.75
962.454	1734.75
962.68	1735.75
962.907	1742.75
963.134	1698.75
963.36	1693.75
963.587	1753.75
963.813	1653.75
964.04	1743.75
964.266	1661.75
964.493	1734.75
964.719	1703.75
964.945	1689.75
965.171	1625.75
965.398	1668.75
965.624	1713.75
965.85	1624.75
966.076	1624.75
966.302	1664.75
966.528	1630.75
966.754	1654.75
966.98	1662.75
967.206	1641.75
967.431	1587.75
967.657	1669.75
967.883	1626.75
968.109	1629.75
968.334	1565.75
968.56	1552.75
968.785	1583.75
969.011	1539.75
969.236	1603.75
969.462	1561.75
969.687	1553.75
969.912	1591.75
970.138	1634.75
970.363	1525.75
970.588	1550.75
970.813	1523.75
971.038	1529.75
971.263	1571.75
971.488	1539.75
971.713	1602.75
971.938	1565.75
972.163	1443.75
972.388	1485.75
972.613	1494.75
972.838	1517.75
973.062	1504.75
973.287	1504.75
973.512	1459.75
973.736	1490.75
973.961	1470.75
974.185	1464.75
974.41	1495.75
974.634	1437.75
974.858	1392.75
975.083	1484.75
975.307	1468.75
975.531	1423.75
975.755	1371.75
975.98	1397.75
976.204	1346.75
976.428	1344.75
976.652	1353.75
976.876	1340.75
977.1	1375.75
977.324	1317.75
977.547	1361.75
977.771	1385.75
977.995	1370.75
978.219	1322.75
978.442	1436.75
978.666	1377.75
978.89	1344.75
979.113	1365.75
979.337	1337.75
979.56	1323.75
979.783	1386.75
980.007	1272.75
980.23	1324.75
980.453	1315.75
980.677	1328.75
980.9	1316.75
981.123	1240.75
981.346	1315.75
981.569	1319.75
981.792	1331.75
982.015	1327.75
982.238	1244.75
982.461	1301.75
982.684	1255.75
982.907	1247.75
983.129	1229.75
983.352	1297.75
983.575	1286.75
983.797	1266.75
984.02	1234.75
984.242	1218.75
984.465	1216.75
984.687	1285.75
984.91	1289.75
985.132	1263.75
985.354	1279.75
985.577	1237.75
985.799	1230.75
986.021	1197.75
986.243	1191.75
986.465	1228.75
986.687	1259.75
986.909	1289.75
987.131	1221.75
987.353	1203.75
987.575	1248.75
987.797	1173.75
988.019	1161.75
988.241	1219.75
988.462	1179.75
988.684	1214.75
988.906	1273.75
989.127	1279.75
989.349	1147.75
989.57	1179.75
989.792	1218.75
990.013	1233.75
990.234	1242.75
990.456	1271.75
990.677	1259.75
990.898	1193.75
991.119	1194.75
991.341	1233.75
991.562	1146.75
991.783	1205.75
992.004	1146.75
992.225	1130.75
992.446	1188.75
992.667	1119.75
992.887	1185.75
993.108	1089.75
993.329	1220.75
993.55	1157.75
993.77	1124.75
993.991	1097.75
994.212	1157.75
994.432	1137.75
994.653	1160.75
994.873	1148.75
995.093	1037.75
995.314	1096.75
995.534	1164.75
995.754	1157.75
995.975	1208.75
996.195	1081.75
996.415	1140.75
996.635	1109.75
996.855	1120.75
997.075	1099.75
997.295	1119.75
997.515	1090.75
997.735	1131.75
997.955	1127.75
998.174	1098.75
998.394	1061.75
998.614	1119.75
998.834	1091.75
999.053	1130.75
999.273	1104.75
999.492	1174.75
999.712	1101.75
999.931	1085.75
1000.151	1095.75
1000.37	1125.75
1000.589	1160.75
1000.809	1090.75
1001.028	1186.75
1001.247	1159.75
1001.466	1049.75
1001.685	1180.75
1001.904	1150.75
1002.123	1136.75
1002.342	1102.75
1002.561	1085.75
1002.78	1094.75
1002.999	1159.75
1003.218	1122.75
1003.436	1109.75
1003.655	1139.75
1003.874	1084.75
1004.092	1084.75
1004.311	1169.75
1004.53	1131.75
1004.748	1190.75
1004.966	1127.75
1005.185	1171.75
1005.403	1153.75
1005.622	1119.75
1005.84	1190.75
1006.058	1096.75
1006.276	1131.75
1006.494	1616.75
1006.712	1112.75
1006.931	1196.75
1007.149	1089.75
1007.367	1077.75
1007.584	1127.75
1007.802	1167.75
1008.02	1106.75
1008.238	1198.75
1008.456	1187.75
1008.673	1041.75
1008.891	1160.75
1009.109	1095.75
1009.326	1154.75
1009.544	1237.75
1009.761	1113.75
1009.979	1205.75
1010.196	1202.75
1010.413	1262.75
1010.631	1296.75
1010.848	1314.75
1011.065	1310.75
1011.282	1248.75
1011.5	1190.75
1011.717	1319.75
1011.934	1266.75
1012.151	1286.75
1012.368	1258.75
1012.585	1208.75
1012.801	1273.75
1013.018	1228.75
1013.235	1202.75
1013.452	1181.75
1013.669	1201.75
1013.885	1199.75
1014.102	1217.75
1014.318	1170.75
1014.535	1158.75
1014.751	1218.75
1014.968	1192.75
1015.184	1209.75
1015.401	1165.75
1015.617	1176.75
1015.833	1124.75
1016.049	1145.75
1016.266	1128.75
1016.482	1154.75
1016.698	1081.75
1016.914	1143.75
1017.13	1061.75
1017.346	1080.75
1017.562	1148.75
1017.778	1050.75
1017.993	1021.75
1018.209	1078.75
1018.425	1067.75
1018.641	1028.75
1018.856	1016.75
1019.072	1057.75
1019.288	1094.75
1019.503	1042.75
1019.719	943.75
1019.934	975.75
1020.149	1031.75
1020.365	1008.75
1020.58	947.75
1020.795	1005.75
1021.011	972.75
1021.226	935.75
1021.441	978.75
1021.656	904.75
1021.871	843.75
1022.086	853.75
1022.301	849.75
1022.516	856.75
1022.731	903.75
1022.946	838.75
1023.16	822.75
1023.375	772.75
1023.59	766.75
1023.804	744.75
1024.019	853.75
1024.234	723.75
1024.448	749.75
1024.663	696.75
1024.877	742.75
1025.092	756.75
1025.306	765.75
1025.52	672.75
1025.734	761.75
1025.949	689.75
1026.163	665.75
1026.377	610.75
1026.591	660.75
1026.805	597.75
1027.019	597.75
1027.233	580.75
1027.447	541.75
1027.661	630.75
1027.875	575.75
1028.088	591.75
1028.302	523.75
1028.516	522.75
1028.73	519.75
1028.943	532.75
1029.157	489.75
1029.37	455.75
1029.584	-2.25
1029.797	-0.25
1030.011	0.75
1030.224	-1.25
