Data from QEP037381__33__10-01-09-928.txt Node

Date: Wed Dec 21 10:01:09 EST 2022
User: dcclab
Spectrometer: QEP03738
Trigger mode: 4
Integration Time (sec): 1.000000E1
Scans to average: 1
Electric dark correction enabled: true
Nonlinearity correction enabled: false
Boxcar width: 0
XAxis mode: Wavelengths
Number of Pixels in Spectrum: 1044
>>>>>Begin Spectral Data<<<<<
784.041	14.75
784.3	-0.25
784.558	-0.25
784.817	-5.25
785.075	111948.75
785.334	19506.75
785.592	9178.75
785.851	6381.75
786.109	4823.75
786.368	3714.75
786.626	3000.75
786.884	2474.75
787.143	2066.75
787.401	1696.75
787.659	1514.75
787.917	1285.75
788.175	1154.75
788.433	1007.75
788.691	907.75
788.949	842.75
789.207	798.75
789.465	692.75
789.723	685.75
789.98	603.75
790.238	643.75
790.496	604.75
790.753	572.75
791.011	618.75
791.268	541.75
791.526	530.75
791.783	531.75
792.041	516.75
792.298	436.75
792.556	494.75
792.813	468.75
793.07	451.75
793.327	443.75
793.584	520.75
793.841	437.75
794.099	440.75
794.356	501.75
794.613	414.75
794.869	459.75
795.126	411.75
795.383	396.75
795.64	407.75
795.897	365.75
796.153	419.75
796.41	403.75
796.667	392.75
796.923	397.75
797.18	386.75
797.436	419.75
797.693	390.75
797.949	428.75
798.206	456.75
798.462	366.75
798.718	433.75
798.974	407.75
799.231	431.75
799.487	418.75
799.743	414.75
799.999	441.75
800.255	423.75
800.511	416.75
800.767	450.75
801.023	447.75
801.279	446.75
801.534	465.75
801.79	486.75
802.046	481.75
802.302	570.75
802.557	604.75
802.813	684.75
803.068	769.75
803.324	1006.75
803.579	1294.75
803.835	1666.75
804.09	2261.75
804.345	2858.75
804.601	3556.75
804.856	4246.75
805.111	4987.75
805.366	5432.75
805.621	5736.75
805.876	5984.75
806.131	6059.75
806.386	6146.75
806.641	6290.75
806.896	6338.75
807.151	6499.75
807.406	6512.75
807.661	6659.75
807.915	6752.75
808.17	6831.75
808.425	6891.75
808.679	6937.75
808.934	7009.75
809.188	7033.75
809.443	7101.75
809.697	7185.75
809.951	7232.75
810.206	7216.75
810.46	7271.75
810.714	7416.75
810.968	7407.75
811.223	7410.75
811.477	7513.75
811.731	7505.75
811.985	7533.75
812.239	7569.75
812.493	7610.75
812.747	7694.75
813	7596.75
813.254	7670.75
813.508	7752.75
813.762	7757.75
814.015	7753.75
814.269	7799.75
814.522	7925.75
814.776	8000.75
815.03	8075.75
815.283	8189.75
815.536	8274.75
815.79	8394.75
816.043	8414.75
816.296	8611.75
816.55	8638.75
816.803	8762.75
817.056	8920.75
817.309	8852.75
817.562	8937.75
817.815	9070.75
818.068	9111.75
818.321	9139.75
818.574	9225.75
818.827	9358.75
819.079	9420.75
819.332	9657.75
819.585	9745.75
819.838	9783.75
820.09	9833.75
820.343	9988.75
820.595	9939.75
820.848	9982.75
821.1	10045.75
821.353	10067.75
821.605	10049.75
821.857	10029.75
822.11	9977.75
822.362	9915.75
822.614	9893.75
822.866	9968.75
823.118	9963.75
823.37	10063.75
823.622	10077.75
823.874	10054.75
824.126	10250.75
824.378	10175.75
824.63	10122.75
824.882	10206.75
825.134	10115.75
825.385	10230.75
825.637	10105.75
825.888	10067.75
826.14	10047.75
826.392	9942.75
826.643	9906.75
826.895	9952.75
827.146	9915.75
827.397	9787.75
827.649	9883.75
827.9	9810.75
828.151	9804.75
828.402	9847.75
828.653	9886.75
828.905	9932.75
829.156	9895.75
829.407	9888.75
829.658	9881.75
829.909	9963.75
830.159	9860.75
830.41	9849.75
830.661	9803.75
830.912	9737.75
831.162	9667.75
831.413	9656.75
831.664	9696.75
831.914	9684.75
832.165	9691.75
832.415	9704.75
832.666	9726.75
832.916	9747.75
833.167	9635.75
833.417	9699.75
833.667	9634.75
833.917	9626.75
834.168	9688.75
834.418	9526.75
834.668	9576.75
834.918	9513.75
835.168	9486.75
835.418	9460.75
835.668	9398.75
835.918	9490.75
836.167	9424.75
836.417	9313.75
836.667	9379.75
836.917	9380.75
837.166	9287.75
837.416	9360.75
837.666	9373.75
837.915	9302.75
838.165	9251.75
838.414	9175.75
838.663	9151.75
838.913	9175.75
839.162	9165.75
839.411	9201.75
839.661	9093.75
839.91	9078.75
840.159	9108.75
840.408	9112.75
840.657	9100.75
840.906	9071.75
841.155	9154.75
841.404	9052.75
841.653	9137.75
841.902	9040.75
842.15	9084.75
842.399	9023.75
842.648	9070.75
842.897	9031.75
843.145	8960.75
843.394	8871.75
843.642	8854.75
843.891	8870.75
844.139	8799.75
844.388	8756.75
844.636	8736.75
844.884	8770.75
845.133	8668.75
845.381	8730.75
845.629	8715.75
845.877	8672.75
846.125	8707.75
846.373	8643.75
846.621	8563.75
846.869	8714.75
847.117	8540.75
847.365	8546.75
847.613	8486.75
847.861	8461.75
848.108	8446.75
848.356	8511.75
848.604	8383.75
848.851	8502.75
849.099	8431.75
849.346	8453.75
849.594	8481.75
849.841	8573.75
850.089	8510.75
850.336	8509.75
850.583	8539.75
850.831	8549.75
851.078	8442.75
851.325	8405.75
851.572	8503.75
851.819	8366.75
852.066	8268.75
852.313	8091.75
852.56	8049.75
852.807	8020.75
853.054	7954.75
853.301	8006.75
853.548	8016.75
853.794	8110.75
854.041	8103.75
854.288	8180.75
854.534	8268.75
854.781	8171.75
855.028	8149.75
855.274	8143.75
855.52	8062.75
855.767	8039.75
856.013	8046.75
856.26	8346.75
856.506	7877.75
856.752	7946.75
856.998	7960.75
857.244	7922.75
857.49	7959.75
857.736	8018.75
857.982	7999.75
858.228	7955.75
858.474	7854.75
858.72	7869.75
858.966	7781.75
859.212	7749.75
859.458	7671.75
859.703	7707.75
859.949	7473.75
860.195	7489.75
860.44	7449.75
860.686	7359.75
860.931	7489.75
861.177	7381.75
861.422	7416.75
861.667	7311.75
861.913	7323.75
862.158	7350.75
862.403	7360.75
862.648	7416.75
862.893	7424.75
863.138	7394.75
863.384	7303.75
863.629	7282.75
863.873	7362.75
864.118	7276.75
864.363	7206.75
864.608	7238.75
864.853	7231.75
865.098	7219.75
865.342	7217.75
865.587	7122.75
865.832	7145.75
866.076	7163.75
866.321	7055.75
866.565	7073.75
866.81	6948.75
867.054	7027.75
867.298	7052.75
867.543	6928.75
867.787	6956.75
868.031	6970.75
868.275	6920.75
868.519	6944.75
868.764	6981.75
869.008	6906.75
869.252	6990.75
869.496	6836.75
869.739	6858.75
869.983	6945.75
870.227	6860.75
870.471	6802.75
870.715	6855.75
870.958	6851.75
871.202	6888.75
871.446	6837.75
871.689	6857.75
871.933	6852.75
872.176	6876.75
872.42	6829.75
872.663	6842.75
872.906	6828.75
873.15	6789.75
873.393	6702.75
873.636	6755.75
873.879	6704.75
874.122	6703.75
874.366	6554.75
874.609	6501.75
874.852	6451.75
875.095	6459.75
875.337	6352.75
875.58	6293.75
875.823	6384.75
876.066	6376.75
876.309	6397.75
876.551	6344.75
876.794	6236.75
877.037	6284.75
877.279	6262.75
877.522	6302.75
877.764	6250.75
878.007	6201.75
878.249	6264.75
878.491	6202.75
878.734	6242.75
878.976	6213.75
879.218	6117.75
879.46	6150.75
879.702	6169.75
879.945	6047.75
880.187	5978.75
880.429	5953.75
880.671	5899.75
880.912	5926.75
881.154	5882.75
881.396	5799.75
881.638	5850.75
881.88	5825.75
882.121	5787.75
882.363	5795.75
882.605	5813.75
882.846	5768.75
883.088	5779.75
883.329	5760.75
883.571	5747.75
883.812	5797.75
884.053	5858.75
884.295	5970.75
884.536	6150.75
884.777	6042.75
885.018	5997.75
885.259	5930.75
885.5	5852.75
885.742	6118.75
885.982	5848.75
886.223	5828.75
886.464	5745.75
886.705	5647.75
886.946	5758.75
887.187	5621.75
887.428	5630.75
887.668	5516.75
887.909	5428.75
888.15	5374.75
888.39	5375.75
888.631	5399.75
888.871	5361.75
889.111	5308.75
889.352	5245.75
889.592	5188.75
889.833	5158.75
890.073	5133.75
890.313	5167.75
890.553	5050.75
890.793	5094.75
891.033	5032.75
891.273	4986.75
891.513	4993.75
891.753	4998.75
891.993	4974.75
892.233	4999.75
892.473	5060.75
892.713	5024.75
892.952	4929.75
893.192	4985.75
893.432	4922.75
893.671	4979.75
893.911	4899.75
894.15	4935.75
894.39	4866.75
894.629	4872.75
894.869	4820.75
895.108	4790.75
895.347	4719.75
895.587	4749.75
895.826	4764.75
896.065	4734.75
896.304	4755.75
896.543	4757.75
896.782	4630.75
897.021	4711.75
897.26	4695.75
897.499	4709.75
897.738	4685.75
897.977	4623.75
898.216	4578.75
898.454	4557.75
898.693	4502.75
898.932	4558.75
899.17	4479.75
899.409	4498.75
899.647	4467.75
899.886	4443.75
900.124	4478.75
900.363	4407.75
900.601	4438.75
900.839	4419.75
901.078	4419.75
901.316	4424.75
901.554	4453.75
901.792	4498.75
902.03	4424.75
902.268	4431.75
902.506	4451.75
902.744	4397.75
902.982	4386.75
903.22	4363.75
903.458	4287.75
903.695	4299.75
903.933	4260.75
904.171	4144.75
904.409	4099.75
904.646	4103.75
904.884	4033.75
905.121	4091.75
905.359	4001.75
905.596	3957.75
905.833	3898.75
906.071	3878.75
906.308	3931.75
906.545	3896.75
906.783	3811.75
907.02	3881.75
907.257	3823.75
907.494	3842.75
907.731	3850.75
907.968	3820.75
908.205	3779.75
908.442	3756.75
908.679	3738.75
908.915	3748.75
909.152	3721.75
909.389	3605.75
909.626	3633.75
909.862	3637.75
910.099	3584.75
910.335	3642.75
910.572	3585.75
910.808	3551.75
911.045	3588.75
911.281	3521.75
911.518	3541.75
911.754	3509.75
911.99	3503.75
912.226	3458.75
912.463	3402.75
912.699	3438.75
912.935	3430.75
913.171	3353.75
913.407	3301.75
913.643	3356.75
913.879	3332.75
914.114	3288.75
914.35	3255.75
914.586	3220.75
914.822	3203.75
915.057	3243.75
915.293	3117.75
915.529	3126.75
915.764	3162.75
916	3174.75
916.235	3143.75
916.471	3180.75
916.706	3078.75
916.941	3147.75
917.177	3104.75
917.412	3112.75
917.647	3095.75
917.882	3067.75
918.117	3108.75
918.352	3073.75
918.588	3133.75
918.823	3088.75
919.057	3004.75
919.292	2907.75
919.527	3038.75
919.762	2933.75
919.997	2972.75
920.232	2873.75
920.466	2905.75
920.701	2783.75
920.935	2836.75
921.17	2818.75
921.405	2754.75
921.639	2826.75
921.873	2781.75
922.108	2804.75
922.342	2811.75
922.576	2707.75
922.811	2721.75
923.045	2745.75
923.279	2777.75
923.513	2636.75
923.747	2740.75
923.981	2704.75
924.215	2682.75
924.449	2647.75
924.683	2573.75
924.917	2599.75
925.151	2582.75
925.385	2682.75
925.618	2579.75
925.852	2601.75
926.086	2581.75
926.319	2562.75
926.553	2573.75
926.786	2583.75
927.02	2593.75
927.253	2584.75
927.486	2597.75
927.72	2549.75
927.953	2577.75
928.186	2539.75
928.42	2571.75
928.653	2513.75
928.886	2493.75
929.119	2521.75
929.352	2525.75
929.585	2491.75
929.818	2469.75
930.051	2487.75
930.284	2440.75
930.516	2376.75
930.749	2383.75
930.982	2460.75
931.215	2407.75
931.447	2342.75
931.68	2388.75
931.912	2345.75
932.145	2325.75
932.377	2359.75
932.61	2473.75
932.842	2327.75
933.074	2370.75
933.307	2319.75
933.539	2386.75
933.771	2400.75
934.003	2336.75
934.236	2394.75
934.468	2397.75
934.7	2321.75
934.932	2362.75
935.164	2318.75
935.395	2322.75
935.627	2286.75
935.859	2314.75
936.091	2243.75
936.323	2327.75
936.554	2311.75
936.786	2276.75
937.017	2250.75
937.249	2237.75
937.481	2195.75
937.712	2267.75
937.943	2221.75
938.175	2218.75
938.406	2227.75
938.637	2284.75
938.869	2149.75
939.1	2265.75
939.331	2229.75
939.562	2228.75
939.793	2224.75
940.024	2226.75
940.255	2250.75
940.486	2149.75
940.717	2177.75
940.948	2153.75
941.179	2106.75
941.409	2153.75
941.64	2108.75
941.871	2146.75
942.102	2135.75
942.332	2134.75
942.563	2166.75
942.793	2159.75
943.024	2095.75
943.254	2117.75
943.484	2157.75
943.715	2188.75
943.945	2110.75
944.175	2086.75
944.405	2088.75
944.636	2089.75
944.866	2105.75
945.096	2132.75
945.326	2060.75
945.556	2131.75
945.786	2135.75
946.016	2064.75
946.245	2023.75
946.475	2038.75
946.705	2027.75
946.935	2007.75
947.164	2025.75
947.394	1997.75
947.624	2010.75
947.853	2040.75
948.083	2005.75
948.312	1984.75
948.542	1941.75
948.771	1920.75
949	1926.75
949.23	1934.75
949.459	1982.75
949.688	2036.75
949.917	1971.75
950.146	1965.75
950.375	2041.75
950.604	1926.75
950.833	1997.75
951.062	2019.75
951.291	1963.75
951.52	1925.75
951.749	1956.75
951.978	1895.75
952.206	1893.75
952.435	1897.75
952.664	1918.75
952.892	1936.75
953.121	1953.75
953.349	1960.75
953.578	1910.75
953.806	1889.75
954.035	1844.75
954.263	1853.75
954.491	1857.75
954.719	1878.75
954.948	1820.75
955.176	1840.75
955.404	1776.75
955.632	1835.75
955.86	1847.75
956.088	1814.75
956.316	1831.75
956.544	1835.75
956.772	1826.75
956.999	1780.75
957.227	1841.75
957.455	1765.75
957.683	1782.75
957.91	1739.75
958.138	1717.75
958.365	1746.75
958.593	1731.75
958.82	1671.75
959.048	1767.75
959.275	1723.75
959.502	1711.75
959.73	1712.75
959.957	1736.75
960.184	1735.75
960.411	1706.75
960.638	1793.75
960.865	1721.75
961.092	1765.75
961.319	1641.75
961.546	1711.75
961.773	1747.75
962	1693.75
962.227	1759.75
962.454	1705.75
962.68	1698.75
962.907	1704.75
963.134	1652.75
963.36	1689.75
963.587	1723.75
963.813	1641.75
964.04	1674.75
964.266	1610.75
964.493	1703.75
964.719	1660.75
964.945	1691.75
965.171	1567.75
965.398	1649.75
965.624	1642.75
965.85	1572.75
966.076	1577.75
966.302	1629.75
966.528	1576.75
966.754	1602.75
966.98	1613.75
967.206	1604.75
967.431	1515.75
967.657	1639.75
967.883	1576.75
968.109	1594.75
968.334	1549.75
968.56	1508.75
968.785	1552.75
969.011	1505.75
969.236	1550.75
969.462	1512.75
969.687	1535.75
969.912	1586.75
970.138	1589.75
970.363	1505.75
970.588	1517.75
970.813	1523.75
971.038	1477.75
971.263	1544.75
971.488	1550.75
971.713	1520.75
971.938	1531.75
972.163	1457.75
972.388	1509.75
972.613	1461.75
972.838	1489.75
973.062	1464.75
973.287	1463.75
973.512	1417.75
973.736	1445.75
973.961	1413.75
974.185	1438.75
974.41	1483.75
974.634	1389.75
974.858	1395.75
975.083	1415.75
975.307	1451.75
975.531	1393.75
975.755	1359.75
975.98	1366.75
976.204	1305.75
976.428	1305.75
976.652	1355.75
976.876	1314.75
977.1	1323.75
977.324	1287.75
977.547	1355.75
977.771	1354.75
977.995	1367.75
978.219	1288.75
978.442	1419.75
978.666	1344.75
978.89	1334.75
979.113	1346.75
979.337	1333.75
979.56	1300.75
979.783	1397.75
980.007	1271.75
980.23	1308.75
980.453	1272.75
980.677	1319.75
980.9	1281.75
981.123	1216.75
981.346	1327.75
981.569	1305.75
981.792	1334.75
982.015	1296.75
982.238	1233.75
982.461	1271.75
982.684	1248.75
982.907	1215.75
983.129	1223.75
983.352	1289.75
983.575	1237.75
983.797	1253.75
984.02	1211.75
984.242	1210.75
984.465	1213.75
984.687	1252.75
984.91	1260.75
985.132	1249.75
985.354	1266.75
985.577	1258.75
985.799	1214.75
986.021	1152.75
986.243	1161.75
986.465	1196.75
986.687	1252.75
986.909	1299.75
987.131	1211.75
987.353	1184.75
987.575	1221.75
987.797	1197.75
988.019	1138.75
988.241	1210.75
988.462	1138.75
988.684	1209.75
988.906	1224.75
989.127	1277.75
989.349	1136.75
989.57	1191.75
989.792	1201.75
990.013	1208.75
990.234	1237.75
990.456	1251.75
990.677	1234.75
990.898	1173.75
991.119	1161.75
991.341	1208.75
991.562	1113.75
991.783	1169.75
992.004	1113.75
992.225	1103.75
992.446	1142.75
992.667	1089.75
992.887	1180.75
993.108	1058.75
993.329	1213.75
993.55	1157.75
993.77	1088.75
993.991	1095.75
994.212	1124.75
994.432	1127.75
994.653	1155.75
994.873	1129.75
995.093	1023.75
995.314	1076.75
995.534	1145.75
995.754	1166.75
995.975	1191.75
996.195	1075.75
996.415	1121.75
996.635	1099.75
996.855	1121.75
997.075	1079.75
997.295	1095.75
997.515	1086.75
997.735	1123.75
997.955	1083.75
998.174	1078.75
998.394	1068.75
998.614	1116.75
998.834	1078.75
999.053	1144.75
999.273	1095.75
999.492	1139.75
999.712	1101.75
999.931	1059.75
1000.151	1103.75
1000.37	1095.75
1000.589	1134.75
1000.809	1068.75
1001.028	1174.75
1001.247	1133.75
1001.466	1041.75
1001.685	1156.75
1001.904	1133.75
1002.123	1116.75
1002.342	1098.75
1002.561	1052.75
1002.78	1092.75
1002.999	1148.75
1003.218	1116.75
1003.436	1083.75
1003.655	1136.75
1003.874	1072.75
1004.092	1081.75
1004.311	1109.75
1004.53	1103.75
1004.748	1185.75
1004.966	1086.75
1005.185	1151.75
1005.403	1140.75
1005.622	1112.75
1005.84	1183.75
1006.058	1104.75
1006.276	1122.75
1006.494	1598.75
1006.712	1110.75
1006.931	1172.75
1007.149	1078.75
1007.367	1070.75
1007.584	1139.75
1007.802	1142.75
1008.02	1107.75
1008.238	1181.75
1008.456	1157.75
1008.673	1040.75
1008.891	1136.75
1009.109	1092.75
1009.326	1146.75
1009.544	1217.75
1009.761	1084.75
1009.979	1187.75
1010.196	1171.75
1010.413	1240.75
1010.631	1277.75
1010.848	1263.75
1011.065	1269.75
1011.282	1233.75
1011.5	1181.75
1011.717	1284.75
1011.934	1215.75
1012.151	1260.75
1012.368	1242.75
1012.585	1169.75
1012.801	1213.75
1013.018	1200.75
1013.235	1156.75
1013.452	1173.75
1013.669	1172.75
1013.885	1172.75
1014.102	1173.75
1014.318	1163.75
1014.535	1124.75
1014.751	1170.75
1014.968	1163.75
1015.184	1188.75
1015.401	1102.75
1015.617	1157.75
1015.833	1079.75
1016.049	1117.75
1016.266	1072.75
1016.482	1092.75
1016.698	1051.75
1016.914	1104.75
1017.13	1040.75
1017.346	1033.75
1017.562	1121.75
1017.778	1046.75
1017.993	1022.75
1018.209	1047.75
1018.425	1069.75
1018.641	1002.75
1018.856	986.75
1019.072	1014.75
1019.288	1048.75
1019.503	1013.75
1019.719	923.75
1019.934	931.75
1020.149	1036.75
1020.365	965.75
1020.58	935.75
1020.795	990.75
1021.011	917.75
1021.226	922.75
1021.441	942.75
1021.656	889.75
1021.871	844.75
1022.086	815.75
1022.301	836.75
1022.516	840.75
1022.731	905.75
1022.946	805.75
1023.16	801.75
1023.375	777.75
1023.59	770.75
1023.804	738.75
1024.019	848.75
1024.234	707.75
1024.448	775.75
1024.663	689.75
1024.877	711.75
1025.092	742.75
1025.306	749.75
1025.52	665.75
1025.734	749.75
1025.949	690.75
1026.163	659.75
1026.377	617.75
1026.591	671.75
1026.805	590.75
1027.019	603.75
1027.233	563.75
1027.447	521.75
1027.661	629.75
1027.875	568.75
1028.088	590.75
1028.302	519.75
1028.516	499.75
1028.73	521.75
1028.943	518.75
1029.157	466.75
1029.37	442.75
1029.584	-2.25
1029.797	-1.25
1030.011	-1.25
1030.224	-4.25
