Data from QEP037381__5__09-56-29-926.txt Node

Date: Wed Dec 21 09:56:29 EST 2022
User: dcclab
Spectrometer: QEP03738
Trigger mode: 4
Integration Time (sec): 1.000000E1
Scans to average: 1
Electric dark correction enabled: true
Nonlinearity correction enabled: false
Boxcar width: 0
XAxis mode: Wavelengths
Number of Pixels in Spectrum: 1044
>>>>>Begin Spectral Data<<<<<
784.041	11.88
784.3	-0.12
784.558	-5.12
784.817	-2.12
785.075	114117.88
785.334	20079.88
785.592	9497.88
785.851	6586.88
786.109	4922.88
786.368	3835.88
786.626	3072.88
786.884	2566.88
787.143	2149.88
787.401	1758.88
787.659	1591.88
787.917	1345.88
788.175	1209.88
788.433	1079.88
788.691	970.88
788.949	882.88
789.207	850.88
789.465	725.88
789.723	690.88
789.98	654.88
790.238	665.88
790.496	620.88
790.753	592.88
791.011	628.88
791.268	579.88
791.526	540.88
791.783	556.88
792.041	554.88
792.298	451.88
792.556	516.88
792.813	494.88
793.07	477.88
793.327	441.88
793.584	546.88
793.841	435.88
794.099	458.88
794.356	534.88
794.613	426.88
794.869	471.88
795.126	426.88
795.383	416.88
795.64	428.88
795.897	380.88
796.153	438.88
796.41	420.88
796.667	401.88
796.923	423.88
797.18	425.88
797.436	444.88
797.693	406.88
797.949	457.88
798.206	478.88
798.462	396.88
798.718	462.88
798.974	430.88
799.231	447.88
799.487	449.88
799.743	457.88
799.999	466.88
800.255	484.88
800.511	462.88
800.767	485.88
801.023	473.88
801.279	498.88
801.534	524.88
801.79	553.88
802.046	554.88
802.302	675.88
802.557	755.88
802.813	868.88
803.068	1035.88
803.324	1401.88
803.579	1858.88
803.835	2478.88
804.09	3442.88
804.345	4389.88
804.601	5525.88
804.856	6608.88
805.111	7587.88
805.366	8343.88
805.621	8795.88
805.876	9151.88
806.131	9387.88
806.386	9434.88
806.641	9551.88
806.896	9720.88
807.151	9896.88
807.406	10037.88
807.661	10127.88
807.915	10279.88
808.17	10417.88
808.425	10545.88
808.679	10612.88
808.934	10713.88
809.188	10727.88
809.443	10869.88
809.697	10976.88
809.951	11059.88
810.206	11064.88
810.46	11177.88
810.714	11264.88
810.968	11356.88
811.223	11350.88
811.477	11454.88
811.731	11504.88
811.985	11559.88
812.239	11565.88
812.493	11672.88
812.747	11771.88
813	11754.88
813.254	11802.88
813.508	11904.88
813.762	11880.88
814.015	11838.88
814.269	11981.88
814.522	12073.88
814.776	12227.88
815.03	12359.88
815.283	12511.88
815.536	12728.88
815.79	12870.88
816.043	13005.88
816.296	13149.88
816.55	13231.88
816.803	13299.88
817.056	13606.88
817.309	13590.88
817.562	13652.88
817.815	13777.88
818.068	13869.88
818.321	14032.88
818.574	14123.88
818.827	14348.88
819.079	14465.88
819.332	14727.88
819.585	14858.88
819.838	15080.88
820.09	15076.88
820.343	15255.88
820.595	15258.88
820.848	15371.88
821.1	15390.88
821.353	15428.88
821.605	15316.88
821.857	15406.88
822.11	15364.88
822.362	15279.88
822.614	15379.88
822.866	15294.88
823.118	15332.88
823.37	15424.88
823.622	15440.88
823.874	15425.88
824.126	15574.88
824.378	15579.88
824.63	15511.88
824.882	15553.88
825.134	15521.88
825.385	15538.88
825.637	15491.88
825.888	15413.88
826.14	15395.88
826.392	15332.88
826.643	15209.88
826.895	15270.88
827.146	15199.88
827.397	14998.88
827.649	15202.88
827.9	15045.88
828.151	15094.88
828.402	15120.88
828.653	15137.88
828.905	15174.88
829.156	15239.88
829.407	15145.88
829.658	15215.88
829.909	15132.88
830.159	15152.88
830.41	15052.88
830.661	14997.88
830.912	14853.88
831.162	14842.88
831.413	14746.88
831.664	14857.88
831.914	14778.88
832.165	14819.88
832.415	14862.88
832.666	14791.88
832.916	14802.88
833.167	14804.88
833.417	14780.88
833.667	14773.88
833.917	14603.88
834.168	14650.88
834.418	14594.88
834.668	14561.88
834.918	14426.88
835.168	14381.88
835.418	14365.88
835.668	14340.88
835.918	14378.88
836.167	14287.88
836.417	14215.88
836.667	14189.88
836.917	14178.88
837.166	14220.88
837.416	14257.88
837.666	14182.88
837.915	14115.88
838.165	14072.88
838.414	14068.88
838.663	13976.88
838.913	13931.88
839.162	13961.88
839.411	13942.88
839.661	13791.88
839.91	13777.88
840.159	13848.88
840.408	13789.88
840.657	13752.88
840.906	13749.88
841.155	13840.88
841.404	13786.88
841.653	13680.88
841.902	13671.88
842.15	13826.88
842.399	13781.88
842.648	13690.88
842.897	13702.88
843.145	13606.88
843.394	13510.88
843.642	13407.88
843.891	13476.88
844.139	13438.88
844.388	13217.88
844.636	13173.88
844.884	13175.88
845.133	13149.88
845.381	13099.88
845.629	13223.88
845.877	13097.88
846.125	13142.88
846.373	13214.88
846.621	12975.88
846.869	13027.88
847.117	13022.88
847.365	12925.88
847.613	12825.88
847.861	12833.88
848.108	12831.88
848.356	12666.88
848.604	12687.88
848.851	12788.88
849.099	12699.88
849.346	12707.88
849.594	12845.88
849.841	12863.88
850.089	12769.88
850.336	12841.88
850.583	12876.88
850.831	12800.88
851.078	12795.88
851.325	12611.88
851.572	12618.88
851.819	12596.88
852.066	12346.88
852.313	12210.88
852.56	12112.88
852.807	12021.88
853.054	12070.88
853.301	12028.88
853.548	12015.88
853.794	12101.88
854.041	12161.88
854.288	12175.88
854.534	12360.88
854.781	12195.88
855.028	12229.88
855.274	12103.88
855.52	12083.88
855.767	12021.88
856.013	11991.88
856.26	12210.88
856.506	11864.88
856.752	11800.88
856.998	11800.88
857.244	11818.88
857.49	11900.88
857.736	11933.88
857.982	11952.88
858.228	11983.88
858.474	11797.88
858.72	11801.88
858.966	11676.88
859.212	11557.88
859.458	11409.88
859.703	11387.88
859.949	11231.88
860.195	11183.88
860.44	11124.88
860.686	11018.88
860.931	11059.88
861.177	10977.88
861.422	11016.88
861.667	10951.88
861.913	10991.88
862.158	11070.88
862.403	11065.88
862.648	11079.88
862.893	11036.88
863.138	11034.88
863.384	10990.88
863.629	10981.88
863.873	10892.88
864.118	10908.88
864.363	10822.88
864.608	10860.88
864.853	10783.88
865.098	10793.88
865.342	10701.88
865.587	10640.88
865.832	10672.88
866.076	10607.88
866.321	10542.88
866.565	10460.88
866.81	10445.88
867.054	10426.88
867.298	10435.88
867.543	10418.88
867.787	10394.88
868.031	10346.88
868.275	10353.88
868.519	10317.88
868.764	10260.88
869.008	10213.88
869.252	10247.88
869.496	10188.88
869.739	10114.88
869.983	10211.88
870.227	10137.88
870.471	10065.88
870.715	10199.88
870.958	10134.88
871.202	10112.88
871.446	10130.88
871.689	10109.88
871.933	10054.88
872.176	10144.88
872.42	10091.88
872.663	10109.88
872.906	10025.88
873.15	9939.88
873.393	9844.88
873.636	9983.88
873.879	9872.88
874.122	9740.88
874.366	9657.88
874.609	9628.88
874.852	9469.88
875.095	9497.88
875.337	9471.88
875.58	9324.88
875.823	9394.88
876.066	9411.88
876.309	9405.88
876.551	9249.88
876.794	9131.88
877.037	9250.88
877.279	9176.88
877.522	9134.88
877.764	9228.88
878.007	9195.88
878.249	9207.88
878.491	9123.88
878.734	9166.88
878.976	9113.88
879.218	9079.88
879.46	9078.88
879.702	8923.88
879.945	8926.88
880.187	8800.88
880.429	8779.88
880.671	8728.88
880.912	8706.88
881.154	8719.88
881.396	8626.88
881.638	8657.88
881.88	8625.88
882.121	8618.88
882.363	8638.88
882.605	8557.88
882.846	8558.88
883.088	8530.88
883.329	8506.88
883.571	8427.88
883.812	8444.88
884.053	8548.88
884.295	8659.88
884.536	8731.88
884.777	8606.88
885.018	8607.88
885.259	8651.88
885.5	8522.88
885.742	8767.88
885.982	8516.88
886.223	8431.88
886.464	8410.88
886.705	8349.88
886.946	8381.88
887.187	8182.88
887.428	8212.88
887.668	8099.88
887.909	8037.88
888.15	7883.88
888.39	7878.88
888.631	7886.88
888.871	7826.88
889.111	7771.88
889.352	7731.88
889.592	7598.88
889.833	7571.88
890.073	7498.88
890.313	7548.88
890.553	7507.88
890.793	7413.88
891.033	7370.88
891.273	7342.88
891.513	7373.88
891.753	7392.88
891.993	7332.88
892.233	7366.88
892.473	7372.88
892.713	7361.88
892.952	7309.88
893.192	7327.88
893.432	7311.88
893.671	7239.88
893.911	7292.88
894.15	7195.88
894.39	7122.88
894.629	7075.88
894.869	7080.88
895.108	7071.88
895.347	6921.88
895.587	6974.88
895.826	6863.88
896.065	6848.88
896.304	6946.88
896.543	6916.88
896.782	6807.88
897.021	6814.88
897.26	6799.88
897.499	6842.88
897.738	6793.88
897.977	6744.88
898.216	6668.88
898.454	6598.88
898.693	6591.88
898.932	6536.88
899.17	6536.88
899.409	6435.88
899.647	6424.88
899.886	6479.88
900.124	6459.88
900.363	6400.88
900.601	6477.88
900.839	6411.88
901.078	6445.88
901.316	6429.88
901.554	6388.88
901.792	6435.88
902.03	6449.88
902.268	6358.88
902.506	6385.88
902.744	6309.88
902.982	6381.88
903.22	6232.88
903.458	6239.88
903.695	6160.88
903.933	6121.88
904.171	6017.88
904.409	5972.88
904.646	5930.88
904.884	5819.88
905.121	5856.88
905.359	5799.88
905.596	5703.88
905.833	5600.88
906.071	5614.88
906.308	5676.88
906.545	5555.88
906.783	5561.88
907.02	5581.88
907.257	5529.88
907.494	5585.88
907.731	5531.88
907.968	5542.88
908.205	5468.88
908.442	5420.88
908.679	5439.88
908.915	5374.88
909.152	5371.88
909.389	5264.88
909.626	5211.88
909.862	5232.88
910.099	5232.88
910.335	5230.88
910.572	5072.88
910.808	5161.88
911.045	5125.88
911.281	5140.88
911.518	5143.88
911.754	5051.88
911.99	5089.88
912.226	4985.88
912.463	4893.88
912.699	4921.88
912.935	4888.88
913.171	4892.88
913.407	4817.88
913.643	4829.88
913.879	4711.88
914.114	4704.88
914.35	4679.88
914.586	4665.88
914.822	4547.88
915.057	4655.88
915.293	4487.88
915.529	4481.88
915.764	4565.88
916	4496.88
916.235	4523.88
916.471	4498.88
916.706	4392.88
916.941	4431.88
917.177	4427.88
917.412	4505.88
917.647	4453.88
917.882	4392.88
918.117	4470.88
918.352	4403.88
918.588	4420.88
918.823	4306.88
919.057	4286.88
919.292	4209.88
919.527	4266.88
919.762	4178.88
919.997	4161.88
920.232	4067.88
920.466	4131.88
920.701	3991.88
920.935	4028.88
921.17	3951.88
921.405	3962.88
921.639	3961.88
921.873	3973.88
922.108	3968.88
922.342	3991.88
922.576	3839.88
922.811	3912.88
923.045	3887.88
923.279	3930.88
923.513	3782.88
923.747	3885.88
923.981	3795.88
924.215	3775.88
924.449	3745.88
924.683	3713.88
924.917	3652.88
925.151	3713.88
925.385	3737.88
925.618	3727.88
925.852	3627.88
926.086	3588.88
926.319	3630.88
926.553	3633.88
926.786	3677.88
927.02	3655.88
927.253	3633.88
927.486	3648.88
927.72	3570.88
927.953	3627.88
928.186	3599.88
928.42	3603.88
928.653	3547.88
928.886	3494.88
929.119	3576.88
929.352	3517.88
929.585	3479.88
929.818	3457.88
930.051	3453.88
930.284	3432.88
930.516	3327.88
930.749	3328.88
930.982	3396.88
931.215	3363.88
931.447	3316.88
931.68	3312.88
931.912	3305.88
932.145	3250.88
932.377	3308.88
932.61	3427.88
932.842	3199.88
933.074	3312.88
933.307	3255.88
933.539	3325.88
933.771	3315.88
934.003	3238.88
934.236	3335.88
934.468	3352.88
934.7	3225.88
934.932	3331.88
935.164	3191.88
935.395	3196.88
935.627	3201.88
935.859	3225.88
936.091	3118.88
936.323	3203.88
936.554	3230.88
936.786	3123.88
937.017	3097.88
937.249	3164.88
937.481	3076.88
937.712	3166.88
937.943	3119.88
938.175	3084.88
938.406	3102.88
938.637	3190.88
938.869	3055.88
939.1	3085.88
939.331	3057.88
939.562	3063.88
939.793	3097.88
940.024	3071.88
940.255	3074.88
940.486	2990.88
940.717	2989.88
940.948	2978.88
941.179	2919.88
941.409	2976.88
941.64	2939.88
941.871	2957.88
942.102	2951.88
942.332	2923.88
942.563	3010.88
942.793	2946.88
943.024	2891.88
943.254	2976.88
943.484	2970.88
943.715	3010.88
943.945	2953.88
944.175	2912.88
944.405	2859.88
944.636	2915.88
944.866	2895.88
945.096	2927.88
945.326	2845.88
945.556	2892.88
945.786	2924.88
946.016	2855.88
946.245	2787.88
946.475	2824.88
946.705	2773.88
946.935	2801.88
947.164	2785.88
947.394	2714.88
947.624	2740.88
947.853	2793.88
948.083	2753.88
948.312	2704.88
948.542	2682.88
948.771	2619.88
949	2663.88
949.23	2665.88
949.459	2695.88
949.688	2709.88
949.917	2666.88
950.146	2683.88
950.375	2720.88
950.604	2644.88
950.833	2716.88
951.062	2704.88
951.291	2694.88
951.52	2578.88
951.749	2654.88
951.978	2595.88
952.206	2572.88
952.435	2588.88
952.664	2628.88
952.892	2616.88
953.121	2586.88
953.349	2588.88
953.578	2587.88
953.806	2560.88
954.035	2524.88
954.263	2571.88
954.491	2495.88
954.719	2533.88
954.948	2503.88
955.176	2501.88
955.404	2425.88
955.632	2463.88
955.86	2475.88
956.088	2467.88
956.316	2481.88
956.544	2438.88
956.772	2411.88
956.999	2410.88
957.227	2463.88
957.455	2371.88
957.683	2394.88
957.91	2355.88
958.138	2373.88
958.365	2367.88
958.593	2336.88
958.82	2269.88
959.048	2342.88
959.275	2303.88
959.502	2307.88
959.73	2316.88
959.957	2310.88
960.184	2336.88
960.411	2258.88
960.638	2360.88
960.865	2294.88
961.092	2315.88
961.319	2222.88
961.546	2321.88
961.773	2338.88
962	2292.88
962.227	2297.88
962.454	2275.88
962.68	2262.88
962.907	2273.88
963.134	2200.88
963.36	2240.88
963.587	2245.88
963.813	2169.88
964.04	2208.88
964.266	2185.88
964.493	2266.88
964.719	2186.88
964.945	2219.88
965.171	2120.88
965.398	2149.88
965.624	2179.88
965.85	2097.88
966.076	2108.88
966.302	2117.88
966.528	2090.88
966.754	2115.88
966.98	2131.88
967.206	2111.88
967.431	2055.88
967.657	2136.88
967.883	2117.88
968.109	2088.88
968.334	2037.88
968.56	2031.88
968.785	2052.88
969.011	1984.88
969.236	2089.88
969.462	2004.88
969.687	1963.88
969.912	2037.88
970.138	2079.88
970.363	1973.88
970.588	1998.88
970.813	1974.88
971.038	1934.88
971.263	1972.88
971.488	1975.88
971.713	2043.88
971.938	1986.88
972.163	1903.88
972.388	1922.88
972.613	1922.88
972.838	1919.88
973.062	1963.88
973.287	1921.88
973.512	1847.88
973.736	1887.88
973.961	1891.88
974.185	1854.88
974.41	1890.88
974.634	1789.88
974.858	1837.88
975.083	1836.88
975.307	1873.88
975.531	1787.88
975.755	1750.88
975.98	1785.88
976.204	1713.88
976.428	1722.88
976.652	1723.88
976.876	1716.88
977.1	1732.88
977.324	1695.88
977.547	1756.88
977.771	1746.88
977.995	1728.88
978.219	1673.88
978.442	1743.88
978.666	1713.88
978.89	1726.88
979.113	1695.88
979.337	1691.88
979.56	1683.88
979.783	1742.88
980.007	1647.88
980.23	1667.88
980.453	1626.88
980.677	1667.88
980.9	1661.88
981.123	1558.88
981.346	1674.88
981.569	1641.88
981.792	1641.88
982.015	1607.88
982.238	1556.88
982.461	1590.88
982.684	1545.88
982.907	1553.88
983.129	1533.88
983.352	1621.88
983.575	1577.88
983.797	1600.88
984.02	1521.88
984.242	1550.88
984.465	1574.88
984.687	1551.88
984.91	1604.88
985.132	1554.88
985.354	1591.88
985.577	1567.88
985.799	1541.88
986.021	1471.88
986.243	1475.88
986.465	1512.88
986.687	1556.88
986.909	1568.88
987.131	1533.88
987.353	1487.88
987.575	1514.88
987.797	1484.88
988.019	1431.88
988.241	1481.88
988.462	1446.88
988.684	1504.88
988.906	1510.88
989.127	1551.88
989.349	1429.88
989.57	1442.88
989.792	1488.88
990.013	1507.88
990.234	1509.88
990.456	1518.88
990.677	1521.88
990.898	1442.88
991.119	1456.88
991.341	1500.88
991.562	1414.88
991.783	1469.88
992.004	1375.88
992.225	1359.88
992.446	1453.88
992.667	1313.88
992.887	1426.88
993.108	1337.88
993.329	1472.88
993.55	1414.88
993.77	1328.88
993.991	1332.88
994.212	1374.88
994.432	1388.88
994.653	1389.88
994.873	1349.88
995.093	1279.88
995.314	1333.88
995.534	1358.88
995.754	1359.88
995.975	1394.88
996.195	1286.88
996.415	1376.88
996.635	1321.88
996.855	1346.88
997.075	1307.88
997.295	1298.88
997.515	1280.88
997.735	1337.88
997.955	1314.88
998.174	1295.88
998.394	1284.88
998.614	1322.88
998.834	1283.88
999.053	1348.88
999.273	1320.88
999.492	1354.88
999.712	1315.88
999.931	1269.88
1000.151	1316.88
1000.37	1301.88
1000.589	1360.88
1000.809	1291.88
1001.028	1393.88
1001.247	1330.88
1001.466	1224.88
1001.685	1363.88
1001.904	1308.88
1002.123	1304.88
1002.342	1305.88
1002.561	1247.88
1002.78	1259.88
1002.999	1350.88
1003.218	1316.88
1003.436	1266.88
1003.655	1303.88
1003.874	1262.88
1004.092	1283.88
1004.311	1294.88
1004.53	1260.88
1004.748	1343.88
1004.966	1259.88
1005.185	1323.88
1005.403	1295.88
1005.622	1276.88
1005.84	1344.88
1006.058	1260.88
1006.276	1284.88
1006.494	1773.88
1006.712	1302.88
1006.931	1346.88
1007.149	1237.88
1007.367	1240.88
1007.584	1299.88
1007.802	1296.88
1008.02	1245.88
1008.238	1342.88
1008.456	1314.88
1008.673	1199.88
1008.891	1300.88
1009.109	1262.88
1009.326	1252.88
1009.544	1351.88
1009.761	1267.88
1009.979	1333.88
1010.196	1298.88
1010.413	1402.88
1010.631	1429.88
1010.848	1452.88
1011.065	1416.88
1011.282	1367.88
1011.5	1313.88
1011.717	1410.88
1011.934	1346.88
1012.151	1397.88
1012.368	1361.88
1012.585	1306.88
1012.801	1353.88
1013.018	1315.88
1013.235	1283.88
1013.452	1328.88
1013.669	1305.88
1013.885	1278.88
1014.102	1336.88
1014.318	1299.88
1014.535	1276.88
1014.751	1309.88
1014.968	1306.88
1015.184	1299.88
1015.401	1216.88
1015.617	1277.88
1015.833	1224.88
1016.049	1226.88
1016.266	1220.88
1016.482	1208.88
1016.698	1147.88
1016.914	1185.88
1017.13	1169.88
1017.346	1153.88
1017.562	1235.88
1017.778	1132.88
1017.993	1121.88
1018.209	1180.88
1018.425	1150.88
1018.641	1096.88
1018.856	1115.88
1019.072	1124.88
1019.288	1146.88
1019.503	1120.88
1019.719	1029.88
1019.934	1059.88
1020.149	1133.88
1020.365	1065.88
1020.58	1042.88
1020.795	1095.88
1021.011	1016.88
1021.226	1030.88
1021.441	1059.88
1021.656	1000.88
1021.871	898.88
1022.086	945.88
1022.301	950.88
1022.516	911.88
1022.731	996.88
1022.946	888.88
1023.16	887.88
1023.375	868.88
1023.59	842.88
1023.804	822.88
1024.019	919.88
1024.234	809.88
1024.448	841.88
1024.663	773.88
1024.877	797.88
1025.092	827.88
1025.306	846.88
1025.52	733.88
1025.734	830.88
1025.949	759.88
1026.163	725.88
1026.377	677.88
1026.591	727.88
1026.805	670.88
1027.019	658.88
1027.233	640.88
1027.447	601.88
1027.661	683.88
1027.875	609.88
1028.088	627.88
1028.302	570.88
1028.516	562.88
1028.73	589.88
1028.943	573.88
1029.157	532.88
1029.37	494.88
1029.584	0.88
1029.797	-3.12
1030.011	-2.12
1030.224	-0.12
