Data from QEP037381__7__09-56-49-926.txt Node

Date: Wed Dec 21 09:56:49 EST 2022
User: dcclab
Spectrometer: QEP03738
Trigger mode: 4
Integration Time (sec): 1.000000E1
Scans to average: 1
Electric dark correction enabled: true
Nonlinearity correction enabled: false
Boxcar width: 0
XAxis mode: Wavelengths
Number of Pixels in Spectrum: 1044
>>>>>Begin Spectral Data<<<<<
784.041	10.25
784.3	0.25
784.558	-0.75
784.817	-1.75
785.075	117294.25
785.334	20265.25
785.592	9421.25
785.851	6425.25
786.109	4832.25
786.368	3700.25
786.626	2985.25
786.884	2467.25
787.143	2092.25
787.401	1726.25
787.659	1551.25
787.917	1311.25
788.175	1207.25
788.433	1045.25
788.691	937.25
788.949	870.25
789.207	833.25
789.465	714.25
789.723	673.25
789.98	635.25
790.238	646.25
790.496	601.25
790.753	581.25
791.011	633.25
791.268	564.25
791.526	541.25
791.783	549.25
792.041	540.25
792.298	448.25
792.556	504.25
792.813	485.25
793.07	473.25
793.327	459.25
793.584	540.25
793.841	453.25
794.099	458.25
794.356	522.25
794.613	420.25
794.869	462.25
795.126	424.25
795.383	410.25
795.64	417.25
795.897	378.25
796.153	422.25
796.41	410.25
796.667	411.25
796.923	407.25
797.18	412.25
797.436	446.25
797.693	391.25
797.949	453.25
798.206	482.25
798.462	391.25
798.718	448.25
798.974	423.25
799.231	456.25
799.487	441.25
799.743	458.25
799.999	469.25
800.255	464.25
800.511	443.25
800.767	476.25
801.023	465.25
801.279	497.25
801.534	526.25
801.79	555.25
802.046	562.25
802.302	652.25
802.557	719.25
802.813	846.25
803.068	985.25
803.324	1326.25
803.579	1720.25
803.835	2339.25
804.09	3156.25
804.345	4021.25
804.601	5025.25
804.856	5982.25
805.111	6920.25
805.366	7513.25
805.621	7895.25
805.876	8275.25
806.131	8457.25
806.386	8599.25
806.641	8663.25
806.896	8796.25
807.151	8933.25
807.406	8989.25
807.661	9177.25
807.915	9281.25
808.17	9482.25
808.425	9493.25
808.679	9523.25
808.934	9707.25
809.188	9699.25
809.443	9873.25
809.697	9934.25
809.951	9892.25
810.206	9984.25
810.46	10059.25
810.714	10190.25
810.968	10220.25
811.223	10222.25
811.477	10325.25
811.731	10400.25
811.985	10432.25
812.239	10453.25
812.493	10522.25
812.747	10555.25
813	10577.25
813.254	10686.25
813.508	10630.25
813.762	10619.25
814.015	10623.25
814.269	10777.25
814.522	10906.25
814.776	10987.25
815.03	11141.25
815.283	11192.25
815.536	11394.25
815.79	11529.25
816.043	11654.25
816.296	11822.25
816.55	12010.25
816.803	12034.25
817.056	12104.25
817.309	12246.25
817.562	12279.25
817.815	12442.25
818.068	12444.25
818.321	12577.25
818.574	12718.25
818.827	12803.25
819.079	12988.25
819.332	13217.25
819.585	13356.25
819.838	13546.25
820.09	13502.25
820.343	13652.25
820.595	13610.25
820.848	13745.25
821.1	13796.25
821.353	13772.25
821.605	13759.25
821.857	13898.25
822.11	13695.25
822.362	13685.25
822.614	13622.25
822.866	13665.25
823.118	13680.25
823.37	13840.25
823.622	13803.25
823.874	13880.25
824.126	13964.25
824.378	13957.25
824.63	13899.25
824.882	13891.25
825.134	13895.25
825.385	13905.25
825.637	13825.25
825.888	13832.25
826.14	13754.25
826.392	13716.25
826.643	13580.25
826.895	13569.25
827.146	13525.25
827.397	13428.25
827.649	13510.25
827.9	13460.25
828.151	13520.25
828.402	13529.25
828.653	13502.25
828.905	13619.25
829.156	13638.25
829.407	13623.25
829.658	13579.25
829.909	13550.25
830.159	13553.25
830.41	13467.25
830.661	13467.25
830.912	13334.25
831.162	13180.25
831.413	13189.25
831.664	13241.25
831.914	13310.25
832.165	13242.25
832.415	13314.25
832.666	13240.25
832.916	13285.25
833.167	13214.25
833.417	13288.25
833.667	13175.25
833.917	13222.25
834.168	13111.25
834.418	13101.25
834.668	13049.25
834.918	12979.25
835.168	12933.25
835.418	12882.25
835.668	12878.25
835.918	12839.25
836.167	12776.25
836.417	12721.25
836.667	12806.25
836.917	12744.25
837.166	12652.25
837.416	12775.25
837.666	12656.25
837.915	12650.25
838.165	12593.25
838.414	12534.25
838.663	12438.25
838.913	12583.25
839.162	12385.25
839.411	12558.25
839.661	12348.25
839.91	12387.25
840.159	12333.25
840.408	12383.25
840.657	12253.25
840.906	12344.25
841.155	12366.25
841.404	12406.25
841.653	12309.25
841.902	12320.25
842.15	12426.25
842.399	12375.25
842.648	12314.25
842.897	12280.25
843.145	12179.25
843.394	12091.25
843.642	12105.25
843.891	12065.25
844.139	11920.25
844.388	11886.25
844.636	11842.25
844.884	11814.25
845.133	11815.25
845.381	11832.25
845.629	11832.25
845.877	11771.25
846.125	11767.25
846.373	11732.25
846.621	11710.25
846.869	11662.25
847.117	11565.25
847.365	11548.25
847.613	11539.25
847.861	11491.25
848.108	11526.25
848.356	11425.25
848.604	11346.25
848.851	11456.25
849.099	11413.25
849.346	11443.25
849.594	11560.25
849.841	11606.25
850.089	11504.25
850.336	11500.25
850.583	11499.25
850.831	11482.25
851.078	11344.25
851.325	11324.25
851.572	11311.25
851.819	11303.25
852.066	11042.25
852.313	10939.25
852.56	10882.25
852.807	10804.25
853.054	10755.25
853.301	10784.25
853.548	10846.25
853.794	10849.25
854.041	10968.25
854.288	10939.25
854.534	11080.25
854.781	11082.25
855.028	10940.25
855.274	10976.25
855.52	10812.25
855.767	10764.25
856.013	10798.25
856.26	11019.25
856.506	10605.25
856.752	10691.25
856.998	10711.25
857.244	10695.25
857.49	10727.25
857.736	10713.25
857.982	10690.25
858.228	10769.25
858.474	10692.25
858.72	10614.25
858.966	10442.25
859.212	10435.25
859.458	10327.25
859.703	10210.25
859.949	10064.25
860.195	10054.25
860.44	10029.25
860.686	9889.25
860.931	9989.25
861.177	9870.25
861.422	9934.25
861.667	9873.25
861.913	9877.25
862.158	9853.25
862.403	9953.25
862.648	9862.25
862.893	9968.25
863.138	9976.25
863.384	9806.25
863.629	9810.25
863.873	9775.25
864.118	9869.25
864.363	9742.25
864.608	9760.25
864.853	9697.25
865.098	9610.25
865.342	9622.25
865.587	9589.25
865.832	9578.25
866.076	9507.25
866.321	9415.25
866.565	9479.25
866.81	9374.25
867.054	9395.25
867.298	9368.25
867.543	9304.25
867.787	9343.25
868.031	9311.25
868.275	9308.25
868.519	9300.25
868.764	9261.25
869.008	9193.25
869.252	9201.25
869.496	9149.25
869.739	9139.25
869.983	9130.25
870.227	9151.25
870.471	9100.25
870.715	9124.25
870.958	9086.25
871.202	9188.25
871.446	9105.25
871.689	9085.25
871.933	9215.25
872.176	9157.25
872.42	9123.25
872.663	9038.25
872.906	9100.25
873.15	9009.25
873.393	8947.25
873.636	9043.25
873.879	8859.25
874.122	8841.25
874.366	8689.25
874.609	8730.25
874.852	8600.25
875.095	8522.25
875.337	8514.25
875.58	8414.25
875.823	8462.25
876.066	8417.25
876.309	8550.25
876.551	8327.25
876.794	8315.25
877.037	8332.25
877.279	8246.25
877.522	8291.25
877.764	8344.25
878.007	8258.25
878.249	8241.25
878.491	8191.25
878.734	8310.25
878.976	8254.25
879.218	8134.25
879.46	8158.25
879.702	8163.25
879.945	8072.25
880.187	7965.25
880.429	7962.25
880.671	7971.25
880.912	7879.25
881.154	7852.25
881.396	7720.25
881.638	7731.25
881.88	7792.25
882.121	7752.25
882.363	7740.25
882.605	7801.25
882.846	7695.25
883.088	7736.25
883.329	7650.25
883.571	7612.25
883.812	7640.25
884.053	7771.25
884.295	7823.25
884.536	7966.25
884.777	7900.25
885.018	7880.25
885.259	7762.25
885.5	7695.25
885.742	7975.25
885.982	7742.25
886.223	7607.25
886.464	7638.25
886.705	7528.25
886.946	7564.25
887.187	7357.25
887.428	7413.25
887.668	7278.25
887.909	7125.25
888.15	7099.25
888.39	7196.25
888.631	7092.25
888.871	7041.25
889.111	7001.25
889.352	7001.25
889.592	6934.25
889.833	6808.25
890.073	6816.25
890.313	6860.25
890.553	6664.25
890.793	6700.25
891.033	6636.25
891.273	6590.25
891.513	6591.25
891.753	6648.25
891.993	6592.25
892.233	6613.25
892.473	6648.25
892.713	6589.25
892.952	6530.25
893.192	6580.25
893.432	6586.25
893.671	6613.25
893.911	6520.25
894.15	6491.25
894.39	6380.25
894.629	6374.25
894.869	6362.25
895.108	6311.25
895.347	6273.25
895.587	6291.25
895.826	6241.25
896.065	6190.25
896.304	6213.25
896.543	6224.25
896.782	6117.25
897.021	6180.25
897.26	6132.25
897.499	6181.25
897.738	6158.25
897.977	6112.25
898.216	6026.25
898.454	5934.25
898.693	5932.25
898.932	5924.25
899.17	5940.25
899.409	5873.25
899.647	5830.25
899.886	5819.25
900.124	5837.25
900.363	5791.25
900.601	5812.25
900.839	5773.25
901.078	5807.25
901.316	5785.25
901.554	5876.25
901.792	5850.25
902.03	5769.25
902.268	5801.25
902.506	5832.25
902.744	5744.25
902.982	5720.25
903.22	5679.25
903.458	5648.25
903.695	5623.25
903.933	5487.25
904.171	5436.25
904.409	5402.25
904.646	5389.25
904.884	5271.25
905.121	5328.25
905.359	5235.25
905.596	5190.25
905.833	5109.25
906.071	5122.25
906.308	5123.25
906.545	5124.25
906.783	5001.25
907.02	5088.25
907.257	4992.25
907.494	5024.25
907.731	5047.25
907.968	4996.25
908.205	4908.25
908.442	4907.25
908.679	4883.25
908.915	4864.25
909.152	4843.25
909.389	4732.25
909.626	4745.25
909.862	4660.25
910.099	4690.25
910.335	4683.25
910.572	4624.25
910.808	4642.25
911.045	4599.25
911.281	4622.25
911.518	4676.25
911.754	4543.25
911.99	4558.25
912.226	4528.25
912.463	4467.25
912.699	4456.25
912.935	4440.25
913.171	4421.25
913.407	4320.25
913.643	4395.25
913.879	4387.25
914.114	4283.25
914.35	4200.25
914.586	4190.25
914.822	4187.25
915.057	4235.25
915.293	4075.25
915.529	4079.25
915.764	4128.25
916	4063.25
916.235	4097.25
916.471	4098.25
916.706	4007.25
916.941	4054.25
917.177	4026.25
917.412	4022.25
917.647	4076.25
917.882	4012.25
918.117	4015.25
918.352	3980.25
918.588	4010.25
918.823	3956.25
919.057	3943.25
919.292	3815.25
919.527	3897.25
919.762	3795.25
919.997	3826.25
920.232	3729.25
920.466	3786.25
920.701	3618.25
920.935	3631.25
921.17	3597.25
921.405	3608.25
921.639	3634.25
921.873	3568.25
922.108	3595.25
922.342	3591.25
922.576	3514.25
922.811	3483.25
923.045	3559.25
923.279	3563.25
923.513	3422.25
923.747	3532.25
923.981	3487.25
924.215	3402.25
924.449	3420.25
924.683	3364.25
924.917	3377.25
925.151	3315.25
925.385	3368.25
925.618	3319.25
925.852	3313.25
926.086	3267.25
926.319	3291.25
926.553	3300.25
926.786	3316.25
927.02	3313.25
927.253	3351.25
927.486	3319.25
927.72	3231.25
927.953	3335.25
928.186	3258.25
928.42	3281.25
928.653	3221.25
928.886	3196.25
929.119	3227.25
929.352	3226.25
929.585	3183.25
929.818	3110.25
930.051	3164.25
930.284	3155.25
930.516	3050.25
930.749	3070.25
930.982	3090.25
931.215	3063.25
931.447	2994.25
931.68	3019.25
931.912	2982.25
932.145	2963.25
932.377	2983.25
932.61	3119.25
932.842	2926.25
933.074	3007.25
933.307	2961.25
933.539	3038.25
933.771	3003.25
934.003	2973.25
934.236	3029.25
934.468	3021.25
934.7	2972.25
934.932	2983.25
935.164	2920.25
935.395	2914.25
935.627	2959.25
935.859	2930.25
936.091	2892.25
936.323	2920.25
936.554	2927.25
936.786	2929.25
937.017	2795.25
937.249	2852.25
937.481	2796.25
937.712	2852.25
937.943	2833.25
938.175	2808.25
938.406	2786.25
938.637	2861.25
938.869	2774.25
939.1	2792.25
939.331	2763.25
939.562	2829.25
939.793	2814.25
940.024	2833.25
940.255	2857.25
940.486	2751.25
940.717	2753.25
940.948	2735.25
941.179	2709.25
941.409	2722.25
941.64	2668.25
941.871	2712.25
942.102	2692.25
942.332	2685.25
942.563	2742.25
942.793	2711.25
943.024	2657.25
943.254	2695.25
943.484	2712.25
943.715	2710.25
943.945	2694.25
944.175	2640.25
944.405	2627.25
944.636	2667.25
944.866	2652.25
945.096	2666.25
945.326	2600.25
945.556	2630.25
945.786	2664.25
946.016	2604.25
946.245	2525.25
946.475	2558.25
946.705	2568.25
946.935	2556.25
947.164	2575.25
947.394	2518.25
947.624	2499.25
947.853	2519.25
948.083	2513.25
948.312	2483.25
948.542	2467.25
948.771	2423.25
949	2444.25
949.23	2476.25
949.459	2478.25
949.688	2512.25
949.917	2485.25
950.146	2501.25
950.375	2496.25
950.604	2400.25
950.833	2484.25
951.062	2485.25
951.291	2431.25
951.52	2405.25
951.749	2403.25
951.978	2351.25
952.206	2366.25
952.435	2389.25
952.664	2401.25
952.892	2417.25
953.121	2368.25
953.349	2419.25
953.578	2385.25
953.806	2339.25
954.035	2296.25
954.263	2308.25
954.491	2291.25
954.719	2290.25
954.948	2284.25
955.176	2267.25
955.404	2235.25
955.632	2294.25
955.86	2264.25
956.088	2264.25
956.316	2271.25
956.544	2297.25
956.772	2230.25
956.999	2215.25
957.227	2292.25
957.455	2200.25
957.683	2198.25
957.91	2146.25
958.138	2155.25
958.365	2140.25
958.593	2116.25
958.82	2106.25
959.048	2171.25
959.275	2139.25
959.502	2118.25
959.73	2094.25
959.957	2122.25
960.184	2140.25
960.411	2073.25
960.638	2144.25
960.865	2117.25
961.092	2120.25
961.319	2059.25
961.546	2120.25
961.773	2108.25
962	2070.25
962.227	2115.25
962.454	2105.25
962.68	2045.25
962.907	2095.25
963.134	2037.25
963.36	2075.25
963.587	2071.25
963.813	2052.25
964.04	2069.25
964.266	1978.25
964.493	2069.25
964.719	2008.25
964.945	2035.25
965.171	1923.25
965.398	2004.25
965.624	1985.25
965.85	1923.25
966.076	1924.25
966.302	1980.25
966.528	1930.25
966.754	1942.25
966.98	1974.25
967.206	1941.25
967.431	1881.25
967.657	1958.25
967.883	1926.25
968.109	1950.25
968.334	1863.25
968.56	1861.25
968.785	1879.25
969.011	1829.25
969.236	1917.25
969.462	1837.25
969.687	1851.25
969.912	1887.25
970.138	1948.25
970.363	1820.25
970.588	1863.25
970.813	1816.25
971.038	1805.25
971.263	1838.25
971.488	1844.25
971.713	1867.25
971.938	1838.25
972.163	1741.25
972.388	1799.25
972.613	1777.25
972.838	1786.25
973.062	1770.25
973.287	1767.25
973.512	1707.25
973.736	1748.25
973.961	1718.25
974.185	1703.25
974.41	1721.25
974.634	1665.25
974.858	1645.25
975.083	1702.25
975.307	1703.25
975.531	1664.25
975.755	1639.25
975.98	1624.25
976.204	1582.25
976.428	1604.25
976.652	1592.25
976.876	1541.25
977.1	1608.25
977.324	1599.25
977.547	1612.25
977.771	1622.25
977.995	1615.25
978.219	1522.25
978.442	1635.25
978.666	1607.25
978.89	1589.25
979.113	1597.25
979.337	1579.25
979.56	1539.25
979.783	1635.25
980.007	1520.25
980.23	1575.25
980.453	1522.25
980.677	1583.25
980.9	1551.25
981.123	1440.25
981.346	1575.25
981.569	1523.25
981.792	1548.25
982.015	1515.25
982.238	1469.25
982.461	1507.25
982.684	1454.25
982.907	1436.25
983.129	1450.25
983.352	1497.25
983.575	1478.25
983.797	1478.25
984.02	1414.25
984.242	1436.25
984.465	1444.25
984.687	1489.25
984.91	1492.25
985.132	1449.25
985.354	1460.25
985.577	1452.25
985.799	1442.25
986.021	1358.25
986.243	1382.25
986.465	1399.25
986.687	1470.25
986.909	1484.25
987.131	1428.25
987.353	1388.25
987.575	1449.25
987.797	1400.25
988.019	1333.25
988.241	1389.25
988.462	1333.25
988.684	1408.25
988.906	1419.25
989.127	1477.25
989.349	1332.25
989.57	1359.25
989.792	1410.25
990.013	1403.25
990.234	1432.25
990.456	1465.25
990.677	1412.25
990.898	1364.25
991.119	1356.25
991.341	1401.25
991.562	1340.25
991.783	1350.25
992.004	1287.25
992.225	1277.25
992.446	1336.25
992.667	1267.25
992.887	1329.25
993.108	1254.25
993.329	1392.25
993.55	1314.25
993.77	1254.25
993.991	1263.25
994.212	1290.25
994.432	1286.25
994.653	1304.25
994.873	1286.25
995.093	1158.25
995.314	1235.25
995.534	1302.25
995.754	1316.25
995.975	1317.25
996.195	1207.25
996.415	1289.25
996.635	1228.25
996.855	1259.25
997.075	1239.25
997.295	1229.25
997.515	1206.25
997.735	1255.25
997.955	1222.25
998.174	1237.25
998.394	1215.25
998.614	1255.25
998.834	1208.25
999.053	1289.25
999.273	1253.25
999.492	1304.25
999.712	1237.25
999.931	1193.25
1000.151	1249.25
1000.37	1231.25
1000.589	1290.25
1000.809	1205.25
1001.028	1329.25
1001.247	1268.25
1001.466	1175.25
1001.685	1309.25
1001.904	1238.25
1002.123	1235.25
1002.342	1254.25
1002.561	1196.25
1002.78	1215.25
1002.999	1283.25
1003.218	1231.25
1003.436	1232.25
1003.655	1265.25
1003.874	1192.25
1004.092	1222.25
1004.311	1268.25
1004.53	1237.25
1004.748	1279.25
1004.966	1219.25
1005.185	1277.25
1005.403	1266.25
1005.622	1226.25
1005.84	1301.25
1006.058	1169.25
1006.276	1223.25
1006.494	1704.25
1006.712	1220.25
1006.931	1271.25
1007.149	1198.25
1007.367	1194.25
1007.584	1222.25
1007.802	1271.25
1008.02	1198.25
1008.238	1297.25
1008.456	1299.25
1008.673	1143.25
1008.891	1217.25
1009.109	1194.25
1009.326	1235.25
1009.544	1320.25
1009.761	1201.25
1009.979	1292.25
1010.196	1260.25
1010.413	1354.25
1010.631	1363.25
1010.848	1377.25
1011.065	1413.25
1011.282	1325.25
1011.5	1242.25
1011.717	1391.25
1011.934	1314.25
1012.151	1363.25
1012.368	1342.25
1012.585	1262.25
1012.801	1333.25
1013.018	1297.25
1013.235	1254.25
1013.452	1278.25
1013.669	1268.25
1013.885	1248.25
1014.102	1312.25
1014.318	1280.25
1014.535	1217.25
1014.751	1260.25
1014.968	1265.25
1015.184	1277.25
1015.401	1208.25
1015.617	1234.25
1015.833	1183.25
1016.049	1214.25
1016.266	1171.25
1016.482	1189.25
1016.698	1137.25
1016.914	1155.25
1017.13	1140.25
1017.346	1143.25
1017.562	1199.25
1017.778	1120.25
1017.993	1092.25
1018.209	1149.25
1018.425	1112.25
1018.641	1081.25
1018.856	1045.25
1019.072	1102.25
1019.288	1137.25
1019.503	1087.25
1019.719	1019.25
1019.934	1023.25
1020.149	1119.25
1020.365	1043.25
1020.58	991.25
1020.795	1050.25
1021.011	999.25
1021.226	1005.25
1021.441	1025.25
1021.656	950.25
1021.871	899.25
1022.086	902.25
1022.301	900.25
1022.516	885.25
1022.731	977.25
1022.946	869.25
1023.16	874.25
1023.375	832.25
1023.59	804.25
1023.804	780.25
1024.019	890.25
1024.234	777.25
1024.448	824.25
1024.663	753.25
1024.877	772.25
1025.092	787.25
1025.306	809.25
1025.52	702.25
1025.734	801.25
1025.949	733.25
1026.163	701.25
1026.377	654.25
1026.591	715.25
1026.805	659.25
1027.019	632.25
1027.233	617.25
1027.447	569.25
1027.661	661.25
1027.875	601.25
1028.088	602.25
1028.302	549.25
1028.516	560.25
1028.73	560.25
1028.943	546.25
1029.157	526.25
1029.37	475.25
1029.584	-1.75
1029.797	-2.75
1030.011	-2.75
1030.224	-0.75
