Data from QEP037381__32__10-00-59-927.txt Node

Date: Wed Dec 21 10:00:59 EST 2022
User: dcclab
Spectrometer: QEP03738
Trigger mode: 4
Integration Time (sec): 1.000000E1
Scans to average: 1
Electric dark correction enabled: true
Nonlinearity correction enabled: false
Boxcar width: 0
XAxis mode: Wavelengths
Number of Pixels in Spectrum: 1044
>>>>>Begin Spectral Data<<<<<
784.041	10.5
784.3	-0.5
784.558	-1.5
784.817	-2.5
785.075	109490.5
785.334	19284.5
785.592	9188.5
785.851	6421.5
786.109	4787.5
786.368	3708.5
786.626	3008.5
786.884	2478.5
787.143	2053.5
787.401	1711.5
787.659	1530.5
787.917	1280.5
788.175	1166.5
788.433	1030.5
788.691	932.5
788.949	839.5
789.207	802.5
789.465	696.5
789.723	671.5
789.98	606.5
790.238	631.5
790.496	597.5
790.753	565.5
791.011	596.5
791.268	525.5
791.526	506.5
791.783	530.5
792.041	526.5
792.298	424.5
792.556	499.5
792.813	466.5
793.07	446.5
793.327	437.5
793.584	498.5
793.841	435.5
794.099	450.5
794.356	517.5
794.613	424.5
794.869	436.5
795.126	406.5
795.383	396.5
795.64	404.5
795.897	367.5
796.153	420.5
796.41	411.5
796.667	385.5
796.923	390.5
797.18	388.5
797.436	417.5
797.693	379.5
797.949	416.5
798.206	447.5
798.462	369.5
798.718	432.5
798.974	404.5
799.231	424.5
799.487	427.5
799.743	417.5
799.999	435.5
800.255	436.5
800.511	415.5
800.767	446.5
801.023	437.5
801.279	461.5
801.534	464.5
801.79	486.5
802.046	469.5
802.302	555.5
802.557	602.5
802.813	702.5
803.068	759.5
803.324	994.5
803.579	1262.5
803.835	1653.5
804.09	2208.5
804.345	2827.5
804.601	3532.5
804.856	4239.5
805.111	4892.5
805.366	5336.5
805.621	5676.5
805.876	5887.5
806.131	6012.5
806.386	6147.5
806.641	6171.5
806.896	6283.5
807.151	6411.5
807.406	6447.5
807.661	6551.5
807.915	6663.5
808.17	6682.5
808.425	6763.5
808.679	6734.5
808.934	6947.5
809.188	6915.5
809.443	7003.5
809.697	7016.5
809.951	7083.5
810.206	7120.5
810.46	7174.5
810.714	7240.5
810.968	7294.5
811.223	7285.5
811.477	7334.5
811.731	7493.5
811.985	7424.5
812.239	7449.5
812.493	7482.5
812.747	7530.5
813	7563.5
813.254	7611.5
813.508	7677.5
813.762	7633.5
814.015	7551.5
814.269	7664.5
814.522	7781.5
814.776	7819.5
815.03	7920.5
815.283	8040.5
815.536	8091.5
815.79	8281.5
816.043	8282.5
816.296	8409.5
816.55	8546.5
816.803	8525.5
817.056	8731.5
817.309	8681.5
817.562	8815.5
817.815	8896.5
818.068	8927.5
818.321	8947.5
818.574	9078.5
818.827	9166.5
819.079	9217.5
819.332	9456.5
819.585	9485.5
819.838	9660.5
820.09	9691.5
820.343	9797.5
820.595	9775.5
820.848	9829.5
821.1	9880.5
821.353	9922.5
821.605	9804.5
821.857	9948.5
822.11	9850.5
822.362	9841.5
822.614	9727.5
822.866	9859.5
823.118	9816.5
823.37	9911.5
823.622	9909.5
823.874	9984.5
824.126	9965.5
824.378	9956.5
824.63	9971.5
824.882	10065.5
825.134	9962.5
825.385	9941.5
825.637	9936.5
825.888	9874.5
826.14	9824.5
826.392	9831.5
826.643	9798.5
826.895	9716.5
827.146	9620.5
827.397	9649.5
827.649	9720.5
827.9	9594.5
828.151	9685.5
828.402	9752.5
828.653	9730.5
828.905	9730.5
829.156	9735.5
829.407	9702.5
829.658	9635.5
829.909	9783.5
830.159	9725.5
830.41	9656.5
830.661	9609.5
830.912	9559.5
831.162	9492.5
831.413	9518.5
831.664	9573.5
831.914	9498.5
832.165	9553.5
832.415	9502.5
832.666	9534.5
832.916	9536.5
833.167	9496.5
833.417	9553.5
833.667	9481.5
833.917	9458.5
834.168	9434.5
834.418	9413.5
834.668	9407.5
834.918	9367.5
835.168	9420.5
835.418	9288.5
835.668	9221.5
835.918	9266.5
836.167	9290.5
836.417	9183.5
836.667	9205.5
836.917	9167.5
837.166	9151.5
837.416	9180.5
837.666	9160.5
837.915	9157.5
838.165	9112.5
838.414	9024.5
838.663	8963.5
838.913	9074.5
839.162	9006.5
839.411	9035.5
839.661	8892.5
839.91	8930.5
840.159	8861.5
840.408	8974.5
840.657	8967.5
840.906	9001.5
841.155	8989.5
841.404	8989.5
841.653	8949.5
841.902	8845.5
842.15	8901.5
842.399	8929.5
842.648	8973.5
842.897	8947.5
843.145	8781.5
843.394	8738.5
843.642	8742.5
843.891	8764.5
844.139	8632.5
844.388	8599.5
844.636	8573.5
844.884	8570.5
845.133	8566.5
845.381	8553.5
845.629	8607.5
845.877	8548.5
846.125	8537.5
846.373	8525.5
846.621	8477.5
846.869	8472.5
847.117	8422.5
847.365	8382.5
847.613	8353.5
847.861	8368.5
848.108	8357.5
848.356	8380.5
848.604	8266.5
848.851	8286.5
849.099	8326.5
849.346	8280.5
849.594	8386.5
849.841	8397.5
850.089	8383.5
850.336	8388.5
850.583	8383.5
850.831	8379.5
851.078	8280.5
851.325	8279.5
851.572	8263.5
851.819	8223.5
852.066	8089.5
852.313	7970.5
852.56	7949.5
852.807	7838.5
853.054	7900.5
853.301	7888.5
853.548	7838.5
853.794	7998.5
854.041	7923.5
854.288	7935.5
854.534	8152.5
854.781	8032.5
855.028	8011.5
855.274	8059.5
855.52	7962.5
855.767	7903.5
856.013	7934.5
856.26	8133.5
856.506	7793.5
856.752	7867.5
856.998	7793.5
857.244	7739.5
857.49	7894.5
857.736	7864.5
857.982	7916.5
858.228	7808.5
858.474	7743.5
858.72	7734.5
858.966	7706.5
859.212	7569.5
859.458	7520.5
859.703	7382.5
859.949	7400.5
860.195	7405.5
860.44	7370.5
860.686	7265.5
860.931	7269.5
861.177	7273.5
861.422	7338.5
861.667	7175.5
861.913	7196.5
862.158	7240.5
862.403	7240.5
862.648	7227.5
862.893	7301.5
863.138	7253.5
863.384	7154.5
863.629	7190.5
863.873	7228.5
864.118	7154.5
864.363	7081.5
864.608	7160.5
864.853	7163.5
865.098	7042.5
865.342	7062.5
865.587	6971.5
865.832	7031.5
866.076	6997.5
866.321	6959.5
866.565	6942.5
866.81	6793.5
867.054	6878.5
867.298	6872.5
867.543	6848.5
867.787	6909.5
868.031	6829.5
868.275	6827.5
868.519	6869.5
868.764	6851.5
869.008	6757.5
869.252	6821.5
869.496	6759.5
869.739	6699.5
869.983	6742.5
870.227	6753.5
870.471	6729.5
870.715	6806.5
870.958	6771.5
871.202	6726.5
871.446	6711.5
871.689	6700.5
871.933	6717.5
872.176	6702.5
872.42	6692.5
872.663	6729.5
872.906	6755.5
873.15	6756.5
873.393	6662.5
873.636	6698.5
873.879	6643.5
874.122	6554.5
874.366	6413.5
874.609	6386.5
874.852	6401.5
875.095	6378.5
875.337	6317.5
875.58	6243.5
875.823	6243.5
876.066	6228.5
876.309	6282.5
876.551	6160.5
876.794	6103.5
877.037	6204.5
877.279	6109.5
877.522	6121.5
877.764	6191.5
878.007	6141.5
878.249	6166.5
878.491	6100.5
878.734	6167.5
878.976	6117.5
879.218	5990.5
879.46	6087.5
879.702	6017.5
879.945	5953.5
880.187	5875.5
880.429	5859.5
880.671	5800.5
880.912	5867.5
881.154	5781.5
881.396	5719.5
881.638	5735.5
881.88	5733.5
882.121	5708.5
882.363	5746.5
882.605	5765.5
882.846	5669.5
883.088	5747.5
883.329	5674.5
883.571	5681.5
883.812	5782.5
884.053	5743.5
884.295	5959.5
884.536	6034.5
884.777	5937.5
885.018	5915.5
885.259	5915.5
885.5	5763.5
885.742	6074.5
885.982	5836.5
886.223	5695.5
886.464	5682.5
886.705	5642.5
886.946	5632.5
887.187	5457.5
887.428	5571.5
887.668	5406.5
887.909	5333.5
888.15	5296.5
888.39	5237.5
888.631	5316.5
888.871	5274.5
889.111	5216.5
889.352	5192.5
889.592	5173.5
889.833	5085.5
890.073	5029.5
890.313	5103.5
890.553	4999.5
890.793	4954.5
891.033	4919.5
891.273	4906.5
891.513	4954.5
891.753	4964.5
891.993	4894.5
892.233	4892.5
892.473	5006.5
892.713	4958.5
892.952	4892.5
893.192	4926.5
893.432	4911.5
893.671	4919.5
893.911	4822.5
894.15	4864.5
894.39	4743.5
894.629	4731.5
894.869	4781.5
895.108	4733.5
895.347	4673.5
895.587	4667.5
895.826	4664.5
896.065	4634.5
896.304	4698.5
896.543	4699.5
896.782	4576.5
897.021	4621.5
897.26	4599.5
897.499	4621.5
897.738	4588.5
897.977	4523.5
898.216	4549.5
898.454	4431.5
898.693	4468.5
898.932	4451.5
899.17	4392.5
899.409	4376.5
899.647	4407.5
899.886	4320.5
900.124	4392.5
900.363	4350.5
900.601	4389.5
900.839	4350.5
901.078	4339.5
901.316	4380.5
901.554	4402.5
901.792	4470.5
902.03	4369.5
902.268	4362.5
902.506	4390.5
902.744	4328.5
902.982	4342.5
903.22	4267.5
903.458	4269.5
903.695	4288.5
903.933	4175.5
904.171	4114.5
904.409	4065.5
904.646	4050.5
904.884	3975.5
905.121	3995.5
905.359	3896.5
905.596	3877.5
905.833	3794.5
906.071	3786.5
906.308	3871.5
906.545	3852.5
906.783	3777.5
907.02	3804.5
907.257	3714.5
907.494	3780.5
907.731	3807.5
907.968	3827.5
908.205	3766.5
908.442	3693.5
908.679	3753.5
908.915	3639.5
909.152	3665.5
909.389	3564.5
909.626	3589.5
909.862	3582.5
910.099	3565.5
910.335	3581.5
910.572	3440.5
910.808	3492.5
911.045	3498.5
911.281	3480.5
911.518	3549.5
911.754	3454.5
911.99	3463.5
912.226	3407.5
912.463	3358.5
912.699	3365.5
912.935	3364.5
913.171	3376.5
913.407	3285.5
913.643	3323.5
913.879	3250.5
914.114	3254.5
914.35	3174.5
914.586	3196.5
914.822	3094.5
915.057	3226.5
915.293	3064.5
915.529	3074.5
915.764	3132.5
916	3101.5
916.235	3099.5
916.471	3107.5
916.706	3006.5
916.941	3061.5
917.177	3024.5
917.412	3094.5
917.647	3073.5
917.882	3042.5
918.117	3106.5
918.352	3020.5
918.588	3105.5
918.823	2964.5
919.057	3002.5
919.292	2862.5
919.527	2987.5
919.762	2844.5
919.997	2966.5
920.232	2876.5
920.466	2880.5
920.701	2773.5
920.935	2819.5
921.17	2760.5
921.405	2755.5
921.639	2764.5
921.873	2728.5
922.108	2778.5
922.342	2706.5
922.576	2698.5
922.811	2686.5
923.045	2765.5
923.279	2758.5
923.513	2584.5
923.747	2693.5
923.981	2629.5
924.215	2589.5
924.449	2627.5
924.683	2587.5
924.917	2581.5
925.151	2567.5
925.385	2657.5
925.618	2586.5
925.852	2579.5
926.086	2477.5
926.319	2562.5
926.553	2524.5
926.786	2551.5
927.02	2545.5
927.253	2585.5
927.486	2567.5
927.72	2502.5
927.953	2523.5
928.186	2504.5
928.42	2544.5
928.653	2442.5
928.886	2477.5
929.119	2496.5
929.352	2479.5
929.585	2472.5
929.818	2411.5
930.051	2449.5
930.284	2438.5
930.516	2332.5
930.749	2354.5
930.982	2418.5
931.215	2392.5
931.447	2310.5
931.68	2328.5
931.912	2299.5
932.145	2303.5
932.377	2357.5
932.61	2444.5
932.842	2239.5
933.074	2337.5
933.307	2274.5
933.539	2345.5
933.771	2352.5
934.003	2293.5
934.236	2359.5
934.468	2385.5
934.7	2294.5
934.932	2334.5
935.164	2247.5
935.395	2233.5
935.627	2288.5
935.859	2302.5
936.091	2241.5
936.323	2261.5
936.554	2288.5
936.786	2192.5
937.017	2193.5
937.249	2210.5
937.481	2162.5
937.712	2248.5
937.943	2212.5
938.175	2182.5
938.406	2182.5
938.637	2256.5
938.869	2142.5
939.1	2214.5
939.331	2166.5
939.562	2202.5
939.793	2180.5
940.024	2183.5
940.255	2239.5
940.486	2133.5
940.717	2118.5
940.948	2134.5
941.179	2122.5
941.409	2120.5
941.64	2103.5
941.871	2093.5
942.102	2085.5
942.332	2102.5
942.563	2141.5
942.793	2121.5
943.024	2057.5
943.254	2110.5
943.484	2157.5
943.715	2146.5
943.945	2097.5
944.175	2057.5
944.405	2027.5
944.636	2040.5
944.866	2110.5
945.096	2119.5
945.326	2032.5
945.556	2106.5
945.786	2109.5
946.016	2055.5
946.245	2000.5
946.475	1983.5
946.705	2057.5
946.935	2011.5
947.164	2016.5
947.394	1967.5
947.624	1987.5
947.853	2000.5
948.083	2018.5
948.312	1958.5
948.542	1875.5
948.771	1914.5
949	1888.5
949.23	1913.5
949.459	1940.5
949.688	2019.5
949.917	1898.5
950.146	1940.5
950.375	2010.5
950.604	1890.5
950.833	1940.5
951.062	1972.5
951.291	1903.5
951.52	1877.5
951.749	1931.5
951.978	1872.5
952.206	1882.5
952.435	1879.5
952.664	1887.5
952.892	1912.5
953.121	1891.5
953.349	1905.5
953.578	1888.5
953.806	1881.5
954.035	1802.5
954.263	1858.5
954.491	1810.5
954.719	1856.5
954.948	1821.5
955.176	1814.5
955.404	1757.5
955.632	1807.5
955.86	1819.5
956.088	1815.5
956.316	1776.5
956.544	1848.5
956.772	1771.5
956.999	1746.5
957.227	1839.5
957.455	1759.5
957.683	1751.5
957.91	1715.5
958.138	1707.5
958.365	1707.5
958.593	1721.5
958.82	1678.5
959.048	1747.5
959.275	1704.5
959.502	1696.5
959.73	1695.5
959.957	1717.5
960.184	1725.5
960.411	1664.5
960.638	1739.5
960.865	1708.5
961.092	1709.5
961.319	1600.5
961.546	1729.5
961.773	1690.5
962	1686.5
962.227	1730.5
962.454	1680.5
962.68	1674.5
962.907	1673.5
963.134	1631.5
963.36	1672.5
963.587	1689.5
963.813	1613.5
964.04	1674.5
964.266	1585.5
964.493	1681.5
964.719	1669.5
964.945	1638.5
965.171	1561.5
965.398	1626.5
965.624	1637.5
965.85	1586.5
966.076	1559.5
966.302	1592.5
966.528	1558.5
966.754	1594.5
966.98	1607.5
967.206	1593.5
967.431	1522.5
967.657	1614.5
967.883	1588.5
968.109	1583.5
968.334	1515.5
968.56	1507.5
968.785	1532.5
969.011	1476.5
969.236	1542.5
969.462	1493.5
969.687	1515.5
969.912	1570.5
970.138	1584.5
970.363	1507.5
970.588	1518.5
970.813	1501.5
971.038	1468.5
971.263	1496.5
971.488	1501.5
971.713	1556.5
971.938	1520.5
972.163	1442.5
972.388	1454.5
972.613	1453.5
972.838	1478.5
973.062	1466.5
973.287	1448.5
973.512	1378.5
973.736	1439.5
973.961	1394.5
974.185	1399.5
974.41	1453.5
974.634	1344.5
974.858	1390.5
975.083	1375.5
975.307	1410.5
975.531	1353.5
975.755	1305.5
975.98	1348.5
976.204	1285.5
976.428	1309.5
976.652	1309.5
976.876	1298.5
977.1	1335.5
977.324	1290.5
977.547	1367.5
977.771	1362.5
977.995	1330.5
978.219	1267.5
978.442	1400.5
978.666	1317.5
978.89	1320.5
979.113	1323.5
979.337	1322.5
979.56	1259.5
979.783	1357.5
980.007	1258.5
980.23	1299.5
980.453	1277.5
980.677	1303.5
980.9	1303.5
981.123	1182.5
981.346	1301.5
981.569	1285.5
981.792	1301.5
982.015	1268.5
982.238	1239.5
982.461	1255.5
982.684	1209.5
982.907	1203.5
983.129	1214.5
983.352	1277.5
983.575	1240.5
983.797	1228.5
984.02	1188.5
984.242	1201.5
984.465	1206.5
984.687	1251.5
984.91	1268.5
985.132	1220.5
985.354	1229.5
985.577	1213.5
985.799	1220.5
986.021	1154.5
986.243	1164.5
986.465	1171.5
986.687	1222.5
986.909	1261.5
987.131	1203.5
987.353	1178.5
987.575	1185.5
987.797	1204.5
988.019	1126.5
988.241	1198.5
988.462	1114.5
988.684	1179.5
988.906	1237.5
989.127	1251.5
989.349	1130.5
989.57	1165.5
989.792	1218.5
990.013	1219.5
990.234	1202.5
990.456	1235.5
990.677	1205.5
990.898	1138.5
991.119	1160.5
991.341	1204.5
991.562	1143.5
991.783	1196.5
992.004	1117.5
992.225	1092.5
992.446	1163.5
992.667	1081.5
992.887	1167.5
993.108	1062.5
993.329	1178.5
993.55	1147.5
993.77	1068.5
993.991	1084.5
994.212	1110.5
994.432	1096.5
994.653	1137.5
994.873	1142.5
995.093	1005.5
995.314	1079.5
995.534	1131.5
995.754	1153.5
995.975	1190.5
996.195	1045.5
996.415	1118.5
996.635	1082.5
996.855	1112.5
997.075	1056.5
997.295	1071.5
997.515	1057.5
997.735	1125.5
997.955	1088.5
998.174	1047.5
998.394	1049.5
998.614	1105.5
998.834	1047.5
999.053	1126.5
999.273	1083.5
999.492	1153.5
999.712	1075.5
999.931	1062.5
1000.151	1098.5
1000.37	1076.5
1000.589	1133.5
1000.809	1068.5
1001.028	1188.5
1001.247	1113.5
1001.466	1023.5
1001.685	1156.5
1001.904	1107.5
1002.123	1087.5
1002.342	1120.5
1002.561	1063.5
1002.78	1088.5
1002.999	1132.5
1003.218	1092.5
1003.436	1077.5
1003.655	1136.5
1003.874	1074.5
1004.092	1083.5
1004.311	1130.5
1004.53	1086.5
1004.748	1187.5
1004.966	1066.5
1005.185	1161.5
1005.403	1127.5
1005.622	1108.5
1005.84	1183.5
1006.058	1083.5
1006.276	1125.5
1006.494	1589.5
1006.712	1091.5
1006.931	1166.5
1007.149	1065.5
1007.367	1079.5
1007.584	1122.5
1007.802	1128.5
1008.02	1075.5
1008.238	1171.5
1008.456	1181.5
1008.673	1050.5
1008.891	1132.5
1009.109	1089.5
1009.326	1123.5
1009.544	1184.5
1009.761	1113.5
1009.979	1166.5
1010.196	1187.5
1010.413	1223.5
1010.631	1263.5
1010.848	1277.5
1011.065	1292.5
1011.282	1247.5
1011.5	1174.5
1011.717	1285.5
1011.934	1211.5
1012.151	1246.5
1012.368	1232.5
1012.585	1186.5
1012.801	1236.5
1013.018	1213.5
1013.235	1177.5
1013.452	1173.5
1013.669	1194.5
1013.885	1158.5
1014.102	1187.5
1014.318	1161.5
1014.535	1106.5
1014.751	1159.5
1014.968	1172.5
1015.184	1204.5
1015.401	1096.5
1015.617	1145.5
1015.833	1109.5
1016.049	1120.5
1016.266	1080.5
1016.482	1104.5
1016.698	1040.5
1016.914	1105.5
1017.13	1043.5
1017.346	1035.5
1017.562	1091.5
1017.778	1048.5
1017.993	1047.5
1018.209	1053.5
1018.425	1055.5
1018.641	1008.5
1018.856	973.5
1019.072	1019.5
1019.288	1051.5
1019.503	1006.5
1019.719	925.5
1019.934	934.5
1020.149	1018.5
1020.365	979.5
1020.58	906.5
1020.795	995.5
1021.011	915.5
1021.226	917.5
1021.441	945.5
1021.656	861.5
1021.871	822.5
1022.086	818.5
1022.301	828.5
1022.516	828.5
1022.731	873.5
1022.946	817.5
1023.16	797.5
1023.375	789.5
1023.59	762.5
1023.804	718.5
1024.019	843.5
1024.234	731.5
1024.448	741.5
1024.663	687.5
1024.877	709.5
1025.092	715.5
1025.306	740.5
1025.52	646.5
1025.734	761.5
1025.949	687.5
1026.163	643.5
1026.377	604.5
1026.591	664.5
1026.805	597.5
1027.019	591.5
1027.233	555.5
1027.447	513.5
1027.661	625.5
1027.875	573.5
1028.088	585.5
1028.302	523.5
1028.516	515.5
1028.73	515.5
1028.943	529.5
1029.157	481.5
1029.37	456.5
1029.584	-1.5
1029.797	-1.5
1030.011	-2.5
1030.224	-0.5
