Data from QEP037381__19__09-58-49-926.txt Node

Date: Wed Dec 21 09:58:49 EST 2022
User: dcclab
Spectrometer: QEP03738
Trigger mode: 4
Integration Time (sec): 1.000000E1
Scans to average: 1
Electric dark correction enabled: true
Nonlinearity correction enabled: false
Boxcar width: 0
XAxis mode: Wavelengths
Number of Pixels in Spectrum: 1044
>>>>>Begin Spectral Data<<<<<
784.041	12.62
784.3	-3.38
784.558	0.62
784.817	-2.38
785.075	113127.62
785.334	19537.62
785.592	9329.62
785.851	6403.62
786.109	4793.62
786.368	3794.62
786.626	2971.62
786.884	2484.62
787.143	2085.62
787.401	1703.62
787.659	1530.62
787.917	1294.62
788.175	1205.62
788.433	1067.62
788.691	928.62
788.949	850.62
789.207	806.62
789.465	710.62
789.723	674.62
789.98	607.62
790.238	641.62
790.496	603.62
790.753	580.62
791.011	609.62
791.268	555.62
791.526	546.62
791.783	545.62
792.041	533.62
792.298	439.62
792.556	513.62
792.813	478.62
793.07	452.62
793.327	452.62
793.584	513.62
793.841	451.62
794.099	459.62
794.356	526.62
794.613	410.62
794.869	452.62
795.126	404.62
795.383	400.62
795.64	414.62
795.897	376.62
796.153	428.62
796.41	413.62
796.667	388.62
796.923	401.62
797.18	415.62
797.436	422.62
797.693	393.62
797.949	436.62
798.206	458.62
798.462	382.62
798.718	420.62
798.974	399.62
799.231	429.62
799.487	435.62
799.743	440.62
799.999	447.62
800.255	440.62
800.511	429.62
800.767	475.62
801.023	438.62
801.279	454.62
801.534	481.62
801.79	518.62
802.046	518.62
802.302	589.62
802.557	649.62
802.813	757.62
803.068	859.62
803.324	1152.62
803.579	1453.62
803.835	1952.62
804.09	2627.62
804.345	3384.62
804.601	4255.62
804.856	5114.62
805.111	5857.62
805.366	6371.62
805.621	6809.62
805.876	7111.62
806.131	7216.62
806.386	7344.62
806.641	7471.62
806.896	7531.62
807.151	7727.62
807.406	7738.62
807.661	7871.62
807.915	8008.62
808.17	8152.62
808.425	8188.62
808.679	8177.62
808.934	8303.62
809.188	8366.62
809.443	8439.62
809.697	8557.62
809.951	8503.62
810.206	8631.62
810.46	8690.62
810.714	8719.62
810.968	8822.62
811.223	8782.62
811.477	8981.62
811.731	9004.62
811.985	8984.62
812.239	8980.62
812.493	9080.62
812.747	9136.62
813	9108.62
813.254	9158.62
813.508	9212.62
813.762	9222.62
814.015	9208.62
814.269	9328.62
814.522	9422.62
814.776	9440.62
815.03	9563.62
815.283	9674.62
815.536	9834.62
815.79	9974.62
816.043	10125.62
816.296	10175.62
816.55	10286.62
816.803	10422.62
817.056	10563.62
817.309	10602.62
817.562	10715.62
817.815	10765.62
818.068	10733.62
818.321	10883.62
818.574	11020.62
818.827	11115.62
819.079	11208.62
819.332	11441.62
819.585	11477.62
819.838	11718.62
820.09	11752.62
820.343	11875.62
820.595	11836.62
820.848	11904.62
821.1	11947.62
821.353	12003.62
821.605	11952.62
821.857	12099.62
822.11	11910.62
822.362	11973.62
822.614	11928.62
822.866	11906.62
823.118	11832.62
823.37	12009.62
823.622	11969.62
823.874	12008.62
824.126	12113.62
824.378	12109.62
824.63	12162.62
824.882	12131.62
825.134	12112.62
825.385	12120.62
825.637	12104.62
825.888	12013.62
826.14	11972.62
826.392	11891.62
826.643	11829.62
826.895	11835.62
827.146	11764.62
827.397	11737.62
827.649	11779.62
827.9	11668.62
828.151	11688.62
828.402	11760.62
828.653	11833.62
828.905	11824.62
829.156	11867.62
829.407	11793.62
829.658	11800.62
829.909	11829.62
830.159	11762.62
830.41	11708.62
830.661	11636.62
830.912	11579.62
831.162	11498.62
831.413	11484.62
831.664	11599.62
831.914	11574.62
832.165	11548.62
832.415	11556.62
832.666	11614.62
832.916	11526.62
833.167	11506.62
833.417	11561.62
833.667	11473.62
833.917	11431.62
834.168	11447.62
834.418	11460.62
834.668	11371.62
834.918	11267.62
835.168	11354.62
835.418	11176.62
835.668	11263.62
835.918	11184.62
836.167	11225.62
836.417	11120.62
836.667	11207.62
836.917	11173.62
837.166	11031.62
837.416	11089.62
837.666	11077.62
837.915	11060.62
838.165	11070.62
838.414	10916.62
838.663	10972.62
838.913	10930.62
839.162	10919.62
839.411	10903.62
839.661	10843.62
839.91	10791.62
840.159	10731.62
840.408	10790.62
840.657	10849.62
840.906	10820.62
841.155	10715.62
841.404	10758.62
841.653	10810.62
841.902	10737.62
842.15	10853.62
842.399	10785.62
842.648	10724.62
842.897	10741.62
843.145	10611.62
843.394	10608.62
843.642	10538.62
843.891	10481.62
844.139	10494.62
844.388	10395.62
844.636	10297.62
844.884	10382.62
845.133	10292.62
845.381	10320.62
845.629	10303.62
845.877	10335.62
846.125	10267.62
846.373	10293.62
846.621	10247.62
846.869	10160.62
847.117	10157.62
847.365	10093.62
847.613	10124.62
847.861	10077.62
848.108	10023.62
848.356	10018.62
848.604	10007.62
848.851	9942.62
849.099	10026.62
849.346	10000.62
849.594	10105.62
849.841	10107.62
850.089	10126.62
850.336	10065.62
850.583	10138.62
850.831	10110.62
851.078	10014.62
851.325	9922.62
851.572	9930.62
851.819	9853.62
852.066	9658.62
852.313	9636.62
852.56	9494.62
852.807	9449.62
853.054	9449.62
853.301	9452.62
853.548	9448.62
853.794	9544.62
854.041	9628.62
854.288	9596.62
854.534	9701.62
854.781	9709.62
855.028	9593.62
855.274	9648.62
855.52	9549.62
855.767	9455.62
856.013	9426.62
856.26	9739.62
856.506	9335.62
856.752	9393.62
856.998	9337.62
857.244	9325.62
857.49	9389.62
857.736	9421.62
857.982	9414.62
858.228	9492.62
858.474	9314.62
858.72	9403.62
858.966	9206.62
859.212	9213.62
859.458	9124.62
859.703	9016.62
859.949	8881.62
860.195	8903.62
860.44	8831.62
860.686	8756.62
860.931	8754.62
861.177	8624.62
861.422	8739.62
861.667	8673.62
861.913	8679.62
862.158	8659.62
862.403	8712.62
862.648	8684.62
862.893	8719.62
863.138	8707.62
863.384	8599.62
863.629	8711.62
863.873	8652.62
864.118	8591.62
864.363	8506.62
864.608	8555.62
864.853	8515.62
865.098	8468.62
865.342	8451.62
865.587	8397.62
865.832	8474.62
866.076	8376.62
866.321	8341.62
866.565	8348.62
866.81	8299.62
867.054	8285.62
867.298	8284.62
867.543	8211.62
867.787	8272.62
868.031	8216.62
868.275	8154.62
868.519	8146.62
868.764	8211.62
869.008	8176.62
869.252	8148.62
869.496	8106.62
869.739	8068.62
869.983	8051.62
870.227	8066.62
870.471	8017.62
870.715	8013.62
870.958	8108.62
871.202	8047.62
871.446	8145.62
871.689	8007.62
871.933	8039.62
872.176	8064.62
872.42	8084.62
872.663	8013.62
872.906	8077.62
873.15	7953.62
873.393	7898.62
873.636	7878.62
873.879	7802.62
874.122	7777.62
874.366	7701.62
874.609	7676.62
874.852	7603.62
875.095	7598.62
875.337	7555.62
875.58	7464.62
875.823	7476.62
876.066	7459.62
876.309	7471.62
876.551	7427.62
876.794	7300.62
877.037	7387.62
877.279	7293.62
877.522	7338.62
877.764	7337.62
878.007	7270.62
878.249	7328.62
878.491	7262.62
878.734	7301.62
878.976	7274.62
879.218	7245.62
879.46	7253.62
879.702	7217.62
879.945	7077.62
880.187	6992.62
880.429	7022.62
880.671	6979.62
880.912	7027.62
881.154	6886.62
881.396	6881.62
881.638	6894.62
881.88	6872.62
882.121	6816.62
882.363	6815.62
882.605	6849.62
882.846	6849.62
883.088	6843.62
883.329	6764.62
883.571	6725.62
883.812	6785.62
884.053	6842.62
884.295	6973.62
884.536	7065.62
884.777	6988.62
885.018	6963.62
885.259	6968.62
885.5	6888.62
885.742	7156.62
885.982	6793.62
886.223	6780.62
886.464	6767.62
886.705	6689.62
886.946	6633.62
887.187	6553.62
887.428	6575.62
887.668	6425.62
887.909	6373.62
888.15	6307.62
888.39	6295.62
888.631	6339.62
888.871	6281.62
889.111	6250.62
889.352	6187.62
889.592	6080.62
889.833	6065.62
890.073	6083.62
890.313	6050.62
890.553	5957.62
890.793	5921.62
891.033	5883.62
891.273	5884.62
891.513	5866.62
891.753	5910.62
891.993	5847.62
892.233	5899.62
892.473	5915.62
892.713	5895.62
892.952	5789.62
893.192	5881.62
893.432	5838.62
893.671	5885.62
893.911	5842.62
894.15	5799.62
894.39	5641.62
894.629	5712.62
894.869	5694.62
895.108	5648.62
895.347	5542.62
895.587	5556.62
895.826	5560.62
896.065	5505.62
896.304	5561.62
896.543	5563.62
896.782	5422.62
897.021	5494.62
897.26	5425.62
897.499	5551.62
897.738	5488.62
897.977	5399.62
898.216	5370.62
898.454	5268.62
898.693	5273.62
898.932	5309.62
899.17	5261.62
899.409	5202.62
899.647	5249.62
899.886	5141.62
900.124	5154.62
900.363	5150.62
900.601	5218.62
900.839	5168.62
901.078	5231.62
901.316	5148.62
901.554	5191.62
901.792	5163.62
902.03	5102.62
902.268	5138.62
902.506	5200.62
902.744	5165.62
902.982	5115.62
903.22	5060.62
903.458	5034.62
903.695	4973.62
903.933	4956.62
904.171	4833.62
904.409	4780.62
904.646	4807.62
904.884	4716.62
905.121	4663.62
905.359	4653.62
905.596	4579.62
905.833	4574.62
906.071	4509.62
906.308	4550.62
906.545	4545.62
906.783	4500.62
907.02	4486.62
907.257	4476.62
907.494	4450.62
907.731	4469.62
907.968	4456.62
908.205	4424.62
908.442	4339.62
908.679	4355.62
908.915	4395.62
909.152	4315.62
909.389	4241.62
909.626	4263.62
909.862	4213.62
910.099	4185.62
910.335	4254.62
910.572	4075.62
910.808	4137.62
911.045	4154.62
911.281	4113.62
911.518	4176.62
911.754	4112.62
911.99	4107.62
912.226	4032.62
912.463	3979.62
912.699	3912.62
912.935	4002.62
913.171	3959.62
913.407	3878.62
913.643	3926.62
913.879	3857.62
914.114	3830.62
914.35	3798.62
914.586	3790.62
914.822	3718.62
915.057	3770.62
915.293	3622.62
915.529	3651.62
915.764	3708.62
916	3653.62
916.235	3610.62
916.471	3668.62
916.706	3568.62
916.941	3601.62
917.177	3625.62
917.412	3585.62
917.647	3649.62
917.882	3573.62
918.117	3625.62
918.352	3581.62
918.588	3593.62
918.823	3507.62
919.057	3458.62
919.292	3396.62
919.527	3498.62
919.762	3405.62
919.997	3445.62
920.232	3361.62
920.466	3352.62
920.701	3261.62
920.935	3299.62
921.17	3248.62
921.405	3225.62
921.639	3250.62
921.873	3249.62
922.108	3241.62
922.342	3234.62
922.576	3180.62
922.811	3152.62
923.045	3209.62
923.279	3231.62
923.513	3061.62
923.747	3146.62
923.981	3139.62
924.215	3114.62
924.449	3056.62
924.683	3035.62
924.917	3034.62
925.151	3007.62
925.385	3084.62
925.618	3029.62
925.852	3009.62
926.086	2920.62
926.319	2984.62
926.553	2987.62
926.786	3002.62
927.02	2953.62
927.253	2982.62
927.486	2977.62
927.72	2905.62
927.953	3021.62
928.186	2920.62
928.42	2939.62
928.653	2903.62
928.886	2872.62
929.119	2931.62
929.352	2925.62
929.585	2880.62
929.818	2825.62
930.051	2793.62
930.284	2841.62
930.516	2703.62
930.749	2762.62
930.982	2767.62
931.215	2739.62
931.447	2701.62
931.68	2687.62
931.912	2704.62
932.145	2677.62
932.377	2688.62
932.61	2812.62
932.842	2640.62
933.074	2717.62
933.307	2653.62
933.539	2742.62
933.771	2725.62
934.003	2713.62
934.236	2736.62
934.468	2764.62
934.7	2677.62
934.932	2664.62
935.164	2639.62
935.395	2618.62
935.627	2650.62
935.859	2653.62
936.091	2592.62
936.323	2645.62
936.554	2691.62
936.786	2610.62
937.017	2584.62
937.249	2583.62
937.481	2540.62
937.712	2586.62
937.943	2575.62
938.175	2568.62
938.406	2536.62
938.637	2620.62
938.869	2506.62
939.1	2551.62
939.331	2539.62
939.562	2524.62
939.793	2511.62
940.024	2579.62
940.255	2593.62
940.486	2521.62
940.717	2513.62
940.948	2472.62
941.179	2431.62
941.409	2471.62
941.64	2457.62
941.871	2474.62
942.102	2422.62
942.332	2444.62
942.563	2493.62
942.793	2483.62
943.024	2382.62
943.254	2420.62
943.484	2491.62
943.715	2464.62
943.945	2449.62
944.175	2373.62
944.405	2349.62
944.636	2401.62
944.866	2421.62
945.096	2436.62
945.326	2367.62
945.556	2449.62
945.786	2417.62
946.016	2369.62
946.245	2308.62
946.475	2314.62
946.705	2294.62
946.935	2330.62
947.164	2357.62
947.394	2279.62
947.624	2319.62
947.853	2341.62
948.083	2303.62
948.312	2279.62
948.542	2220.62
948.771	2192.62
949	2223.62
949.23	2236.62
949.459	2257.62
949.688	2325.62
949.917	2221.62
950.146	2253.62
950.375	2269.62
950.604	2189.62
950.833	2298.62
951.062	2272.62
951.291	2202.62
951.52	2152.62
951.749	2235.62
951.978	2147.62
952.206	2161.62
952.435	2170.62
952.664	2200.62
952.892	2203.62
953.121	2188.62
953.349	2207.62
953.578	2190.62
953.806	2123.62
954.035	2087.62
954.263	2115.62
954.491	2072.62
954.719	2118.62
954.948	2070.62
955.176	2070.62
955.404	2002.62
955.632	2082.62
955.86	2094.62
956.088	2074.62
956.316	2073.62
956.544	2089.62
956.772	2054.62
956.999	1992.62
957.227	2086.62
957.455	1972.62
957.683	2009.62
957.91	1976.62
958.138	1965.62
958.365	1988.62
958.593	1984.62
958.82	1938.62
959.048	1994.62
959.275	1951.62
959.502	1922.62
959.73	1933.62
959.957	1956.62
960.184	1957.62
960.411	1919.62
960.638	1994.62
960.865	1921.62
961.092	1945.62
961.319	1863.62
961.546	1972.62
961.773	1983.62
962	1941.62
962.227	1942.62
962.454	1897.62
962.68	1917.62
962.907	1935.62
963.134	1873.62
963.36	1901.62
963.587	1925.62
963.813	1843.62
964.04	1883.62
964.266	1825.62
964.493	1883.62
964.719	1875.62
964.945	1869.62
965.171	1785.62
965.398	1836.62
965.624	1851.62
965.85	1770.62
966.076	1767.62
966.302	1801.62
966.528	1756.62
966.754	1807.62
966.98	1784.62
967.206	1825.62
967.431	1755.62
967.657	1810.62
967.883	1777.62
968.109	1766.62
968.334	1736.62
968.56	1752.62
968.785	1751.62
969.011	1696.62
969.236	1763.62
969.462	1696.62
969.687	1688.62
969.912	1745.62
970.138	1771.62
970.363	1692.62
970.588	1702.62
970.813	1671.62
971.038	1674.62
971.263	1689.62
971.488	1702.62
971.713	1743.62
971.938	1707.62
972.163	1618.62
972.388	1688.62
972.613	1619.62
972.838	1631.62
973.062	1658.62
973.287	1647.62
973.512	1576.62
973.736	1597.62
973.961	1613.62
974.185	1569.62
974.41	1632.62
974.634	1529.62
974.858	1560.62
975.083	1583.62
975.307	1612.62
975.531	1545.62
975.755	1504.62
975.98	1543.62
976.204	1472.62
976.428	1485.62
976.652	1467.62
976.876	1474.62
977.1	1501.62
977.324	1458.62
977.547	1515.62
977.771	1537.62
977.995	1479.62
978.219	1442.62
978.442	1540.62
978.666	1456.62
978.89	1488.62
979.113	1456.62
979.337	1436.62
979.56	1459.62
979.783	1504.62
980.007	1417.62
980.23	1455.62
980.453	1414.62
980.677	1466.62
980.9	1450.62
981.123	1337.62
981.346	1464.62
981.569	1418.62
981.792	1448.62
982.015	1402.62
982.238	1383.62
982.461	1401.62
982.684	1357.62
982.907	1344.62
983.129	1348.62
983.352	1414.62
983.575	1393.62
983.797	1401.62
984.02	1343.62
984.242	1343.62
984.465	1366.62
984.687	1376.62
984.91	1403.62
985.132	1354.62
985.354	1384.62
985.577	1364.62
985.799	1344.62
986.021	1270.62
986.243	1292.62
986.465	1340.62
986.687	1355.62
986.909	1402.62
987.131	1343.62
987.353	1291.62
987.575	1334.62
987.797	1296.62
988.019	1248.62
988.241	1302.62
988.462	1267.62
988.684	1320.62
988.906	1336.62
989.127	1344.62
989.349	1241.62
989.57	1295.62
989.792	1306.62
990.013	1322.62
990.234	1331.62
990.456	1344.62
990.677	1333.62
990.898	1298.62
991.119	1279.62
991.341	1315.62
991.562	1233.62
991.783	1280.62
992.004	1232.62
992.225	1230.62
992.446	1273.62
992.667	1196.62
992.887	1275.62
993.108	1187.62
993.329	1293.62
993.55	1237.62
993.77	1183.62
993.991	1184.62
994.212	1231.62
994.432	1220.62
994.653	1242.62
994.873	1239.62
995.093	1090.62
995.314	1165.62
995.534	1244.62
995.754	1258.62
995.975	1260.62
996.195	1146.62
996.415	1208.62
996.635	1174.62
996.855	1212.62
997.075	1175.62
997.295	1154.62
997.515	1162.62
997.735	1210.62
997.955	1188.62
998.174	1142.62
998.394	1156.62
998.614	1187.62
998.834	1134.62
999.053	1215.62
999.273	1190.62
999.492	1207.62
999.712	1192.62
999.931	1122.62
1000.151	1180.62
1000.37	1167.62
1000.589	1219.62
1000.809	1158.62
1001.028	1284.62
1001.247	1205.62
1001.466	1104.62
1001.685	1256.62
1001.904	1182.62
1002.123	1188.62
1002.342	1185.62
1002.561	1150.62
1002.78	1193.62
1002.999	1252.62
1003.218	1155.62
1003.436	1160.62
1003.655	1195.62
1003.874	1132.62
1004.092	1175.62
1004.311	1227.62
1004.53	1176.62
1004.748	1231.62
1004.966	1149.62
1005.185	1220.62
1005.403	1205.62
1005.622	1174.62
1005.84	1247.62
1006.058	1146.62
1006.276	1193.62
1006.494	1655.62
1006.712	1163.62
1006.931	1240.62
1007.149	1127.62
1007.367	1151.62
1007.584	1171.62
1007.802	1197.62
1008.02	1163.62
1008.238	1229.62
1008.456	1223.62
1008.673	1083.62
1008.891	1209.62
1009.109	1159.62
1009.326	1189.62
1009.544	1252.62
1009.761	1143.62
1009.979	1253.62
1010.196	1214.62
1010.413	1296.62
1010.631	1312.62
1010.848	1302.62
1011.065	1319.62
1011.282	1284.62
1011.5	1189.62
1011.717	1332.62
1011.934	1258.62
1012.151	1303.62
1012.368	1278.62
1012.585	1200.62
1012.801	1274.62
1013.018	1234.62
1013.235	1178.62
1013.452	1236.62
1013.669	1226.62
1013.885	1197.62
1014.102	1250.62
1014.318	1207.62
1014.535	1160.62
1014.751	1205.62
1014.968	1219.62
1015.184	1249.62
1015.401	1145.62
1015.617	1190.62
1015.833	1128.62
1016.049	1143.62
1016.266	1146.62
1016.482	1123.62
1016.698	1065.62
1016.914	1149.62
1017.13	1089.62
1017.346	1073.62
1017.562	1145.62
1017.778	1071.62
1017.993	1054.62
1018.209	1092.62
1018.425	1068.62
1018.641	1028.62
1018.856	1010.62
1019.072	1061.62
1019.288	1088.62
1019.503	1063.62
1019.719	976.62
1019.934	988.62
1020.149	1081.62
1020.365	1012.62
1020.58	958.62
1020.795	1020.62
1021.011	969.62
1021.226	961.62
1021.441	976.62
1021.656	923.62
1021.871	849.62
1022.086	870.62
1022.301	888.62
1022.516	861.62
1022.731	930.62
1022.946	825.62
1023.16	836.62
1023.375	812.62
1023.59	812.62
1023.804	762.62
1024.019	871.62
1024.234	763.62
1024.448	805.62
1024.663	717.62
1024.877	744.62
1025.092	779.62
1025.306	764.62
1025.52	678.62
1025.734	797.62
1025.949	718.62
1026.163	678.62
1026.377	627.62
1026.591	703.62
1026.805	618.62
1027.019	628.62
1027.233	591.62
1027.447	552.62
1027.661	637.62
1027.875	599.62
1028.088	613.62
1028.302	535.62
1028.516	528.62
1028.73	526.62
1028.943	533.62
1029.157	501.62
1029.37	472.62
1029.584	-2.38
1029.797	-0.38
1030.011	-2.38
1030.224	-2.38
