Data from QEP037381__15__09-58-09-926.txt Node

Date: Wed Dec 21 09:58:09 EST 2022
User: dcclab
Spectrometer: QEP03738
Trigger mode: 4
Integration Time (sec): 1.000000E1
Scans to average: 1
Electric dark correction enabled: true
Nonlinearity correction enabled: false
Boxcar width: 0
XAxis mode: Wavelengths
Number of Pixels in Spectrum: 1044
>>>>>Begin Spectral Data<<<<<
784.041	12.62
784.3	2.62
784.558	-3.38
784.817	-4.38
785.075	117091.62
785.334	19883.62
785.592	9092.62
785.851	6241.62
786.109	4673.62
786.368	3530.62
786.626	2874.62
786.884	2398.62
787.143	2023.62
787.401	1660.62
787.659	1510.62
787.917	1274.62
788.175	1181.62
788.433	1000.62
788.691	918.62
788.949	845.62
789.207	805.62
789.465	703.62
789.723	652.62
789.98	617.62
790.238	642.62
790.496	593.62
790.753	571.62
791.011	611.62
791.268	549.62
791.526	522.62
791.783	545.62
792.041	525.62
792.298	434.62
792.556	481.62
792.813	478.62
793.07	449.62
793.327	449.62
793.584	522.62
793.841	427.62
794.099	462.62
794.356	518.62
794.613	424.62
794.869	429.62
795.126	412.62
795.383	404.62
795.64	419.62
795.897	385.62
796.153	434.62
796.41	398.62
796.667	388.62
796.923	402.62
797.18	396.62
797.436	420.62
797.693	379.62
797.949	433.62
798.206	445.62
798.462	359.62
798.718	439.62
798.974	402.62
799.231	447.62
799.487	428.62
799.743	433.62
799.999	475.62
800.255	445.62
800.511	430.62
800.767	474.62
801.023	436.62
801.279	469.62
801.534	465.62
801.79	531.62
802.046	516.62
802.302	607.62
802.557	656.62
802.813	737.62
803.068	855.62
803.324	1153.62
803.579	1483.62
803.835	1948.62
804.09	2679.62
804.345	3458.62
804.601	4299.62
804.856	5184.62
805.111	5957.62
805.366	6574.62
805.621	6910.62
805.876	7229.62
806.131	7342.62
806.386	7530.62
806.641	7548.62
806.896	7685.62
807.151	7845.62
807.406	7928.62
807.661	8038.62
807.915	8129.62
808.17	8281.62
808.425	8319.62
808.679	8296.62
808.934	8477.62
809.188	8509.62
809.443	8606.62
809.697	8666.62
809.951	8651.62
810.206	8764.62
810.46	8832.62
810.714	8866.62
810.968	8960.62
811.223	9034.62
811.477	9006.62
811.731	9104.62
811.985	9112.62
812.239	9111.62
812.493	9208.62
812.747	9314.62
813	9225.62
813.254	9277.62
813.508	9350.62
813.762	9336.62
814.015	9386.62
814.269	9481.62
814.522	9590.62
814.776	9658.62
815.03	9767.62
815.283	9800.62
815.536	9990.62
815.79	10133.62
816.043	10251.62
816.296	10311.62
816.55	10482.62
816.803	10514.62
817.056	10784.62
817.309	10812.62
817.562	10754.62
817.815	10943.62
818.068	10996.62
818.321	10999.62
818.574	11140.62
818.827	11262.62
819.079	11356.62
819.332	11631.62
819.585	11709.62
819.838	11878.62
820.09	11905.62
820.343	12029.62
820.595	11974.62
820.848	12149.62
821.1	12115.62
821.353	12151.62
821.605	12134.62
821.857	12113.62
822.11	11948.62
822.362	12093.62
822.614	12077.62
822.866	12118.62
823.118	12120.62
823.37	12157.62
823.622	12194.62
823.874	12265.62
824.126	12266.62
824.378	12256.62
824.63	12289.62
824.882	12272.62
825.134	12260.62
825.385	12268.62
825.637	12238.62
825.888	12150.62
826.14	12046.62
826.392	12098.62
826.643	11947.62
826.895	12020.62
827.146	11967.62
827.397	11958.62
827.649	11922.62
827.9	11890.62
828.151	11862.62
828.402	11956.62
828.653	12000.62
828.905	11981.62
829.156	12028.62
829.407	11990.62
829.658	12039.62
829.909	12000.62
830.159	11942.62
830.41	11907.62
830.661	11821.62
830.912	11723.62
831.162	11738.62
831.413	11672.62
831.664	11717.62
831.914	11695.62
832.165	11736.62
832.415	11713.62
832.666	11683.62
832.916	11715.62
833.167	11704.62
833.417	11706.62
833.667	11594.62
833.917	11591.62
834.168	11666.62
834.418	11583.62
834.668	11509.62
834.918	11474.62
835.168	11491.62
835.418	11404.62
835.668	11413.62
835.918	11351.62
836.167	11381.62
836.417	11279.62
836.667	11330.62
836.917	11303.62
837.166	11215.62
837.416	11318.62
837.666	11257.62
837.915	11202.62
838.165	11233.62
838.414	11152.62
838.663	11015.62
838.913	11110.62
839.162	10991.62
839.411	11017.62
839.661	10933.62
839.91	10911.62
840.159	10862.62
840.408	10961.62
840.657	10949.62
840.906	10978.62
841.155	10967.62
841.404	10873.62
841.653	10919.62
841.902	10885.62
842.15	10921.62
842.399	10914.62
842.648	10865.62
842.897	10925.62
843.145	10724.62
843.394	10763.62
843.642	10743.62
843.891	10729.62
844.139	10609.62
844.388	10491.62
844.636	10442.62
844.884	10461.62
845.133	10469.62
845.381	10429.62
845.629	10587.62
845.877	10504.62
846.125	10435.62
846.373	10412.62
846.621	10383.62
846.869	10399.62
847.117	10306.62
847.365	10146.62
847.613	10200.62
847.861	10206.62
848.108	10210.62
848.356	10138.62
848.604	10054.62
848.851	10115.62
849.099	10124.62
849.346	10160.62
849.594	10209.62
849.841	10158.62
850.089	10244.62
850.336	10236.62
850.583	10176.62
850.831	10249.62
851.078	10130.62
851.325	10074.62
851.572	10128.62
851.819	10064.62
852.066	9800.62
852.313	9686.62
852.56	9672.62
852.807	9579.62
853.054	9583.62
853.301	9550.62
853.548	9599.62
853.794	9694.62
854.041	9691.62
854.288	9781.62
854.534	9925.62
854.781	9847.62
855.028	9698.62
855.274	9793.62
855.52	9712.62
855.767	9554.62
856.013	9621.62
856.26	9776.62
856.506	9457.62
856.752	9587.62
856.998	9426.62
857.244	9483.62
857.49	9516.62
857.736	9531.62
857.982	9540.62
858.228	9558.62
858.474	9411.62
858.72	9511.62
858.966	9354.62
859.212	9317.62
859.458	9226.62
859.703	9093.62
859.949	8987.62
860.195	9014.62
860.44	8954.62
860.686	8814.62
860.931	8884.62
861.177	8785.62
861.422	8897.62
861.667	8694.62
861.913	8736.62
862.158	8747.62
862.403	8799.62
862.648	8837.62
862.893	8897.62
863.138	8778.62
863.384	8819.62
863.629	8846.62
863.873	8839.62
864.118	8766.62
864.363	8635.62
864.608	8682.62
864.853	8697.62
865.098	8553.62
865.342	8567.62
865.587	8530.62
865.832	8562.62
866.076	8551.62
866.321	8396.62
866.565	8453.62
866.81	8373.62
867.054	8396.62
867.298	8396.62
867.543	8397.62
867.787	8341.62
868.031	8280.62
868.275	8289.62
868.519	8267.62
868.764	8301.62
869.008	8300.62
869.252	8251.62
869.496	8226.62
869.739	8141.62
869.983	8179.62
870.227	8130.62
870.471	8124.62
870.715	8192.62
870.958	8200.62
871.202	8170.62
871.446	8107.62
871.689	8097.62
871.933	8068.62
872.176	8145.62
872.42	8142.62
872.663	8138.62
872.906	8108.62
873.15	8077.62
873.393	7991.62
873.636	7978.62
873.879	7936.62
874.122	7916.62
874.366	7738.62
874.609	7693.62
874.852	7689.62
875.095	7672.62
875.337	7600.62
875.58	7461.62
875.823	7579.62
876.066	7531.62
876.309	7566.62
876.551	7443.62
876.794	7460.62
877.037	7507.62
877.279	7349.62
877.522	7423.62
877.764	7404.62
878.007	7374.62
878.249	7395.62
878.491	7384.62
878.734	7458.62
878.976	7352.62
879.218	7289.62
879.46	7351.62
879.702	7291.62
879.945	7185.62
880.187	7085.62
880.429	7117.62
880.671	7006.62
880.912	7083.62
881.154	7023.62
881.396	6925.62
881.638	6958.62
881.88	6988.62
882.121	6960.62
882.363	6967.62
882.605	6947.62
882.846	6950.62
883.088	6837.62
883.329	6856.62
883.571	6805.62
883.812	6843.62
884.053	6975.62
884.295	7058.62
884.536	7190.62
884.777	7044.62
885.018	7023.62
885.259	7065.62
885.5	6929.62
885.742	7213.62
885.982	6946.62
886.223	6859.62
886.464	6767.62
886.705	6762.62
886.946	6762.62
887.187	6653.62
887.428	6625.62
887.668	6542.62
887.909	6486.62
888.15	6451.62
888.39	6393.62
888.631	6434.62
888.871	6294.62
889.111	6281.62
889.352	6273.62
889.592	6163.62
889.833	6178.62
890.073	6079.62
890.313	6149.62
890.553	6007.62
890.793	6021.62
891.033	5943.62
891.273	5941.62
891.513	5950.62
891.753	5969.62
891.993	5880.62
892.233	5952.62
892.473	6033.62
892.713	5991.62
892.952	5913.62
893.192	5965.62
893.432	5893.62
893.671	5918.62
893.911	5839.62
894.15	5798.62
894.39	5748.62
894.629	5696.62
894.869	5736.62
895.108	5696.62
895.347	5664.62
895.587	5639.62
895.826	5629.62
896.065	5609.62
896.304	5632.62
896.543	5638.62
896.782	5552.62
897.021	5543.62
897.26	5496.62
897.499	5569.62
897.738	5552.62
897.977	5453.62
898.216	5426.62
898.454	5359.62
898.693	5297.62
898.932	5327.62
899.17	5288.62
899.409	5256.62
899.647	5220.62
899.886	5260.62
900.124	5306.62
900.363	5210.62
900.601	5273.62
900.839	5247.62
901.078	5313.62
901.316	5236.62
901.554	5247.62
901.792	5285.62
902.03	5215.62
902.268	5231.62
902.506	5271.62
902.744	5204.62
902.982	5183.62
903.22	5105.62
903.458	5096.62
903.695	5054.62
903.933	5070.62
904.171	4869.62
904.409	4849.62
904.646	4860.62
904.884	4736.62
905.121	4768.62
905.359	4718.62
905.596	4724.62
905.833	4609.62
906.071	4572.62
906.308	4654.62
906.545	4575.62
906.783	4548.62
907.02	4538.62
907.257	4517.62
907.494	4499.62
907.731	4545.62
907.968	4518.62
908.205	4437.62
908.442	4398.62
908.679	4438.62
908.915	4398.62
909.152	4374.62
909.389	4243.62
909.626	4301.62
909.862	4234.62
910.099	4253.62
910.335	4309.62
910.572	4156.62
910.808	4226.62
911.045	4149.62
911.281	4153.62
911.518	4210.62
911.754	4121.62
911.99	4137.62
912.226	4083.62
912.463	4028.62
912.699	4022.62
912.935	4022.62
913.171	4012.62
913.407	3926.62
913.643	3944.62
913.879	3893.62
914.114	3849.62
914.35	3823.62
914.586	3777.62
914.822	3768.62
915.057	3830.62
915.293	3673.62
915.529	3676.62
915.764	3766.62
916	3731.62
916.235	3701.62
916.471	3709.62
916.706	3610.62
916.941	3615.62
917.177	3653.62
917.412	3668.62
917.647	3649.62
917.882	3593.62
918.117	3676.62
918.352	3654.62
918.588	3628.62
918.823	3551.62
919.057	3568.62
919.292	3434.62
919.527	3556.62
919.762	3441.62
919.997	3505.62
920.232	3375.62
920.466	3422.62
920.701	3242.62
920.935	3271.62
921.17	3296.62
921.405	3248.62
921.639	3283.62
921.873	3248.62
922.108	3278.62
922.342	3254.62
922.576	3226.62
922.811	3189.62
923.045	3248.62
923.279	3239.62
923.513	3126.62
923.747	3198.62
923.981	3117.62
924.215	3109.62
924.449	3103.62
924.683	3026.62
924.917	3036.62
925.151	3035.62
925.385	3091.62
925.618	3077.62
925.852	2996.62
926.086	2984.62
926.319	3000.62
926.553	3005.62
926.786	3018.62
927.02	2998.62
927.253	3058.62
927.486	3008.62
927.72	2940.62
927.953	2977.62
928.186	2967.62
928.42	2989.62
928.653	2940.62
928.886	2909.62
929.119	2933.62
929.352	2910.62
929.585	2934.62
929.818	2864.62
930.051	2870.62
930.284	2879.62
930.516	2767.62
930.749	2763.62
930.982	2819.62
931.215	2824.62
931.447	2724.62
931.68	2768.62
931.912	2710.62
932.145	2711.62
932.377	2742.62
932.61	2810.62
932.842	2678.62
933.074	2739.62
933.307	2697.62
933.539	2778.62
933.771	2763.62
934.003	2718.62
934.236	2789.62
934.468	2820.62
934.7	2695.62
934.932	2712.62
935.164	2666.62
935.395	2687.62
935.627	2681.62
935.859	2671.62
936.091	2605.62
936.323	2650.62
936.554	2672.62
936.786	2632.62
937.017	2569.62
937.249	2642.62
937.481	2520.62
937.712	2632.62
937.943	2598.62
938.175	2606.62
938.406	2549.62
938.637	2613.62
938.869	2521.62
939.1	2583.62
939.331	2553.62
939.562	2582.62
939.793	2620.62
940.024	2587.62
940.255	2590.62
940.486	2537.62
940.717	2524.62
940.948	2519.62
941.179	2471.62
941.409	2452.62
941.64	2473.62
941.871	2490.62
942.102	2445.62
942.332	2470.62
942.563	2531.62
942.793	2486.62
943.024	2390.62
943.254	2431.62
943.484	2491.62
943.715	2495.62
943.945	2450.62
944.175	2394.62
944.405	2397.62
944.636	2395.62
944.866	2452.62
945.096	2455.62
945.326	2366.62
945.556	2440.62
945.786	2456.62
946.016	2408.62
946.245	2346.62
946.475	2361.62
946.705	2358.62
946.935	2316.62
947.164	2369.62
947.394	2296.62
947.624	2305.62
947.853	2345.62
948.083	2329.62
948.312	2260.62
948.542	2233.62
948.771	2224.62
949	2232.62
949.23	2232.62
949.459	2284.62
949.688	2324.62
949.917	2233.62
950.146	2261.62
950.375	2273.62
950.604	2191.62
950.833	2301.62
951.062	2302.62
951.291	2230.62
951.52	2214.62
951.749	2250.62
951.978	2185.62
952.206	2185.62
952.435	2188.62
952.664	2223.62
952.892	2232.62
953.121	2190.62
953.349	2247.62
953.578	2203.62
953.806	2162.62
954.035	2117.62
954.263	2127.62
954.491	2107.62
954.719	2181.62
954.948	2087.62
955.176	2078.62
955.404	2054.62
955.632	2093.62
955.86	2087.62
956.088	2069.62
956.316	2101.62
956.544	2130.62
956.772	2051.62
956.999	2059.62
957.227	2111.62
957.455	2007.62
957.683	2015.62
957.91	2019.62
958.138	1956.62
958.365	1993.62
958.593	1956.62
958.82	1912.62
959.048	1997.62
959.275	1966.62
959.502	1937.62
959.73	1914.62
959.957	1953.62
960.184	1981.62
960.411	1947.62
960.638	2001.62
960.865	1926.62
961.092	1977.62
961.319	1883.62
961.546	1967.62
961.773	1965.62
962	1917.62
962.227	1997.62
962.454	1948.62
962.68	1914.62
962.907	1931.62
963.134	1894.62
963.36	1895.62
963.587	1910.62
963.813	1868.62
964.04	1892.62
964.266	1844.62
964.493	1925.62
964.719	1897.62
964.945	1887.62
965.171	1813.62
965.398	1846.62
965.624	1854.62
965.85	1803.62
966.076	1777.62
966.302	1814.62
966.528	1826.62
966.754	1810.62
966.98	1811.62
967.206	1807.62
967.431	1766.62
967.657	1807.62
967.883	1781.62
968.109	1823.62
968.334	1745.62
968.56	1741.62
968.785	1759.62
969.011	1710.62
969.236	1760.62
969.462	1710.62
969.687	1740.62
969.912	1770.62
970.138	1756.62
970.363	1704.62
970.588	1713.62
970.813	1705.62
971.038	1645.62
971.263	1717.62
971.488	1739.62
971.713	1733.62
971.938	1754.62
972.163	1625.62
972.388	1676.62
972.613	1634.62
972.838	1654.62
973.062	1656.62
973.287	1644.62
973.512	1594.62
973.736	1652.62
973.961	1608.62
974.185	1601.62
974.41	1635.62
974.634	1521.62
974.858	1545.62
975.083	1577.62
975.307	1641.62
975.531	1551.62
975.755	1538.62
975.98	1524.62
976.204	1491.62
976.428	1474.62
976.652	1492.62
976.876	1470.62
977.1	1525.62
977.324	1459.62
977.547	1535.62
977.771	1528.62
977.995	1529.62
978.219	1409.62
978.442	1545.62
978.666	1486.62
978.89	1473.62
979.113	1470.62
979.337	1472.62
979.56	1427.62
979.783	1569.62
980.007	1413.62
980.23	1447.62
980.453	1417.62
980.677	1476.62
980.9	1454.62
981.123	1366.62
981.346	1447.62
981.569	1443.62
981.792	1460.62
982.015	1424.62
982.238	1386.62
982.461	1391.62
982.684	1411.62
982.907	1366.62
983.129	1374.62
983.352	1390.62
983.575	1383.62
983.797	1396.62
984.02	1332.62
984.242	1350.62
984.465	1348.62
984.687	1367.62
984.91	1386.62
985.132	1370.62
985.354	1395.62
985.577	1366.62
985.799	1346.62
986.021	1295.62
986.243	1304.62
986.465	1305.62
986.687	1385.62
986.909	1415.62
987.131	1358.62
987.353	1298.62
987.575	1334.62
987.797	1292.62
988.019	1258.62
988.241	1281.62
988.462	1253.62
988.684	1344.62
988.906	1361.62
989.127	1383.62
989.349	1261.62
989.57	1304.62
989.792	1316.62
990.013	1344.62
990.234	1338.62
990.456	1367.62
990.677	1338.62
990.898	1274.62
991.119	1279.62
991.341	1315.62
991.562	1232.62
991.783	1301.62
992.004	1232.62
992.225	1230.62
992.446	1280.62
992.667	1198.62
992.887	1283.62
993.108	1192.62
993.329	1303.62
993.55	1237.62
993.77	1190.62
993.991	1202.62
994.212	1228.62
994.432	1247.62
994.653	1238.62
994.873	1242.62
995.093	1130.62
995.314	1169.62
995.534	1264.62
995.754	1235.62
995.975	1266.62
996.195	1167.62
996.415	1232.62
996.635	1222.62
996.855	1197.62
997.075	1166.62
997.295	1184.62
997.515	1162.62
997.735	1210.62
997.955	1181.62
998.174	1194.62
998.394	1174.62
998.614	1192.62
998.834	1158.62
999.053	1203.62
999.273	1186.62
999.492	1261.62
999.712	1200.62
999.931	1140.62
1000.151	1182.62
1000.37	1161.62
1000.589	1226.62
1000.809	1159.62
1001.028	1272.62
1001.247	1199.62
1001.466	1119.62
1001.685	1261.62
1001.904	1185.62
1002.123	1200.62
1002.342	1196.62
1002.561	1160.62
1002.78	1177.62
1002.999	1237.62
1003.218	1159.62
1003.436	1146.62
1003.655	1214.62
1003.874	1143.62
1004.092	1174.62
1004.311	1219.62
1004.53	1175.62
1004.748	1247.62
1004.966	1169.62
1005.185	1207.62
1005.403	1216.62
1005.622	1182.62
1005.84	1275.62
1006.058	1153.62
1006.276	1184.62
1006.494	1668.62
1006.712	1194.62
1006.931	1248.62
1007.149	1150.62
1007.367	1148.62
1007.584	1165.62
1007.802	1196.62
1008.02	1158.62
1008.238	1251.62
1008.456	1214.62
1008.673	1101.62
1008.891	1188.62
1009.109	1155.62
1009.326	1197.62
1009.544	1263.62
1009.761	1169.62
1009.979	1267.62
1010.196	1195.62
1010.413	1300.62
1010.631	1304.62
1010.848	1345.62
1011.065	1326.62
1011.282	1250.62
1011.5	1212.62
1011.717	1303.62
1011.934	1269.62
1012.151	1298.62
1012.368	1267.62
1012.585	1227.62
1012.801	1278.62
1013.018	1239.62
1013.235	1194.62
1013.452	1242.62
1013.669	1231.62
1013.885	1226.62
1014.102	1248.62
1014.318	1195.62
1014.535	1172.62
1014.751	1202.62
1014.968	1209.62
1015.184	1245.62
1015.401	1154.62
1015.617	1189.62
1015.833	1138.62
1016.049	1169.62
1016.266	1116.62
1016.482	1147.62
1016.698	1092.62
1016.914	1128.62
1017.13	1076.62
1017.346	1068.62
1017.562	1144.62
1017.778	1097.62
1017.993	1050.62
1018.209	1092.62
1018.425	1084.62
1018.641	1052.62
1018.856	1027.62
1019.072	1029.62
1019.288	1093.62
1019.503	1066.62
1019.719	955.62
1019.934	955.62
1020.149	1051.62
1020.365	991.62
1020.58	961.62
1020.795	1044.62
1021.011	960.62
1021.226	951.62
1021.441	986.62
1021.656	906.62
1021.871	869.62
1022.086	872.62
1022.301	869.62
1022.516	857.62
1022.731	931.62
1022.946	837.62
1023.16	840.62
1023.375	797.62
1023.59	807.62
1023.804	762.62
1024.019	861.62
1024.234	758.62
1024.448	803.62
1024.663	728.62
1024.877	744.62
1025.092	789.62
1025.306	763.62
1025.52	694.62
1025.734	772.62
1025.949	694.62
1026.163	663.62
1026.377	632.62
1026.591	678.62
1026.805	632.62
1027.019	630.62
1027.233	598.62
1027.447	545.62
1027.661	654.62
1027.875	581.62
1028.088	602.62
1028.302	543.62
1028.516	539.62
1028.73	542.62
1028.943	540.62
1029.157	493.62
1029.37	477.62
1029.584	-2.38
1029.797	-2.38
1030.011	-1.38
1030.224	-1.38
