Data from QEP037381__66__10-06-39-928.txt Node

Date: Wed Dec 21 10:06:39 EST 2022
User: dcclab
Spectrometer: QEP03738
Trigger mode: 4
Integration Time (sec): 1.000000E1
Scans to average: 1
Electric dark correction enabled: true
Nonlinearity correction enabled: false
Boxcar width: 0
XAxis mode: Wavelengths
Number of Pixels in Spectrum: 1044
>>>>>Begin Spectral Data<<<<<
784.041	12.12
784.3	2.12
784.558	-4.88
784.817	-0.88
785.075	114934.12
785.334	19729.12
785.592	9183.12
785.851	6238.12
786.109	4727.12
786.368	3663.12
786.626	2928.12
786.884	2398.12
787.143	2014.12
787.401	1680.12
787.659	1468.12
787.917	1257.12
788.175	1126.12
788.433	999.12
788.691	885.12
788.949	828.12
789.207	799.12
789.465	679.12
789.723	645.12
789.98	578.12
790.238	641.12
790.496	573.12
790.753	561.12
791.011	610.12
791.268	532.12
791.526	520.12
791.783	524.12
792.041	512.12
792.298	430.12
792.556	483.12
792.813	466.12
793.07	441.12
793.327	440.12
793.584	507.12
793.841	432.12
794.099	439.12
794.356	511.12
794.613	397.12
794.869	426.12
795.126	408.12
795.383	389.12
795.64	401.12
795.897	361.12
796.153	428.12
796.41	403.12
796.667	389.12
796.923	390.12
797.18	387.12
797.436	416.12
797.693	376.12
797.949	435.12
798.206	457.12
798.462	361.12
798.718	414.12
798.974	392.12
799.231	445.12
799.487	427.12
799.743	425.12
799.999	442.12
800.255	440.12
800.511	401.12
800.767	440.12
801.023	424.12
801.279	443.12
801.534	446.12
801.79	479.12
802.046	477.12
802.302	572.12
802.557	579.12
802.813	680.12
803.068	732.12
803.324	957.12
803.579	1190.12
803.835	1572.12
804.09	2120.12
804.345	2676.12
804.601	3330.12
804.856	3971.12
805.111	4620.12
805.366	5080.12
805.621	5376.12
805.876	5610.12
806.131	5761.12
806.386	5802.12
806.641	5889.12
806.896	5945.12
807.151	6115.12
807.406	6122.12
807.661	6177.12
807.915	6366.12
808.17	6460.12
808.425	6437.12
808.679	6424.12
808.934	6582.12
809.188	6613.12
809.443	6631.12
809.697	6749.12
809.951	6700.12
810.206	6770.12
810.46	6883.12
810.714	6923.12
810.968	6977.12
811.223	6946.12
811.477	7054.12
811.731	7074.12
811.985	7024.12
812.239	7066.12
812.493	7115.12
812.747	7197.12
813	7148.12
813.254	7127.12
813.508	7261.12
813.762	7201.12
814.015	7215.12
814.269	7322.12
814.522	7418.12
814.776	7402.12
815.03	7543.12
815.283	7594.12
815.536	7754.12
815.79	7752.12
816.043	7925.12
816.296	8040.12
816.55	8042.12
816.803	8111.12
817.056	8324.12
817.309	8206.12
817.562	8367.12
817.815	8471.12
818.068	8449.12
818.321	8500.12
818.574	8582.12
818.827	8725.12
819.079	8800.12
819.332	9020.12
819.585	9064.12
819.838	9188.12
820.09	9210.12
820.343	9280.12
820.595	9316.12
820.848	9343.12
821.1	9425.12
821.353	9342.12
821.605	9344.12
821.857	9413.12
822.11	9294.12
822.362	9231.12
822.614	9300.12
822.866	9342.12
823.118	9351.12
823.37	9393.12
823.622	9464.12
823.874	9437.12
824.126	9497.12
824.378	9387.12
824.63	9497.12
824.882	9559.12
825.134	9428.12
825.385	9424.12
825.637	9329.12
825.888	9374.12
826.14	9412.12
826.392	9339.12
826.643	9159.12
826.895	9321.12
827.146	9132.12
827.397	9097.12
827.649	9207.12
827.9	9151.12
828.151	9139.12
828.402	9186.12
828.653	9185.12
828.905	9179.12
829.156	9259.12
829.407	9221.12
829.658	9182.12
829.909	9256.12
830.159	9246.12
830.41	9127.12
830.661	9139.12
830.912	9095.12
831.162	9057.12
831.413	9065.12
831.664	9109.12
831.914	9024.12
832.165	9019.12
832.415	9031.12
832.666	9078.12
832.916	9098.12
833.167	9010.12
833.417	9094.12
833.667	9050.12
833.917	8953.12
834.168	8937.12
834.418	8962.12
834.668	8872.12
834.918	8873.12
835.168	8897.12
835.418	8810.12
835.668	8755.12
835.918	8843.12
836.167	8803.12
836.417	8774.12
836.667	8762.12
836.917	8767.12
837.166	8647.12
837.416	8763.12
837.666	8740.12
837.915	8654.12
838.165	8638.12
838.414	8562.12
838.663	8561.12
838.913	8672.12
839.162	8508.12
839.411	8618.12
839.661	8463.12
839.91	8470.12
840.159	8499.12
840.408	8516.12
840.657	8448.12
840.906	8526.12
841.155	8544.12
841.404	8583.12
841.653	8465.12
841.902	8472.12
842.15	8467.12
842.399	8525.12
842.648	8506.12
842.897	8443.12
843.145	8358.12
843.394	8361.12
843.642	8335.12
843.891	8320.12
844.139	8185.12
844.388	8216.12
844.636	8099.12
844.884	8158.12
845.133	8112.12
845.381	8116.12
845.629	8187.12
845.877	8134.12
846.125	8152.12
846.373	8110.12
846.621	8014.12
846.869	8032.12
847.117	7971.12
847.365	7920.12
847.613	7997.12
847.861	7935.12
848.108	7953.12
848.356	7882.12
848.604	7819.12
848.851	7904.12
849.099	7887.12
849.346	7973.12
849.594	8009.12
849.841	8015.12
850.089	7994.12
850.336	7977.12
850.583	8073.12
850.831	7996.12
851.078	7947.12
851.325	7886.12
851.572	7882.12
851.819	7829.12
852.066	7750.12
852.313	7620.12
852.56	7456.12
852.807	7548.12
853.054	7496.12
853.301	7475.12
853.548	7509.12
853.794	7628.12
854.041	7610.12
854.288	7633.12
854.534	7738.12
854.781	7657.12
855.028	7599.12
855.274	7669.12
855.52	7551.12
855.767	7493.12
856.013	7579.12
856.26	7787.12
856.506	7432.12
856.752	7488.12
856.998	7395.12
857.244	7450.12
857.49	7507.12
857.736	7491.12
857.982	7558.12
858.228	7489.12
858.474	7361.12
858.72	7432.12
858.966	7345.12
859.212	7303.12
859.458	7162.12
859.703	7141.12
859.949	7020.12
860.195	7098.12
860.44	7001.12
860.686	7002.12
860.931	6995.12
861.177	6879.12
861.422	6889.12
861.667	6875.12
861.913	6890.12
862.158	6915.12
862.403	6951.12
862.648	6919.12
862.893	6902.12
863.138	6903.12
863.384	6845.12
863.629	6877.12
863.873	6847.12
864.118	6830.12
864.363	6782.12
864.608	6817.12
864.853	6830.12
865.098	6697.12
865.342	6663.12
865.587	6680.12
865.832	6694.12
866.076	6674.12
866.321	6660.12
866.565	6654.12
866.81	6566.12
867.054	6553.12
867.298	6576.12
867.543	6509.12
867.787	6568.12
868.031	6563.12
868.275	6528.12
868.519	6464.12
868.764	6485.12
869.008	6420.12
869.252	6485.12
869.496	6405.12
869.739	6376.12
869.983	6465.12
870.227	6469.12
870.471	6356.12
870.715	6478.12
870.958	6477.12
871.202	6484.12
871.446	6476.12
871.689	6454.12
871.933	6499.12
872.176	6466.12
872.42	6445.12
872.663	6441.12
872.906	6469.12
873.15	6403.12
873.393	6348.12
873.636	6452.12
873.879	6362.12
874.122	6327.12
874.366	6240.12
874.609	6206.12
874.852	6094.12
875.095	6074.12
875.337	6008.12
875.58	5963.12
875.823	5969.12
876.066	5980.12
876.309	6001.12
876.551	5887.12
876.794	5872.12
877.037	5896.12
877.279	5820.12
877.522	5863.12
877.764	5952.12
878.007	5836.12
878.249	5849.12
878.491	5770.12
878.734	5879.12
878.976	5860.12
879.218	5733.12
879.46	5794.12
879.702	5747.12
879.945	5646.12
880.187	5580.12
880.429	5584.12
880.671	5611.12
880.912	5537.12
881.154	5530.12
881.396	5394.12
881.638	5482.12
881.88	5528.12
882.121	5429.12
882.363	5459.12
882.605	5554.12
882.846	5476.12
883.088	5482.12
883.329	5449.12
883.571	5459.12
883.812	5466.12
884.053	5577.12
884.295	5697.12
884.536	5864.12
884.777	5771.12
885.018	5769.12
885.259	5752.12
885.5	5654.12
885.742	5908.12
885.982	5650.12
886.223	5533.12
886.464	5476.12
886.705	5458.12
886.946	5360.12
887.187	5276.12
887.428	5261.12
887.668	5174.12
887.909	5113.12
888.15	5046.12
888.39	5042.12
888.631	5082.12
888.871	4995.12
889.111	4963.12
889.352	4911.12
889.592	4891.12
889.833	4840.12
890.073	4800.12
890.313	4864.12
890.553	4693.12
890.793	4693.12
891.033	4666.12
891.273	4661.12
891.513	4703.12
891.753	4734.12
891.993	4641.12
892.233	4702.12
892.473	4784.12
892.713	4734.12
892.952	4644.12
893.192	4697.12
893.432	4643.12
893.671	4700.12
893.911	4616.12
894.15	4645.12
894.39	4509.12
894.629	4541.12
894.869	4575.12
895.108	4456.12
895.347	4438.12
895.587	4448.12
895.826	4435.12
896.065	4402.12
896.304	4457.12
896.543	4481.12
896.782	4335.12
897.021	4398.12
897.26	4385.12
897.499	4380.12
897.738	4382.12
897.977	4346.12
898.216	4310.12
898.454	4251.12
898.693	4207.12
898.932	4279.12
899.17	4207.12
899.409	4227.12
899.647	4183.12
899.886	4156.12
900.124	4190.12
900.363	4179.12
900.601	4184.12
900.839	4201.12
901.078	4191.12
901.316	4181.12
901.554	4236.12
901.792	4257.12
902.03	4182.12
902.268	4230.12
902.506	4202.12
902.744	4169.12
902.982	4219.12
903.22	4088.12
903.458	4038.12
903.695	4053.12
903.933	4024.12
904.171	3901.12
904.409	3874.12
904.646	3863.12
904.884	3778.12
905.121	3827.12
905.359	3715.12
905.596	3700.12
905.833	3687.12
906.071	3627.12
906.308	3723.12
906.545	3677.12
906.783	3586.12
907.02	3643.12
907.257	3570.12
907.494	3608.12
907.731	3603.12
907.968	3604.12
908.205	3544.12
908.442	3499.12
908.679	3533.12
908.915	3488.12
909.152	3450.12
909.389	3366.12
909.626	3369.12
909.862	3373.12
910.099	3395.12
910.335	3389.12
910.572	3292.12
910.808	3334.12
911.045	3334.12
911.281	3324.12
911.518	3364.12
911.754	3271.12
911.99	3295.12
912.226	3245.12
912.463	3233.12
912.699	3204.12
912.935	3159.12
913.171	3180.12
913.407	3118.12
913.643	3167.12
913.879	3149.12
914.114	3081.12
914.35	3070.12
914.586	3039.12
914.822	2988.12
915.057	3102.12
915.293	2923.12
915.529	2939.12
915.764	3016.12
916	2991.12
916.235	2979.12
916.471	2955.12
916.706	2885.12
916.941	2903.12
917.177	2911.12
917.412	2961.12
917.647	2927.12
917.882	2871.12
918.117	2936.12
918.352	2897.12
918.588	2958.12
918.823	2835.12
919.057	2821.12
919.292	2739.12
919.527	2831.12
919.762	2768.12
919.997	2812.12
920.232	2737.12
920.466	2753.12
920.701	2650.12
920.935	2675.12
921.17	2632.12
921.405	2609.12
921.639	2620.12
921.873	2575.12
922.108	2648.12
922.342	2612.12
922.576	2570.12
922.811	2581.12
923.045	2611.12
923.279	2674.12
923.513	2469.12
923.747	2593.12
923.981	2535.12
924.215	2484.12
924.449	2519.12
924.683	2461.12
924.917	2473.12
925.151	2447.12
925.385	2510.12
925.618	2494.12
925.852	2472.12
926.086	2414.12
926.319	2446.12
926.553	2434.12
926.786	2451.12
927.02	2443.12
927.253	2494.12
927.486	2437.12
927.72	2368.12
927.953	2458.12
928.186	2384.12
928.42	2440.12
928.653	2344.12
928.886	2344.12
929.119	2386.12
929.352	2370.12
929.585	2352.12
929.818	2292.12
930.051	2312.12
930.284	2328.12
930.516	2227.12
930.749	2253.12
930.982	2279.12
931.215	2260.12
931.447	2190.12
931.68	2247.12
931.912	2198.12
932.145	2209.12
932.377	2218.12
932.61	2338.12
932.842	2143.12
933.074	2188.12
933.307	2154.12
933.539	2268.12
933.771	2266.12
934.003	2203.12
934.236	2263.12
934.468	2261.12
934.7	2197.12
934.932	2258.12
935.164	2169.12
935.395	2158.12
935.627	2194.12
935.859	2161.12
936.091	2152.12
936.323	2181.12
936.554	2194.12
936.786	2135.12
937.017	2100.12
937.249	2127.12
937.481	2055.12
937.712	2155.12
937.943	2079.12
938.175	2105.12
938.406	2106.12
938.637	2158.12
938.869	2092.12
939.1	2140.12
939.331	2089.12
939.562	2108.12
939.793	2075.12
940.024	2125.12
940.255	2135.12
940.486	2058.12
940.717	2043.12
940.948	2088.12
941.179	2004.12
941.409	2024.12
941.64	2032.12
941.871	2048.12
942.102	2033.12
942.332	2026.12
942.563	2070.12
942.793	2016.12
943.024	1959.12
943.254	2003.12
943.484	2076.12
943.715	2049.12
943.945	2016.12
944.175	1927.12
944.405	1948.12
944.636	1958.12
944.866	1981.12
945.096	2023.12
945.326	1961.12
945.556	1991.12
945.786	2023.12
946.016	1953.12
946.245	1907.12
946.475	1935.12
946.705	1912.12
946.935	1893.12
947.164	1941.12
947.394	1895.12
947.624	1891.12
947.853	1944.12
948.083	1922.12
948.312	1863.12
948.542	1829.12
948.771	1798.12
949	1833.12
949.23	1885.12
949.459	1832.12
949.688	1927.12
949.917	1852.12
950.146	1891.12
950.375	1925.12
950.604	1805.12
950.833	1906.12
951.062	1878.12
951.291	1854.12
951.52	1820.12
951.749	1830.12
951.978	1776.12
952.206	1811.12
952.435	1812.12
952.664	1854.12
952.892	1839.12
953.121	1825.12
953.349	1829.12
953.578	1820.12
953.806	1794.12
954.035	1761.12
954.263	1787.12
954.491	1712.12
954.719	1773.12
954.948	1770.12
955.176	1751.12
955.404	1653.12
955.632	1731.12
955.86	1775.12
956.088	1733.12
956.316	1757.12
956.544	1779.12
956.772	1714.12
956.999	1672.12
957.227	1779.12
957.455	1720.12
957.683	1687.12
957.91	1663.12
958.138	1648.12
958.365	1660.12
958.593	1633.12
958.82	1627.12
959.048	1671.12
959.275	1634.12
959.502	1637.12
959.73	1592.12
959.957	1654.12
960.184	1670.12
960.411	1628.12
960.638	1695.12
960.865	1637.12
961.092	1644.12
961.319	1555.12
961.546	1697.12
961.773	1640.12
962	1645.12
962.227	1666.12
962.454	1634.12
962.68	1628.12
962.907	1628.12
963.134	1571.12
963.36	1644.12
963.587	1631.12
963.813	1539.12
964.04	1615.12
964.266	1544.12
964.493	1634.12
964.719	1595.12
964.945	1592.12
965.171	1487.12
965.398	1565.12
965.624	1583.12
965.85	1512.12
966.076	1498.12
966.302	1555.12
966.528	1509.12
966.754	1566.12
966.98	1550.12
967.206	1523.12
967.431	1450.12
967.657	1565.12
967.883	1541.12
968.109	1542.12
968.334	1484.12
968.56	1478.12
968.785	1484.12
969.011	1453.12
969.236	1510.12
969.462	1438.12
969.687	1481.12
969.912	1503.12
970.138	1500.12
970.363	1458.12
970.588	1470.12
970.813	1440.12
971.038	1435.12
971.263	1454.12
971.488	1461.12
971.713	1498.12
971.938	1497.12
972.163	1392.12
972.388	1421.12
972.613	1380.12
972.838	1433.12
973.062	1387.12
973.287	1398.12
973.512	1357.12
973.736	1383.12
973.961	1387.12
974.185	1352.12
974.41	1414.12
974.634	1300.12
974.858	1310.12
975.083	1392.12
975.307	1408.12
975.531	1329.12
975.755	1304.12
975.98	1285.12
976.204	1244.12
976.428	1276.12
976.652	1286.12
976.876	1254.12
977.1	1286.12
977.324	1252.12
977.547	1294.12
977.771	1317.12
977.995	1279.12
978.219	1206.12
978.442	1348.12
978.666	1272.12
978.89	1286.12
979.113	1276.12
979.337	1273.12
979.56	1241.12
979.783	1309.12
980.007	1223.12
980.23	1269.12
980.453	1217.12
980.677	1249.12
980.9	1247.12
981.123	1189.12
981.346	1257.12
981.569	1250.12
981.792	1283.12
982.015	1231.12
982.238	1193.12
982.461	1229.12
982.684	1197.12
982.907	1194.12
983.129	1164.12
983.352	1230.12
983.575	1217.12
983.797	1194.12
984.02	1177.12
984.242	1174.12
984.465	1192.12
984.687	1224.12
984.91	1234.12
985.132	1196.12
985.354	1237.12
985.577	1199.12
985.799	1181.12
986.021	1107.12
986.243	1154.12
986.465	1160.12
986.687	1210.12
986.909	1254.12
987.131	1181.12
987.353	1150.12
987.575	1186.12
987.797	1141.12
988.019	1106.12
988.241	1154.12
988.462	1109.12
988.684	1173.12
988.906	1190.12
989.127	1207.12
989.349	1102.12
989.57	1117.12
989.792	1169.12
990.013	1184.12
990.234	1210.12
990.456	1237.12
990.677	1207.12
990.898	1145.12
991.119	1174.12
991.341	1185.12
991.562	1125.12
991.783	1152.12
992.004	1082.12
992.225	1085.12
992.446	1155.12
992.667	1053.12
992.887	1162.12
993.108	1045.12
993.329	1157.12
993.55	1123.12
993.77	1045.12
993.991	1073.12
994.212	1106.12
994.432	1094.12
994.653	1107.12
994.873	1098.12
995.093	989.12
995.314	1036.12
995.534	1151.12
995.754	1148.12
995.975	1150.12
996.195	1047.12
996.415	1103.12
996.635	1066.12
996.855	1099.12
997.075	1064.12
997.295	1069.12
997.515	1039.12
997.735	1099.12
997.955	1069.12
998.174	1044.12
998.394	1026.12
998.614	1085.12
998.834	1035.12
999.053	1112.12
999.273	1101.12
999.492	1151.12
999.712	1079.12
999.931	1034.12
1000.151	1085.12
1000.37	1060.12
1000.589	1132.12
1000.809	1042.12
1001.028	1173.12
1001.247	1109.12
1001.466	1000.12
1001.685	1163.12
1001.904	1091.12
1002.123	1077.12
1002.342	1071.12
1002.561	1059.12
1002.78	1072.12
1002.999	1136.12
1003.218	1066.12
1003.436	1063.12
1003.655	1099.12
1003.874	1058.12
1004.092	1067.12
1004.311	1130.12
1004.53	1069.12
1004.748	1152.12
1004.966	1062.12
1005.185	1138.12
1005.403	1110.12
1005.622	1116.12
1005.84	1182.12
1006.058	1060.12
1006.276	1103.12
1006.494	1586.12
1006.712	1110.12
1006.931	1164.12
1007.149	1052.12
1007.367	1079.12
1007.584	1110.12
1007.802	1144.12
1008.02	1104.12
1008.238	1147.12
1008.456	1157.12
1008.673	1042.12
1008.891	1133.12
1009.109	1094.12
1009.326	1141.12
1009.544	1221.12
1009.761	1101.12
1009.979	1204.12
1010.196	1198.12
1010.413	1247.12
1010.631	1321.12
1010.848	1298.12
1011.065	1339.12
1011.282	1253.12
1011.5	1181.12
1011.717	1316.12
1011.934	1246.12
1012.151	1290.12
1012.368	1294.12
1012.585	1237.12
1012.801	1248.12
1013.018	1218.12
1013.235	1180.12
1013.452	1218.12
1013.669	1229.12
1013.885	1195.12
1014.102	1246.12
1014.318	1194.12
1014.535	1175.12
1014.751	1179.12
1014.968	1178.12
1015.184	1233.12
1015.401	1162.12
1015.617	1191.12
1015.833	1122.12
1016.049	1134.12
1016.266	1114.12
1016.482	1128.12
1016.698	1077.12
1016.914	1127.12
1017.13	1047.12
1017.346	1104.12
1017.562	1122.12
1017.778	1081.12
1017.993	1020.12
1018.209	1100.12
1018.425	1056.12
1018.641	1028.12
1018.856	1017.12
1019.072	1030.12
1019.288	1091.12
1019.503	1031.12
1019.719	958.12
1019.934	973.12
1020.149	1068.12
1020.365	1008.12
1020.58	955.12
1020.795	1008.12
1021.011	964.12
1021.226	959.12
1021.441	978.12
1021.656	891.12
1021.871	850.12
1022.086	873.12
1022.301	871.12
1022.516	850.12
1022.731	907.12
1022.946	835.12
1023.16	803.12
1023.375	791.12
1023.59	770.12
1023.804	750.12
1024.019	864.12
1024.234	731.12
1024.448	782.12
1024.663	709.12
1024.877	721.12
1025.092	719.12
1025.306	780.12
1025.52	665.12
1025.734	742.12
1025.949	685.12
1026.163	667.12
1026.377	613.12
1026.591	658.12
1026.805	605.12
1027.019	594.12
1027.233	583.12
1027.447	516.12
1027.661	620.12
1027.875	587.12
1028.088	574.12
1028.302	511.12
1028.516	502.12
1028.73	519.12
1028.943	531.12
1029.157	483.12
1029.37	439.12
1029.584	-1.88
1029.797	-2.88
1030.011	-3.88
1030.224	0.12
