Data from QEP037381__76__10-08-19-933.txt Node

Date: Wed Dec 21 10:08:19 EST 2022
User: dcclab
Spectrometer: QEP03738
Trigger mode: 4
Integration Time (sec): 1.000000E1
Scans to average: 1
Electric dark correction enabled: true
Nonlinearity correction enabled: false
Boxcar width: 0
XAxis mode: Wavelengths
Number of Pixels in Spectrum: 1044
>>>>>Begin Spectral Data<<<<<
784.041	14.62
784.3	-0.38
784.558	-3.38
784.817	-4.38
785.075	117287.62
785.334	20397.62
785.592	9579.62
785.851	6527.62
786.109	4896.62
786.368	3808.62
786.626	3005.62
786.884	2520.62
787.143	2081.62
787.401	1706.62
787.659	1535.62
787.917	1308.62
788.175	1185.62
788.433	1042.62
788.691	914.62
788.949	837.62
789.207	784.62
789.465	701.62
789.723	653.62
789.98	616.62
790.238	628.62
790.496	591.62
790.753	584.62
791.011	612.62
791.268	545.62
791.526	514.62
791.783	539.62
792.041	521.62
792.298	431.62
792.556	490.62
792.813	471.62
793.07	452.62
793.327	443.62
793.584	510.62
793.841	435.62
794.099	456.62
794.356	522.62
794.613	421.62
794.869	447.62
795.126	413.62
795.383	379.62
795.64	405.62
795.897	378.62
796.153	425.62
796.41	396.62
796.667	378.62
796.923	398.62
797.18	386.62
797.436	415.62
797.693	370.62
797.949	437.62
798.206	470.62
798.462	365.62
798.718	422.62
798.974	397.62
799.231	439.62
799.487	409.62
799.743	433.62
799.999	449.62
800.255	434.62
800.511	428.62
800.767	451.62
801.023	425.62
801.279	457.62
801.534	474.62
801.79	492.62
802.046	489.62
802.302	584.62
802.557	609.62
802.813	682.62
803.068	753.62
803.324	981.62
803.579	1225.62
803.835	1643.62
804.09	2212.62
804.345	2836.62
804.601	3519.62
804.856	4318.62
805.111	4963.62
805.366	5370.62
805.621	5717.62
805.876	5977.62
806.131	6111.62
806.386	6146.62
806.641	6255.62
806.896	6347.62
807.151	6520.62
807.406	6427.62
807.661	6631.62
807.915	6681.62
808.17	6794.62
808.425	6816.62
808.679	6912.62
808.934	6981.62
809.188	6979.62
809.443	7043.62
809.697	7187.62
809.951	7148.62
810.206	7206.62
810.46	7249.62
810.714	7349.62
810.968	7459.62
811.223	7387.62
811.477	7452.62
811.731	7595.62
811.985	7557.62
812.239	7569.62
812.493	7541.62
812.747	7639.62
813	7591.62
813.254	7611.62
813.508	7737.62
813.762	7765.62
814.015	7723.62
814.269	7742.62
814.522	7865.62
814.776	7982.62
815.03	8060.62
815.283	8151.62
815.536	8294.62
815.79	8372.62
816.043	8492.62
816.296	8566.62
816.55	8691.62
816.803	8725.62
817.056	8853.62
817.309	8838.62
817.562	8898.62
817.815	9006.62
818.068	9061.62
818.321	9054.62
818.574	9215.62
818.827	9316.62
819.079	9402.62
819.332	9600.62
819.585	9629.62
819.838	9809.62
820.09	9822.62
820.343	9939.62
820.595	9970.62
820.848	10018.62
821.1	10015.62
821.353	10037.62
821.605	10103.62
821.857	10090.62
822.11	9936.62
822.362	10003.62
822.614	9886.62
822.866	9993.62
823.118	10038.62
823.37	10109.62
823.622	10094.62
823.874	10044.62
824.126	10198.62
824.378	10138.62
824.63	10189.62
824.882	10169.62
825.134	10162.62
825.385	10150.62
825.637	10126.62
825.888	10062.62
826.14	10024.62
826.392	10012.62
826.643	9820.62
826.895	9901.62
827.146	9885.62
827.397	9843.62
827.649	9862.62
827.9	9772.62
828.151	9793.62
828.402	9858.62
828.653	9900.62
828.905	9953.62
829.156	10003.62
829.407	9913.62
829.658	9908.62
829.909	9985.62
830.159	9907.62
830.41	9900.62
830.661	9804.62
830.912	9680.62
831.162	9678.62
831.413	9651.62
831.664	9681.62
831.914	9736.62
832.165	9655.62
832.415	9750.62
832.666	9700.62
832.916	9684.62
833.167	9708.62
833.417	9761.62
833.667	9577.62
833.917	9609.62
834.168	9661.62
834.418	9644.62
834.668	9522.62
834.918	9532.62
835.168	9527.62
835.418	9402.62
835.668	9486.62
835.918	9428.62
836.167	9405.62
836.417	9411.62
836.667	9358.62
836.917	9411.62
837.166	9280.62
837.416	9408.62
837.666	9359.62
837.915	9327.62
838.165	9285.62
838.414	9177.62
838.663	9136.62
838.913	9195.62
839.162	9138.62
839.411	9199.62
839.661	9070.62
839.91	9148.62
840.159	9153.62
840.408	9103.62
840.657	9086.62
840.906	9149.62
841.155	9154.62
841.404	9033.62
841.653	9056.62
841.902	9056.62
842.15	9133.62
842.399	9046.62
842.648	9073.62
842.897	9064.62
843.145	8991.62
843.394	8992.62
843.642	8858.62
843.891	8880.62
844.139	8860.62
844.388	8723.62
844.636	8775.62
844.884	8714.62
845.133	8673.62
845.381	8724.62
845.629	8796.62
845.877	8658.62
846.125	8635.62
846.373	8721.62
846.621	8626.62
846.869	8672.62
847.117	8555.62
847.365	8587.62
847.613	8526.62
847.861	8474.62
848.108	8493.62
848.356	8460.62
848.604	8479.62
848.851	8512.62
849.099	8466.62
849.346	8449.62
849.594	8589.62
849.841	8541.62
850.089	8525.62
850.336	8548.62
850.583	8567.62
850.831	8557.62
851.078	8454.62
851.325	8432.62
851.572	8477.62
851.819	8439.62
852.066	8258.62
852.313	8076.62
852.56	8136.62
852.807	8001.62
853.054	8011.62
853.301	7975.62
853.548	8001.62
853.794	8165.62
854.041	8126.62
854.288	8176.62
854.534	8354.62
854.781	8311.62
855.028	8145.62
855.274	8243.62
855.52	8188.62
855.767	8097.62
856.013	8102.62
856.26	8371.62
856.506	7955.62
856.752	8030.62
856.998	7988.62
857.244	8038.62
857.49	8031.62
857.736	8009.62
857.982	8058.62
858.228	8062.62
858.474	7958.62
858.72	7948.62
858.966	7854.62
859.212	7826.62
859.458	7724.62
859.703	7658.62
859.949	7570.62
860.195	7567.62
860.44	7549.62
860.686	7391.62
860.931	7466.62
861.177	7391.62
861.422	7414.62
861.667	7321.62
861.913	7322.62
862.158	7358.62
862.403	7406.62
862.648	7451.62
862.893	7474.62
863.138	7370.62
863.384	7352.62
863.629	7394.62
863.873	7377.62
864.118	7268.62
864.363	7215.62
864.608	7293.62
864.853	7284.62
865.098	7210.62
865.342	7165.62
865.587	7101.62
865.832	7128.62
866.076	7140.62
866.321	7047.62
866.565	7085.62
866.81	6986.62
867.054	7069.62
867.298	6981.62
867.543	7006.62
867.787	7032.62
868.031	7004.62
868.275	6974.62
868.519	6944.62
868.764	6949.62
869.008	6889.62
869.252	6930.62
869.496	6912.62
869.739	6851.62
869.983	6890.62
870.227	6930.62
870.471	6860.62
870.715	6945.62
870.958	6969.62
871.202	6881.62
871.446	6974.62
871.689	6916.62
871.933	6921.62
872.176	6934.62
872.42	6848.62
872.663	6862.62
872.906	6938.62
873.15	6921.62
873.393	6798.62
873.636	6843.62
873.879	6746.62
874.122	6754.62
874.366	6599.62
874.609	6597.62
874.852	6512.62
875.095	6539.62
875.337	6458.62
875.58	6429.62
875.823	6402.62
876.066	6387.62
876.309	6410.62
876.551	6343.62
876.794	6295.62
877.037	6302.62
877.279	6235.62
877.522	6267.62
877.764	6281.62
878.007	6242.62
878.249	6319.62
878.491	6230.62
878.734	6268.62
878.976	6253.62
879.218	6154.62
879.46	6221.62
879.702	6143.62
879.945	6118.62
880.187	5965.62
880.429	6008.62
880.671	5903.62
880.912	5936.62
881.154	5913.62
881.396	5800.62
881.638	5899.62
881.88	5912.62
882.121	5772.62
882.363	5812.62
882.605	5863.62
882.846	5839.62
883.088	5823.62
883.329	5789.62
883.571	5803.62
883.812	5869.62
884.053	5960.62
884.295	6115.62
884.536	6204.62
884.777	6144.62
885.018	6120.62
885.259	6082.62
885.5	5987.62
885.742	6277.62
885.982	5974.62
886.223	5899.62
886.464	5876.62
886.705	5788.62
886.946	5793.62
887.187	5631.62
887.428	5701.62
887.668	5597.62
887.909	5441.62
888.15	5389.62
888.39	5397.62
888.631	5426.62
888.871	5332.62
889.111	5333.62
889.352	5265.62
889.592	5227.62
889.833	5194.62
890.073	5131.62
890.313	5169.62
890.553	5005.62
890.793	5027.62
891.033	5015.62
891.273	4954.62
891.513	5002.62
891.753	5010.62
891.993	4967.62
892.233	5008.62
892.473	5068.62
892.713	4994.62
892.952	4971.62
893.192	5004.62
893.432	4944.62
893.671	4970.62
893.911	4935.62
894.15	4894.62
894.39	4773.62
894.629	4855.62
894.869	4854.62
895.108	4850.62
895.347	4697.62
895.587	4767.62
895.826	4739.62
896.065	4694.62
896.304	4727.62
896.543	4737.62
896.782	4680.62
897.021	4709.62
897.26	4649.62
897.499	4689.62
897.738	4633.62
897.977	4681.62
898.216	4597.62
898.454	4536.62
898.693	4517.62
898.932	4529.62
899.17	4472.62
899.409	4495.62
899.647	4459.62
899.886	4465.62
900.124	4448.62
900.363	4410.62
900.601	4444.62
900.839	4472.62
901.078	4502.62
901.316	4478.62
901.554	4478.62
901.792	4519.62
902.03	4436.62
902.268	4508.62
902.506	4487.62
902.744	4435.62
902.982	4433.62
903.22	4359.62
903.458	4367.62
903.695	4292.62
903.933	4259.62
904.171	4158.62
904.409	4079.62
904.646	4126.62
904.884	4002.62
905.121	4060.62
905.359	3980.62
905.596	3952.62
905.833	3933.62
906.071	3886.62
906.308	3936.62
906.545	3887.62
906.783	3845.62
907.02	3843.62
907.257	3792.62
907.494	3818.62
907.731	3821.62
907.968	3819.62
908.205	3755.62
908.442	3790.62
908.679	3758.62
908.915	3703.62
909.152	3689.62
909.389	3646.62
909.626	3659.62
909.862	3582.62
910.099	3579.62
910.335	3680.62
910.572	3481.62
910.808	3559.62
911.045	3520.62
911.281	3520.62
911.518	3605.62
911.754	3498.62
911.99	3489.62
912.226	3465.62
912.463	3422.62
912.699	3408.62
912.935	3396.62
913.171	3380.62
913.407	3344.62
913.643	3424.62
913.879	3324.62
914.114	3297.62
914.35	3244.62
914.586	3191.62
914.822	3158.62
915.057	3255.62
915.293	3140.62
915.529	3085.62
915.764	3151.62
916	3156.62
916.235	3143.62
916.471	3152.62
916.706	3018.62
916.941	3111.62
917.177	3104.62
917.412	3145.62
917.647	3077.62
917.882	3021.62
918.117	3104.62
918.352	3076.62
918.588	3119.62
918.823	3037.62
919.057	3041.62
919.292	2953.62
919.527	3004.62
919.762	2904.62
919.997	2946.62
920.232	2856.62
920.466	2902.62
920.701	2775.62
920.935	2832.62
921.17	2820.62
921.405	2760.62
921.639	2819.62
921.873	2759.62
922.108	2818.62
922.342	2784.62
922.576	2736.62
922.811	2715.62
923.045	2781.62
923.279	2778.62
923.513	2668.62
923.747	2747.62
923.981	2670.62
924.215	2661.62
924.449	2641.62
924.683	2630.62
924.917	2578.62
925.151	2595.62
925.385	2653.62
925.618	2633.62
925.852	2610.62
926.086	2551.62
926.319	2598.62
926.553	2593.62
926.786	2565.62
927.02	2587.62
927.253	2606.62
927.486	2586.62
927.72	2582.62
927.953	2584.62
928.186	2521.62
928.42	2583.62
928.653	2525.62
928.886	2515.62
929.119	2531.62
929.352	2494.62
929.585	2513.62
929.818	2434.62
930.051	2448.62
930.284	2511.62
930.516	2357.62
930.749	2400.62
930.982	2441.62
931.215	2424.62
931.447	2338.62
931.68	2375.62
931.912	2350.62
932.145	2345.62
932.377	2356.62
932.61	2472.62
932.842	2281.62
933.074	2349.62
933.307	2302.62
933.539	2369.62
933.771	2381.62
934.003	2330.62
934.236	2397.62
934.468	2418.62
934.7	2336.62
934.932	2358.62
935.164	2297.62
935.395	2261.62
935.627	2330.62
935.859	2321.62
936.091	2227.62
936.323	2308.62
936.554	2347.62
936.786	2270.62
937.017	2225.62
937.249	2217.62
937.481	2167.62
937.712	2268.62
937.943	2253.62
938.175	2236.62
938.406	2225.62
938.637	2295.62
938.869	2176.62
939.1	2240.62
939.331	2176.62
939.562	2224.62
939.793	2217.62
940.024	2261.62
940.255	2222.62
940.486	2169.62
940.717	2148.62
940.948	2150.62
941.179	2085.62
941.409	2154.62
941.64	2132.62
941.871	2132.62
942.102	2101.62
942.332	2142.62
942.563	2172.62
942.793	2142.62
943.024	2098.62
943.254	2104.62
943.484	2135.62
943.715	2180.62
943.945	2141.62
944.175	2077.62
944.405	2035.62
944.636	2087.62
944.866	2139.62
945.096	2136.62
945.326	2066.62
945.556	2112.62
945.786	2118.62
946.016	2096.62
946.245	1998.62
946.475	2056.62
946.705	2045.62
946.935	2046.62
947.164	2026.62
947.394	1987.62
947.624	2005.62
947.853	2050.62
948.083	2013.62
948.312	1994.62
948.542	1956.62
948.771	1939.62
949	1934.62
949.23	1949.62
949.459	1966.62
949.688	2021.62
949.917	1946.62
950.146	1942.62
950.375	2031.62
950.604	1946.62
950.833	2037.62
951.062	2024.62
951.291	1955.62
951.52	1904.62
951.749	1993.62
951.978	1918.62
952.206	1908.62
952.435	1886.62
952.664	1961.62
952.892	1941.62
953.121	1910.62
953.349	1953.62
953.578	1910.62
953.806	1913.62
954.035	1869.62
954.263	1895.62
954.491	1824.62
954.719	1887.62
954.948	1827.62
955.176	1834.62
955.404	1779.62
955.632	1842.62
955.86	1850.62
956.088	1826.62
956.316	1859.62
956.544	1842.62
956.772	1825.62
956.999	1776.62
957.227	1884.62
957.455	1815.62
957.683	1775.62
957.91	1757.62
958.138	1742.62
958.365	1755.62
958.593	1744.62
958.82	1678.62
959.048	1745.62
959.275	1733.62
959.502	1725.62
959.73	1705.62
959.957	1724.62
960.184	1748.62
960.411	1698.62
960.638	1741.62
960.865	1696.62
961.092	1758.62
961.319	1673.62
961.546	1761.62
961.773	1768.62
962	1713.62
962.227	1767.62
962.454	1732.62
962.68	1699.62
962.907	1711.62
963.134	1677.62
963.36	1696.62
963.587	1718.62
963.813	1659.62
964.04	1687.62
964.266	1615.62
964.493	1704.62
964.719	1681.62
964.945	1677.62
965.171	1574.62
965.398	1648.62
965.624	1676.62
965.85	1590.62
966.076	1574.62
966.302	1640.62
966.528	1577.62
966.754	1640.62
966.98	1633.62
967.206	1613.62
967.431	1550.62
967.657	1626.62
967.883	1638.62
968.109	1583.62
968.334	1559.62
968.56	1517.62
968.785	1572.62
969.011	1531.62
969.236	1566.62
969.462	1516.62
969.687	1526.62
969.912	1567.62
970.138	1593.62
970.363	1526.62
970.588	1534.62
970.813	1514.62
971.038	1542.62
971.263	1516.62
971.488	1534.62
971.713	1583.62
971.938	1551.62
972.163	1449.62
972.388	1490.62
972.613	1477.62
972.838	1486.62
973.062	1460.62
973.287	1458.62
973.512	1430.62
973.736	1468.62
973.961	1434.62
974.185	1447.62
974.41	1452.62
974.634	1384.62
974.858	1398.62
975.083	1448.62
975.307	1455.62
975.531	1396.62
975.755	1363.62
975.98	1378.62
976.204	1315.62
976.428	1318.62
976.652	1343.62
976.876	1315.62
977.1	1340.62
977.324	1306.62
977.547	1368.62
977.771	1398.62
977.995	1335.62
978.219	1302.62
978.442	1389.62
978.666	1346.62
978.89	1332.62
979.113	1336.62
979.337	1322.62
979.56	1273.62
979.783	1380.62
980.007	1293.62
980.23	1347.62
980.453	1271.62
980.677	1298.62
980.9	1311.62
981.123	1232.62
981.346	1326.62
981.569	1304.62
981.792	1324.62
982.015	1289.62
982.238	1241.62
982.461	1281.62
982.684	1241.62
982.907	1235.62
983.129	1227.62
983.352	1264.62
983.575	1264.62
983.797	1286.62
984.02	1216.62
984.242	1233.62
984.465	1236.62
984.687	1275.62
984.91	1286.62
985.132	1247.62
985.354	1263.62
985.577	1247.62
985.799	1218.62
986.021	1167.62
986.243	1178.62
986.465	1219.62
986.687	1257.62
986.909	1286.62
987.131	1230.62
987.353	1186.62
987.575	1227.62
987.797	1197.62
988.019	1144.62
988.241	1196.62
988.462	1160.62
988.684	1241.62
988.906	1236.62
989.127	1285.62
989.349	1138.62
989.57	1201.62
989.792	1200.62
990.013	1232.62
990.234	1239.62
990.456	1271.62
990.677	1235.62
990.898	1188.62
991.119	1178.62
991.341	1193.62
991.562	1134.62
991.783	1204.62
992.004	1130.62
992.225	1106.62
992.446	1186.62
992.667	1099.62
992.887	1189.62
993.108	1075.62
993.329	1210.62
993.55	1133.62
993.77	1085.62
993.991	1090.62
994.212	1142.62
994.432	1109.62
994.653	1149.62
994.873	1144.62
995.093	1058.62
995.314	1070.62
995.534	1159.62
995.754	1164.62
995.975	1182.62
996.195	1088.62
996.415	1137.62
996.635	1117.62
996.855	1136.62
997.075	1119.62
997.295	1114.62
997.515	1084.62
997.735	1131.62
997.955	1118.62
998.174	1103.62
998.394	1060.62
998.614	1126.62
998.834	1075.62
999.053	1152.62
999.273	1129.62
999.492	1170.62
999.712	1130.62
999.931	1070.62
1000.151	1118.62
1000.37	1102.62
1000.589	1159.62
1000.809	1088.62
1001.028	1220.62
1001.247	1128.62
1001.466	1033.62
1001.685	1190.62
1001.904	1149.62
1002.123	1122.62
1002.342	1127.62
1002.561	1073.62
1002.78	1112.62
1002.999	1156.62
1003.218	1133.62
1003.436	1088.62
1003.655	1140.62
1003.874	1078.62
1004.092	1109.62
1004.311	1150.62
1004.53	1132.62
1004.748	1171.62
1004.966	1101.62
1005.185	1159.62
1005.403	1150.62
1005.622	1122.62
1005.84	1183.62
1006.058	1091.62
1006.276	1133.62
1006.494	1608.62
1006.712	1132.62
1006.931	1209.62
1007.149	1082.62
1007.367	1109.62
1007.584	1140.62
1007.802	1176.62
1008.02	1108.62
1008.238	1206.62
1008.456	1206.62
1008.673	1057.62
1008.891	1174.62
1009.109	1105.62
1009.326	1176.62
1009.544	1239.62
1009.761	1127.62
1009.979	1230.62
1010.196	1240.62
1010.413	1293.62
1010.631	1329.62
1010.848	1329.62
1011.065	1326.62
1011.282	1289.62
1011.5	1221.62
1011.717	1325.62
1011.934	1277.62
1012.151	1326.62
1012.368	1296.62
1012.585	1255.62
1012.801	1281.62
1013.018	1262.62
1013.235	1222.62
1013.452	1234.62
1013.669	1258.62
1013.885	1242.62
1014.102	1263.62
1014.318	1226.62
1014.535	1199.62
1014.751	1226.62
1014.968	1240.62
1015.184	1262.62
1015.401	1190.62
1015.617	1214.62
1015.833	1170.62
1016.049	1166.62
1016.266	1165.62
1016.482	1171.62
1016.698	1083.62
1016.914	1142.62
1017.13	1102.62
1017.346	1094.62
1017.562	1168.62
1017.778	1094.62
1017.993	1068.62
1018.209	1126.62
1018.425	1116.62
1018.641	1081.62
1018.856	1017.62
1019.072	1066.62
1019.288	1114.62
1019.503	1083.62
1019.719	990.62
1019.934	1020.62
1020.149	1087.62
1020.365	1028.62
1020.58	983.62
1020.795	1026.62
1021.011	976.62
1021.226	954.62
1021.441	976.62
1021.656	926.62
1021.871	866.62
1022.086	860.62
1022.301	870.62
1022.516	861.62
1022.731	925.62
1022.946	830.62
1023.16	838.62
1023.375	805.62
1023.59	796.62
1023.804	774.62
1024.019	850.62
1024.234	744.62
1024.448	795.62
1024.663	706.62
1024.877	733.62
1025.092	754.62
1025.306	756.62
1025.52	699.62
1025.734	781.62
1025.949	693.62
1026.163	678.62
1026.377	625.62
1026.591	681.62
1026.805	605.62
1027.019	617.62
1027.233	576.62
1027.447	529.62
1027.661	634.62
1027.875	578.62
1028.088	581.62
1028.302	517.62
1028.516	519.62
1028.73	530.62
1028.943	521.62
1029.157	483.62
1029.37	454.62
1029.584	-3.38
1029.797	-0.38
1030.011	-2.38
1030.224	-0.38
