Data from QEP037381__46__10-03-19-927.txt Node

Date: Wed Dec 21 10:03:19 EST 2022
User: dcclab
Spectrometer: QEP03738
Trigger mode: 4
Integration Time (sec): 1.000000E1
Scans to average: 1
Electric dark correction enabled: true
Nonlinearity correction enabled: false
Boxcar width: 0
XAxis mode: Wavelengths
Number of Pixels in Spectrum: 1044
>>>>>Begin Spectral Data<<<<<
784.041	9.5
784.3	4.5
784.558	-3.5
784.817	-2.5
785.075	111584.5
785.334	19348.5
785.592	9044.5
785.851	6214.5
786.109	4620.5
786.368	3575.5
786.626	2875.5
786.884	2411.5
787.143	2004.5
787.401	1627.5
787.659	1478.5
787.917	1257.5
788.175	1157.5
788.433	1009.5
788.691	911.5
788.949	830.5
789.207	786.5
789.465	683.5
789.723	659.5
789.98	597.5
790.238	636.5
790.496	597.5
790.753	565.5
791.011	615.5
791.268	547.5
791.526	521.5
791.783	533.5
792.041	529.5
792.298	427.5
792.556	505.5
792.813	467.5
793.07	463.5
793.327	440.5
793.584	505.5
793.841	429.5
794.099	458.5
794.356	502.5
794.613	415.5
794.869	451.5
795.126	404.5
795.383	397.5
795.64	419.5
795.897	359.5
796.153	431.5
796.41	405.5
796.667	392.5
796.923	402.5
797.18	386.5
797.436	416.5
797.693	384.5
797.949	438.5
798.206	447.5
798.462	369.5
798.718	420.5
798.974	401.5
799.231	440.5
799.487	426.5
799.743	424.5
799.999	448.5
800.255	436.5
800.511	432.5
800.767	460.5
801.023	431.5
801.279	455.5
801.534	461.5
801.79	499.5
802.046	477.5
802.302	591.5
802.557	603.5
802.813	705.5
803.068	775.5
803.324	1034.5
803.579	1314.5
803.835	1714.5
804.09	2309.5
804.345	2952.5
804.601	3647.5
804.856	4391.5
805.111	5066.5
805.366	5547.5
805.621	5868.5
805.876	6095.5
806.131	6220.5
806.386	6302.5
806.641	6373.5
806.896	6541.5
807.151	6684.5
807.406	6752.5
807.661	6786.5
807.915	6857.5
808.17	6962.5
808.425	7035.5
808.679	7073.5
808.934	7158.5
809.188	7197.5
809.443	7221.5
809.697	7289.5
809.951	7339.5
810.206	7373.5
810.46	7461.5
810.714	7524.5
810.968	7556.5
811.223	7533.5
811.477	7689.5
811.731	7722.5
811.985	7629.5
812.239	7705.5
812.493	7705.5
812.747	7844.5
813	7773.5
813.254	7815.5
813.508	7903.5
813.762	7848.5
814.015	7920.5
814.269	7967.5
814.522	8058.5
814.776	8120.5
815.03	8186.5
815.283	8306.5
815.536	8446.5
815.79	8569.5
816.043	8571.5
816.296	8733.5
816.55	8780.5
816.803	8892.5
817.056	9036.5
817.309	9019.5
817.562	9085.5
817.815	9209.5
818.068	9151.5
818.321	9281.5
818.574	9414.5
818.827	9448.5
819.079	9582.5
819.332	9775.5
819.585	9825.5
819.838	10058.5
820.09	10105.5
820.343	10101.5
820.595	10046.5
820.848	10224.5
821.1	10237.5
821.353	10252.5
821.605	10176.5
821.857	10223.5
822.11	10164.5
822.362	10151.5
822.614	10131.5
822.866	10136.5
823.118	10152.5
823.37	10238.5
823.622	10173.5
823.874	10267.5
824.126	10347.5
824.378	10357.5
824.63	10336.5
824.882	10381.5
825.134	10360.5
825.385	10379.5
825.637	10293.5
825.888	10193.5
826.14	10238.5
826.392	10154.5
826.643	10098.5
826.895	10058.5
827.146	9935.5
827.397	10002.5
827.649	10091.5
827.9	9968.5
828.151	9937.5
828.402	10040.5
828.653	10038.5
828.905	10051.5
829.156	10136.5
829.407	10047.5
829.658	10073.5
829.909	10155.5
830.159	10113.5
830.41	10014.5
830.661	9956.5
830.912	9933.5
831.162	9892.5
831.413	9860.5
831.664	9884.5
831.914	9884.5
832.165	9897.5
832.415	9900.5
832.666	9893.5
832.916	9882.5
833.167	9780.5
833.417	9852.5
833.667	9806.5
833.917	9752.5
834.168	9775.5
834.418	9751.5
834.668	9729.5
834.918	9668.5
835.168	9623.5
835.418	9576.5
835.668	9646.5
835.918	9646.5
836.167	9571.5
836.417	9498.5
836.667	9594.5
836.917	9452.5
837.166	9493.5
837.416	9552.5
837.666	9495.5
837.915	9428.5
838.165	9395.5
838.414	9332.5
838.663	9329.5
838.913	9359.5
839.162	9227.5
839.411	9356.5
839.661	9209.5
839.91	9299.5
840.159	9217.5
840.408	9306.5
840.657	9298.5
840.906	9304.5
841.155	9262.5
841.404	9240.5
841.653	9230.5
841.902	9226.5
842.15	9231.5
842.399	9267.5
842.648	9165.5
842.897	9254.5
843.145	9041.5
843.394	9024.5
843.642	9020.5
843.891	9081.5
844.139	9001.5
844.388	8850.5
844.636	8867.5
844.884	8860.5
845.133	8874.5
845.381	8823.5
845.629	8915.5
845.877	8823.5
846.125	8837.5
846.373	8808.5
846.621	8742.5
846.869	8767.5
847.117	8725.5
847.365	8718.5
847.613	8591.5
847.861	8630.5
848.108	8629.5
848.356	8578.5
848.604	8560.5
848.851	8583.5
849.099	8608.5
849.346	8574.5
849.594	8700.5
849.841	8642.5
850.089	8702.5
850.336	8683.5
850.583	8702.5
850.831	8647.5
851.078	8576.5
851.325	8526.5
851.572	8585.5
851.819	8488.5
852.066	8367.5
852.313	8261.5
852.56	8157.5
852.807	8147.5
853.054	8135.5
853.301	8159.5
853.548	8172.5
853.794	8227.5
854.041	8221.5
854.288	8245.5
854.534	8454.5
854.781	8386.5
855.028	8284.5
855.274	8367.5
855.52	8209.5
855.767	8135.5
856.013	8207.5
856.26	8451.5
856.506	8081.5
856.752	8102.5
856.998	8045.5
857.244	8071.5
857.49	8141.5
857.736	8191.5
857.982	8153.5
858.228	8106.5
858.474	8063.5
858.72	7996.5
858.966	7984.5
859.212	7874.5
859.458	7789.5
859.703	7727.5
859.949	7575.5
860.195	7648.5
860.44	7643.5
860.686	7561.5
860.931	7605.5
861.177	7500.5
861.422	7463.5
861.667	7387.5
861.913	7477.5
862.158	7524.5
862.403	7479.5
862.648	7511.5
862.893	7503.5
863.138	7471.5
863.384	7464.5
863.629	7490.5
863.873	7489.5
864.118	7429.5
864.363	7333.5
864.608	7403.5
864.853	7375.5
865.098	7297.5
865.342	7309.5
865.587	7269.5
865.832	7255.5
866.076	7175.5
866.321	7170.5
866.565	7152.5
866.81	7079.5
867.054	7164.5
867.298	7085.5
867.543	7053.5
867.787	7158.5
868.031	7096.5
868.275	7048.5
868.519	7058.5
868.764	7036.5
869.008	7032.5
869.252	7026.5
869.496	6968.5
869.739	6978.5
869.983	6988.5
870.227	6981.5
870.471	6932.5
870.715	7015.5
870.958	7006.5
871.202	6925.5
871.446	6979.5
871.689	7010.5
871.933	6991.5
872.176	7021.5
872.42	7009.5
872.663	6963.5
872.906	6937.5
873.15	6912.5
873.393	6870.5
873.636	6988.5
873.879	6871.5
874.122	6800.5
874.366	6712.5
874.609	6619.5
874.852	6566.5
875.095	6608.5
875.337	6499.5
875.58	6470.5
875.823	6490.5
876.066	6509.5
876.309	6468.5
876.551	6301.5
876.794	6347.5
877.037	6348.5
877.279	6297.5
877.522	6340.5
877.764	6360.5
878.007	6339.5
878.249	6319.5
878.491	6301.5
878.734	6315.5
878.976	6333.5
879.218	6248.5
879.46	6240.5
879.702	6200.5
879.945	6141.5
880.187	6098.5
880.429	6045.5
880.671	6007.5
880.912	5998.5
881.154	6005.5
881.396	5923.5
881.638	5960.5
881.88	5959.5
882.121	5846.5
882.363	5941.5
882.605	5941.5
882.846	5926.5
883.088	5953.5
883.329	5875.5
883.571	5822.5
883.812	5899.5
884.053	6010.5
884.295	6146.5
884.536	6301.5
884.777	6111.5
885.018	6143.5
885.259	6121.5
885.5	6016.5
885.742	6343.5
885.982	6017.5
886.223	5984.5
886.464	5910.5
886.705	5838.5
886.946	5842.5
887.187	5680.5
887.428	5746.5
887.668	5553.5
887.909	5553.5
888.15	5499.5
888.39	5444.5
888.631	5521.5
888.871	5441.5
889.111	5339.5
889.352	5309.5
889.592	5300.5
889.833	5281.5
890.073	5193.5
890.313	5208.5
890.553	5141.5
890.793	5144.5
891.033	5061.5
891.273	5045.5
891.513	5047.5
891.753	5126.5
891.993	5025.5
892.233	5087.5
892.473	5120.5
892.713	5064.5
892.952	5006.5
893.192	5047.5
893.432	5015.5
893.671	5077.5
893.911	4970.5
894.15	4974.5
894.39	4827.5
894.629	4925.5
894.869	4898.5
895.108	4857.5
895.347	4827.5
895.587	4831.5
895.826	4779.5
896.065	4750.5
896.304	4805.5
896.543	4791.5
896.782	4743.5
897.021	4752.5
897.26	4715.5
897.499	4753.5
897.738	4783.5
897.977	4672.5
898.216	4658.5
898.454	4628.5
898.693	4535.5
898.932	4582.5
899.17	4559.5
899.409	4533.5
899.647	4493.5
899.886	4462.5
900.124	4530.5
900.363	4487.5
900.601	4500.5
900.839	4533.5
901.078	4527.5
901.316	4504.5
901.554	4555.5
901.792	4583.5
902.03	4499.5
902.268	4516.5
902.506	4555.5
902.744	4493.5
902.982	4487.5
903.22	4434.5
903.458	4337.5
903.695	4356.5
903.933	4315.5
904.171	4230.5
904.409	4156.5
904.646	4157.5
904.884	4050.5
905.121	4114.5
905.359	4017.5
905.596	4053.5
905.833	3934.5
906.071	3945.5
906.308	3973.5
906.545	3930.5
906.783	3877.5
907.02	3890.5
907.257	3867.5
907.494	3851.5
907.731	3876.5
907.968	3889.5
908.205	3810.5
908.442	3767.5
908.679	3790.5
908.915	3767.5
909.152	3738.5
909.389	3711.5
909.626	3685.5
909.862	3653.5
910.099	3656.5
910.335	3677.5
910.572	3568.5
910.808	3559.5
911.045	3589.5
911.281	3611.5
911.518	3637.5
911.754	3527.5
911.99	3561.5
912.226	3519.5
912.463	3476.5
912.699	3423.5
912.935	3418.5
913.171	3423.5
913.407	3365.5
913.643	3380.5
913.879	3356.5
914.114	3370.5
914.35	3313.5
914.586	3246.5
914.822	3222.5
915.057	3268.5
915.293	3196.5
915.529	3170.5
915.764	3200.5
916	3193.5
916.235	3216.5
916.471	3224.5
916.706	3157.5
916.941	3123.5
917.177	3107.5
917.412	3151.5
917.647	3184.5
917.882	3119.5
918.117	3170.5
918.352	3106.5
918.588	3154.5
918.823	3053.5
919.057	3052.5
919.292	2909.5
919.527	3041.5
919.762	2956.5
919.997	3000.5
920.232	2929.5
920.466	2959.5
920.701	2819.5
920.935	2832.5
921.17	2842.5
921.405	2793.5
921.639	2862.5
921.873	2790.5
922.108	2826.5
922.342	2840.5
922.576	2747.5
922.811	2760.5
923.045	2823.5
923.279	2837.5
923.513	2682.5
923.747	2792.5
923.981	2716.5
924.215	2720.5
924.449	2674.5
924.683	2622.5
924.917	2653.5
925.151	2643.5
925.385	2668.5
925.618	2664.5
925.852	2582.5
926.086	2563.5
926.319	2642.5
926.553	2631.5
926.786	2601.5
927.02	2622.5
927.253	2636.5
927.486	2649.5
927.72	2552.5
927.953	2634.5
928.186	2584.5
928.42	2592.5
928.653	2505.5
928.886	2528.5
929.119	2562.5
929.352	2532.5
929.585	2521.5
929.818	2483.5
930.051	2511.5
930.284	2481.5
930.516	2404.5
930.749	2420.5
930.982	2452.5
931.215	2407.5
931.447	2374.5
931.68	2395.5
931.912	2374.5
932.145	2363.5
932.377	2388.5
932.61	2513.5
932.842	2295.5
933.074	2393.5
933.307	2344.5
933.539	2435.5
933.771	2402.5
934.003	2364.5
934.236	2414.5
934.468	2435.5
934.7	2343.5
934.932	2390.5
935.164	2302.5
935.395	2322.5
935.627	2306.5
935.859	2325.5
936.091	2304.5
936.323	2343.5
936.554	2340.5
936.786	2251.5
937.017	2252.5
937.249	2303.5
937.481	2209.5
937.712	2326.5
937.943	2262.5
938.175	2231.5
938.406	2275.5
938.637	2318.5
938.869	2198.5
939.1	2254.5
939.331	2249.5
939.562	2264.5
939.793	2208.5
940.024	2276.5
940.255	2274.5
940.486	2235.5
940.717	2213.5
940.948	2181.5
941.179	2170.5
941.409	2177.5
941.64	2169.5
941.871	2159.5
942.102	2145.5
942.332	2133.5
942.563	2207.5
942.793	2160.5
943.024	2127.5
943.254	2147.5
943.484	2162.5
943.715	2198.5
943.945	2165.5
944.175	2105.5
944.405	2087.5
944.636	2106.5
944.866	2149.5
945.096	2156.5
945.326	2067.5
945.556	2136.5
945.786	2182.5
946.016	2097.5
946.245	2044.5
946.475	2057.5
946.705	2053.5
946.935	2061.5
947.164	2066.5
947.394	2010.5
947.624	2036.5
947.853	2070.5
948.083	2025.5
948.312	1985.5
948.542	1926.5
948.771	1935.5
949	1943.5
949.23	1967.5
949.459	1982.5
949.688	2066.5
949.917	2004.5
950.146	1991.5
950.375	2051.5
950.604	1981.5
950.833	2016.5
951.062	2024.5
951.291	1986.5
951.52	1967.5
951.749	1961.5
951.978	1893.5
952.206	1926.5
952.435	1916.5
952.664	1928.5
952.892	1979.5
953.121	1914.5
953.349	1957.5
953.578	1933.5
953.806	1905.5
954.035	1868.5
954.263	1923.5
954.491	1816.5
954.719	1879.5
954.948	1829.5
955.176	1827.5
955.404	1773.5
955.632	1838.5
955.86	1843.5
956.088	1838.5
956.316	1852.5
956.544	1888.5
956.772	1815.5
956.999	1797.5
957.227	1889.5
957.455	1808.5
957.683	1826.5
957.91	1763.5
958.138	1752.5
958.365	1760.5
958.593	1779.5
958.82	1706.5
959.048	1761.5
959.275	1744.5
959.502	1706.5
959.73	1713.5
959.957	1727.5
960.184	1737.5
960.411	1715.5
960.638	1794.5
960.865	1725.5
961.092	1748.5
961.319	1675.5
961.546	1764.5
961.773	1771.5
962	1705.5
962.227	1743.5
962.454	1732.5
962.68	1727.5
962.907	1718.5
963.134	1677.5
963.36	1697.5
963.587	1727.5
963.813	1669.5
964.04	1718.5
964.266	1612.5
964.493	1748.5
964.719	1688.5
964.945	1727.5
965.171	1620.5
965.398	1625.5
965.624	1685.5
965.85	1631.5
966.076	1622.5
966.302	1643.5
966.528	1643.5
966.754	1643.5
966.98	1634.5
967.206	1626.5
967.431	1570.5
967.657	1636.5
967.883	1646.5
968.109	1621.5
968.334	1554.5
968.56	1563.5
968.785	1561.5
969.011	1535.5
969.236	1579.5
969.462	1524.5
969.687	1558.5
969.912	1567.5
970.138	1623.5
970.363	1513.5
970.588	1566.5
970.813	1533.5
971.038	1509.5
971.263	1531.5
971.488	1531.5
971.713	1573.5
971.938	1543.5
972.163	1478.5
972.388	1485.5
972.613	1461.5
972.838	1509.5
973.062	1499.5
973.287	1503.5
973.512	1396.5
973.736	1483.5
973.961	1455.5
974.185	1434.5
974.41	1442.5
974.634	1388.5
974.858	1406.5
975.083	1459.5
975.307	1437.5
975.531	1422.5
975.755	1345.5
975.98	1357.5
976.204	1339.5
976.428	1343.5
976.652	1355.5
976.876	1320.5
977.1	1358.5
977.324	1322.5
977.547	1401.5
977.771	1400.5
977.995	1380.5
978.219	1278.5
978.442	1427.5
978.666	1337.5
978.89	1337.5
979.113	1330.5
979.337	1320.5
979.56	1282.5
979.783	1407.5
980.007	1274.5
980.23	1338.5
980.453	1266.5
980.677	1323.5
980.9	1305.5
981.123	1232.5
981.346	1306.5
981.569	1305.5
981.792	1305.5
982.015	1296.5
982.238	1249.5
982.461	1284.5
982.684	1261.5
982.907	1245.5
983.129	1230.5
983.352	1280.5
983.575	1261.5
983.797	1272.5
984.02	1220.5
984.242	1243.5
984.465	1236.5
984.687	1266.5
984.91	1313.5
985.132	1262.5
985.354	1275.5
985.577	1242.5
985.799	1247.5
986.021	1181.5
986.243	1194.5
986.465	1213.5
986.687	1258.5
986.909	1299.5
987.131	1230.5
987.353	1188.5
987.575	1210.5
987.797	1189.5
988.019	1147.5
988.241	1202.5
988.462	1167.5
988.684	1223.5
988.906	1229.5
989.127	1256.5
989.349	1144.5
989.57	1208.5
989.792	1233.5
990.013	1253.5
990.234	1228.5
990.456	1262.5
990.677	1247.5
990.898	1169.5
991.119	1212.5
991.341	1238.5
991.562	1168.5
991.783	1207.5
992.004	1133.5
992.225	1112.5
992.446	1167.5
992.667	1087.5
992.887	1182.5
993.108	1067.5
993.329	1222.5
993.55	1159.5
993.77	1102.5
993.991	1105.5
994.212	1141.5
994.432	1134.5
994.653	1149.5
994.873	1153.5
995.093	1045.5
995.314	1087.5
995.534	1164.5
995.754	1183.5
995.975	1173.5
996.195	1081.5
996.415	1168.5
996.635	1104.5
996.855	1134.5
997.075	1088.5
997.295	1108.5
997.515	1080.5
997.735	1150.5
997.955	1091.5
998.174	1108.5
998.394	1055.5
998.614	1110.5
998.834	1070.5
999.053	1167.5
999.273	1138.5
999.492	1158.5
999.712	1096.5
999.931	1070.5
1000.151	1132.5
1000.37	1108.5
1000.589	1160.5
1000.809	1074.5
1001.028	1196.5
1001.247	1148.5
1001.466	1054.5
1001.685	1186.5
1001.904	1121.5
1002.123	1120.5
1002.342	1107.5
1002.561	1088.5
1002.78	1122.5
1002.999	1148.5
1003.218	1094.5
1003.436	1105.5
1003.655	1160.5
1003.874	1082.5
1004.092	1123.5
1004.311	1151.5
1004.53	1112.5
1004.748	1170.5
1004.966	1119.5
1005.185	1157.5
1005.403	1144.5
1005.622	1125.5
1005.84	1215.5
1006.058	1101.5
1006.276	1109.5
1006.494	1620.5
1006.712	1139.5
1006.931	1187.5
1007.149	1100.5
1007.367	1113.5
1007.584	1133.5
1007.802	1148.5
1008.02	1104.5
1008.238	1202.5
1008.456	1171.5
1008.673	1046.5
1008.891	1179.5
1009.109	1091.5
1009.326	1143.5
1009.544	1246.5
1009.761	1119.5
1009.979	1201.5
1010.196	1184.5
1010.413	1288.5
1010.631	1321.5
1010.848	1337.5
1011.065	1304.5
1011.282	1279.5
1011.5	1206.5
1011.717	1336.5
1011.934	1262.5
1012.151	1292.5
1012.368	1284.5
1012.585	1208.5
1012.801	1263.5
1013.018	1223.5
1013.235	1200.5
1013.452	1222.5
1013.669	1214.5
1013.885	1213.5
1014.102	1244.5
1014.318	1212.5
1014.535	1195.5
1014.751	1197.5
1014.968	1228.5
1015.184	1230.5
1015.401	1133.5
1015.617	1180.5
1015.833	1115.5
1016.049	1158.5
1016.266	1141.5
1016.482	1155.5
1016.698	1093.5
1016.914	1148.5
1017.13	1081.5
1017.346	1072.5
1017.562	1158.5
1017.778	1071.5
1017.993	1052.5
1018.209	1123.5
1018.425	1097.5
1018.641	1058.5
1018.856	1036.5
1019.072	1050.5
1019.288	1100.5
1019.503	1064.5
1019.719	960.5
1019.934	1017.5
1020.149	1056.5
1020.365	1007.5
1020.58	969.5
1020.795	1013.5
1021.011	955.5
1021.226	944.5
1021.441	972.5
1021.656	917.5
1021.871	874.5
1022.086	845.5
1022.301	876.5
1022.516	848.5
1022.731	935.5
1022.946	826.5
1023.16	823.5
1023.375	800.5
1023.59	799.5
1023.804	750.5
1024.019	857.5
1024.234	742.5
1024.448	793.5
1024.663	716.5
1024.877	740.5
1025.092	758.5
1025.306	767.5
1025.52	647.5
1025.734	762.5
1025.949	694.5
1026.163	681.5
1026.377	609.5
1026.591	688.5
1026.805	627.5
1027.019	612.5
1027.233	551.5
1027.447	535.5
1027.661	628.5
1027.875	579.5
1028.088	577.5
1028.302	517.5
1028.516	520.5
1028.73	511.5
1028.943	523.5
1029.157	481.5
1029.37	452.5
1029.584	-2.5
1029.797	-2.5
1030.011	-1.5
1030.224	-1.5
