Data from QEP037381__21__14-15-23-766.txt Node

Date: Wed Dec 21 14:15:23 EST 2022
User: dcclab
Spectrometer: QEP03738
Trigger mode: 4
Integration Time (sec): 1.000000E1
Scans to average: 1
Electric dark correction enabled: true
Nonlinearity correction enabled: false
Boxcar width: 0
XAxis mode: Wavelengths
Number of Pixels in Spectrum: 1044
>>>>>Begin Spectral Data<<<<<
784.041	14.75
784.3	0.75
784.558	-2.25
784.817	-1.25
785.075	96214.75
785.334	16854.75
785.592	7958.75
785.851	5562.75
786.109	4200.75
786.368	3242.75
786.626	2615.75
786.884	2177.75
787.143	1782.75
787.401	1506.75
787.659	1347.75
787.917	1133.75
788.175	1055.75
788.433	916.75
788.691	837.75
788.949	785.75
789.207	761.75
789.465	647.75
789.723	623.75
789.98	557.75
790.238	624.75
790.496	563.75
790.753	553.75
791.011	601.75
791.268	539.75
791.526	518.75
791.783	543.75
792.041	515.75
792.298	435.75
792.556	492.75
792.813	474.75
793.07	463.75
793.327	446.75
793.584	526.75
793.841	449.75
794.099	464.75
794.356	534.75
794.613	437.75
794.869	462.75
795.126	420.75
795.383	409.75
795.64	441.75
795.897	381.75
796.153	442.75
796.41	435.75
796.667	413.75
796.923	409.75
797.18	410.75
797.436	451.75
797.693	419.75
797.949	468.75
798.206	486.75
798.462	408.75
798.718	460.75
798.974	440.75
799.231	496.75
799.487	478.75
799.743	484.75
799.999	508.75
800.255	503.75
800.511	501.75
800.767	533.75
801.023	540.75
801.279	562.75
801.534	599.75
801.79	651.75
802.046	680.75
802.302	843.75
802.557	947.75
802.813	1184.75
803.068	1475.75
803.324	2027.75
803.579	2745.75
803.835	3810.75
804.09	5261.75
804.345	6741.75
804.601	8399.75
804.856	10237.75
805.111	11705.75
805.366	12987.75
805.621	13805.75
805.876	14479.75
806.131	14892.75
806.386	15323.75
806.641	15392.75
806.896	15680.75
807.151	15955.75
807.406	16173.75
807.661	16447.75
807.915	16850.75
808.17	17042.75
808.425	17148.75
808.679	17257.75
808.934	17470.75
809.188	17693.75
809.443	17819.75
809.697	18119.75
809.951	18177.75
810.206	18289.75
810.46	18402.75
810.714	18608.75
810.968	18783.75
811.223	18842.75
811.477	19093.75
811.731	19272.75
811.985	19313.75
812.239	19486.75
812.493	19406.75
812.747	19593.75
813	19571.75
813.254	19657.75
813.508	19890.75
813.762	19844.75
814.015	19873.75
814.269	20129.75
814.522	20221.75
814.776	20508.75
815.03	20695.75
815.283	20954.75
815.536	21328.75
815.79	21644.75
816.043	21941.75
816.296	22177.75
816.55	22536.75
816.803	22721.75
817.056	23142.75
817.309	23138.75
817.562	23471.75
817.815	23788.75
818.068	23791.75
818.321	24013.75
818.574	24271.75
818.827	24587.75
819.079	24907.75
819.332	25422.75
819.585	25803.75
819.838	25977.75
820.09	26117.75
820.343	26280.75
820.595	26412.75
820.848	26688.75
821.1	26662.75
821.353	26597.75
821.605	26568.75
821.857	26620.75
822.11	26376.75
822.362	26341.75
822.614	26277.75
822.866	26380.75
823.118	26414.75
823.37	26526.75
823.622	26574.75
823.874	26675.75
824.126	26684.75
824.378	26754.75
824.63	26848.75
824.882	26989.75
825.134	26902.75
825.385	26831.75
825.637	26801.75
825.888	26854.75
826.14	26674.75
826.392	26527.75
826.643	26302.75
826.895	26350.75
827.146	26184.75
827.397	26089.75
827.649	26095.75
827.9	26106.75
828.151	26277.75
828.402	26195.75
828.653	26252.75
828.905	26383.75
829.156	26483.75
829.407	26465.75
829.658	26477.75
829.909	26553.75
830.159	26667.75
830.41	26576.75
830.661	26167.75
830.912	26044.75
831.162	26008.75
831.413	26013.75
831.664	26076.75
831.914	25918.75
832.165	25796.75
832.415	25793.75
832.666	25890.75
832.916	25919.75
833.167	25903.75
833.417	25930.75
833.667	25859.75
833.917	25763.75
834.168	25628.75
834.418	25603.75
834.668	25503.75
834.918	25326.75
835.168	25191.75
835.418	25146.75
835.668	25039.75
835.918	25093.75
836.167	24930.75
836.417	24964.75
836.667	24876.75
836.917	24966.75
837.166	24965.75
837.416	25000.75
837.666	24938.75
837.915	24927.75
838.165	24942.75
838.414	24784.75
838.663	24827.75
838.913	24723.75
839.162	24726.75
839.411	24746.75
839.661	24528.75
839.91	24546.75
840.159	24487.75
840.408	24604.75
840.657	24577.75
840.906	24398.75
841.155	24485.75
841.404	24529.75
841.653	24587.75
841.902	24523.75
842.15	24682.75
842.399	24593.75
842.648	24636.75
842.897	24517.75
843.145	24389.75
843.394	24250.75
843.642	24076.75
843.891	23946.75
844.139	23826.75
844.388	23633.75
844.636	23572.75
844.884	23538.75
845.133	23557.75
845.381	23603.75
845.629	23621.75
845.877	23446.75
846.125	23459.75
846.373	23483.75
846.621	23324.75
846.869	23362.75
847.117	23212.75
847.365	22986.75
847.613	22973.75
847.861	22924.75
848.108	22855.75
848.356	22764.75
848.604	22741.75
848.851	22822.75
849.099	22853.75
849.346	22859.75
849.594	22899.75
849.841	22978.75
850.089	23097.75
850.336	23108.75
850.583	23184.75
850.831	22991.75
851.078	22901.75
851.325	22843.75
851.572	22978.75
851.819	22753.75
852.066	22301.75
852.313	21942.75
852.56	21813.75
852.807	21693.75
853.054	21604.75
853.301	21661.75
853.548	21652.75
853.794	21866.75
854.041	21918.75
854.288	21965.75
854.534	22114.75
854.781	22092.75
855.028	21983.75
855.274	22033.75
855.52	21828.75
855.767	21898.75
856.013	22079.75
856.26	22318.75
856.506	21687.75
856.752	21773.75
856.998	21613.75
857.244	21715.75
857.49	21886.75
857.736	21886.75
857.982	21846.75
858.228	21685.75
858.474	21562.75
858.72	21370.75
858.966	21143.75
859.212	21023.75
859.458	20878.75
859.703	20572.75
859.949	20382.75
860.195	20280.75
860.44	20240.75
860.686	20169.75
860.931	20130.75
861.177	20012.75
861.422	19868.75
861.667	19693.75
861.913	19687.75
862.158	19742.75
862.403	19792.75
862.648	19827.75
862.893	19806.75
863.138	19752.75
863.384	19661.75
863.629	19720.75
863.873	19716.75
864.118	19684.75
864.363	19586.75
864.608	19506.75
864.853	19472.75
865.098	19224.75
865.342	19254.75
865.587	19117.75
865.832	19174.75
866.076	19100.75
866.321	19014.75
866.565	18966.75
866.81	18905.75
867.054	18837.75
867.298	18739.75
867.543	18754.75
867.787	18763.75
868.031	18637.75
868.275	18686.75
868.519	18612.75
868.764	18528.75
869.008	18503.75
869.252	18492.75
869.496	18459.75
869.739	18481.75
869.983	18470.75
870.227	18485.75
870.471	18481.75
870.715	18623.75
870.958	18700.75
871.202	18634.75
871.446	18724.75
871.689	18636.75
871.933	18698.75
872.176	18659.75
872.42	18558.75
872.663	18597.75
872.906	18574.75
873.15	18703.75
873.393	18658.75
873.636	18620.75
873.879	18421.75
874.122	18163.75
874.366	17838.75
874.609	17626.75
874.852	17627.75
875.095	17524.75
875.337	17308.75
875.58	17157.75
875.823	17131.75
876.066	17131.75
876.309	17052.75
876.551	16849.75
876.794	16776.75
877.037	16828.75
877.279	16799.75
877.522	16683.75
877.764	16743.75
878.007	16789.75
878.249	16652.75
878.491	16670.75
878.734	16491.75
878.976	16567.75
879.218	16354.75
879.46	16355.75
879.702	16230.75
879.945	16049.75
880.187	15919.75
880.429	15863.75
880.671	15771.75
880.912	15756.75
881.154	15708.75
881.396	15615.75
881.638	15704.75
881.88	15547.75
882.121	15525.75
882.363	15529.75
882.605	15658.75
882.846	15543.75
883.088	15547.75
883.329	15661.75
883.571	15691.75
883.812	15934.75
884.053	16332.75
884.295	16747.75
884.536	17013.75
884.777	16839.75
885.018	16651.75
885.259	16594.75
885.5	16343.75
885.742	16631.75
885.982	16324.75
886.223	16121.75
886.464	15976.75
886.705	15713.75
886.946	15554.75
887.187	15254.75
887.428	15080.75
887.668	14787.75
887.909	14525.75
888.15	14388.75
888.39	14325.75
888.631	14301.75
888.871	14125.75
889.111	13917.75
889.352	13777.75
889.592	13601.75
889.833	13576.75
890.073	13509.75
890.313	13363.75
890.553	13340.75
890.793	13199.75
891.033	13140.75
891.273	13130.75
891.513	13124.75
891.753	12992.75
891.993	12987.75
892.233	13020.75
892.473	13093.75
892.713	13060.75
892.952	13060.75
893.192	13062.75
893.432	13098.75
893.671	12973.75
893.911	12926.75
894.15	12764.75
894.39	12763.75
894.629	12725.75
894.869	12647.75
895.108	12512.75
895.347	12489.75
895.587	12495.75
895.826	12381.75
896.065	12406.75
896.304	12362.75
896.543	12372.75
896.782	12222.75
897.021	12300.75
897.26	12246.75
897.499	12213.75
897.738	12189.75
897.977	12125.75
898.216	11985.75
898.454	11984.75
898.693	11793.75
898.932	11826.75
899.17	11762.75
899.409	11773.75
899.647	11586.75
899.886	11737.75
900.124	11699.75
900.363	11647.75
900.601	11794.75
900.839	11708.75
901.078	11836.75
901.316	11871.75
901.554	11912.75
901.792	12068.75
902.03	12042.75
902.268	11985.75
902.506	11924.75
902.744	11877.75
902.982	11873.75
903.22	11561.75
903.458	11452.75
903.695	11203.75
903.933	11107.75
904.171	10809.75
904.409	10723.75
904.646	10679.75
904.884	10470.75
905.121	10356.75
905.359	10236.75
905.596	10094.75
905.833	10042.75
906.071	9961.75
906.308	10021.75
906.545	9972.75
906.783	9886.75
907.02	9937.75
907.257	9804.75
907.494	9876.75
907.731	9766.75
907.968	9751.75
908.205	9693.75
908.442	9663.75
908.679	9597.75
908.915	9558.75
909.152	9446.75
909.389	9308.75
909.626	9269.75
909.862	9174.75
910.099	9182.75
910.335	9149.75
910.572	9052.75
910.808	9043.75
911.045	9028.75
911.281	9001.75
911.518	9009.75
911.754	8990.75
911.99	8912.75
912.226	8867.75
912.463	8687.75
912.699	8669.75
912.935	8665.75
913.171	8584.75
913.407	8483.75
913.643	8468.75
913.879	8349.75
914.114	8256.75
914.35	8156.75
914.586	8113.75
914.822	7975.75
915.057	8095.75
915.293	7936.75
915.529	7848.75
915.764	7912.75
916	7945.75
916.235	7875.75
916.471	7820.75
916.706	7758.75
916.941	7716.75
917.177	7801.75
917.412	7780.75
917.647	7776.75
917.882	7665.75
918.117	7725.75
918.352	7696.75
918.588	7743.75
918.823	7603.75
919.057	7493.75
919.292	7404.75
919.527	7449.75
919.762	7292.75
919.997	7290.75
920.232	7168.75
920.466	7150.75
920.701	7003.75
920.935	7014.75
921.17	6987.75
921.405	6878.75
921.639	6931.75
921.873	6866.75
922.108	6933.75
922.342	6915.75
922.576	6788.75
922.811	6788.75
923.045	6818.75
923.279	6774.75
923.513	6628.75
923.747	6675.75
923.981	6645.75
924.215	6557.75
924.449	6538.75
924.683	6466.75
924.917	6440.75
925.151	6424.75
925.385	6437.75
925.618	6383.75
925.852	6390.75
926.086	6301.75
926.319	6329.75
926.553	6363.75
926.786	6346.75
927.02	6363.75
927.253	6296.75
927.486	6333.75
927.72	6302.75
927.953	6242.75
928.186	6227.75
928.42	6283.75
928.653	6190.75
928.886	6149.75
929.119	6132.75
929.352	6096.75
929.585	6060.75
929.818	5965.75
930.051	5998.75
930.284	5957.75
930.516	5791.75
930.749	5846.75
930.982	5879.75
931.215	5816.75
931.447	5778.75
931.68	5712.75
931.912	5705.75
932.145	5755.75
932.377	5693.75
932.61	5835.75
932.842	5631.75
933.074	5712.75
933.307	5660.75
933.539	5776.75
933.771	5691.75
934.003	5664.75
934.236	5699.75
934.468	5716.75
934.7	5639.75
934.932	5636.75
935.164	5558.75
935.395	5524.75
935.627	5576.75
935.859	5552.75
936.091	5459.75
936.323	5482.75
936.554	5550.75
936.786	5472.75
937.017	5384.75
937.249	5426.75
937.481	5358.75
937.712	5403.75
937.943	5350.75
938.175	5295.75
938.406	5350.75
938.637	5411.75
938.869	5269.75
939.1	5372.75
939.331	5240.75
939.562	5318.75
939.793	5275.75
940.024	5320.75
940.255	5282.75
940.486	5202.75
940.717	5202.75
940.948	5147.75
941.179	5058.75
941.409	5170.75
941.64	5094.75
941.871	5084.75
942.102	5032.75
942.332	5089.75
942.563	5094.75
942.793	5077.75
943.024	5010.75
943.254	5077.75
943.484	5146.75
943.715	5090.75
943.945	5103.75
944.175	5014.75
944.405	5035.75
944.636	5036.75
944.866	5037.75
945.096	4989.75
945.326	4962.75
945.556	5014.75
945.786	5004.75
946.016	4927.75
946.245	4851.75
946.475	4830.75
946.705	4830.75
946.935	4824.75
947.164	4846.75
947.394	4750.75
947.624	4733.75
947.853	4784.75
948.083	4737.75
948.312	4738.75
948.542	4622.75
948.771	4577.75
949	4576.75
949.23	4589.75
949.459	4664.75
949.688	4663.75
949.917	4600.75
950.146	4613.75
950.375	4656.75
950.604	4530.75
950.833	4680.75
951.062	4633.75
951.291	4535.75
951.52	4511.75
951.749	4532.75
951.978	4490.75
952.206	4472.75
952.435	4458.75
952.664	4456.75
952.892	4523.75
953.121	4458.75
953.349	4482.75
953.578	4403.75
953.806	4360.75
954.035	4346.75
954.263	4371.75
954.491	4284.75
954.719	4295.75
954.948	4224.75
955.176	4248.75
955.404	4189.75
955.632	4209.75
955.86	4216.75
956.088	4165.75
956.316	4232.75
956.544	4223.75
956.772	4135.75
956.999	4112.75
957.227	4154.75
957.455	4050.75
957.683	4076.75
957.91	3973.75
958.138	3955.75
958.365	3993.75
958.593	4000.75
958.82	3897.75
959.048	3990.75
959.275	3928.75
959.502	3946.75
959.73	3905.75
959.957	3915.75
960.184	3905.75
960.411	3855.75
960.638	3944.75
960.865	3875.75
961.092	3858.75
961.319	3812.75
961.546	3933.75
961.773	3898.75
962	3820.75
962.227	3863.75
962.454	3864.75
962.68	3799.75
962.907	3805.75
963.134	3735.75
963.36	3761.75
963.587	3757.75
963.813	3670.75
964.04	3717.75
964.266	3652.75
964.493	3691.75
964.719	3660.75
964.945	3655.75
965.171	3519.75
965.398	3580.75
965.624	3588.75
965.85	3545.75
966.076	3558.75
966.302	3491.75
966.528	3513.75
966.754	3532.75
966.98	3497.75
967.206	3474.75
967.431	3403.75
967.657	3499.75
967.883	3469.75
968.109	3479.75
968.334	3394.75
968.56	3362.75
968.785	3384.75
969.011	3375.75
969.236	3413.75
969.462	3318.75
969.687	3355.75
969.912	3378.75
970.138	3413.75
970.363	3279.75
970.588	3322.75
970.813	3278.75
971.038	3280.75
971.263	3308.75
971.488	3296.75
971.713	3295.75
971.938	3278.75
972.163	3173.75
972.388	3195.75
972.613	3145.75
972.838	3143.75
973.062	3164.75
973.287	3170.75
973.512	3066.75
973.736	3104.75
973.961	3086.75
974.185	3084.75
974.41	3094.75
974.634	2970.75
974.858	3004.75
975.083	3032.75
975.307	3058.75
975.531	2951.75
975.755	2902.75
975.98	2907.75
976.204	2865.75
976.428	2838.75
976.652	2845.75
976.876	2846.75
977.1	2840.75
977.324	2805.75
977.547	2878.75
977.771	2873.75
977.995	2845.75
978.219	2753.75
978.442	2847.75
978.666	2819.75
978.89	2825.75
979.113	2782.75
979.337	2771.75
979.56	2727.75
979.783	2841.75
980.007	2716.75
980.23	2726.75
980.453	2684.75
980.677	2700.75
980.9	2722.75
981.123	2592.75
981.346	2711.75
981.569	2690.75
981.792	2667.75
982.015	2649.75
982.238	2604.75
982.461	2615.75
982.684	2609.75
982.907	2551.75
983.129	2559.75
983.352	2592.75
983.575	2542.75
983.797	2554.75
984.02	2474.75
984.242	2497.75
984.465	2501.75
984.687	2516.75
984.91	2562.75
985.132	2501.75
985.354	2504.75
985.577	2493.75
985.799	2424.75
986.021	2358.75
986.243	2418.75
986.465	2402.75
986.687	2470.75
986.909	2453.75
987.131	2391.75
987.353	2360.75
987.575	2437.75
987.797	2355.75
988.019	2328.75
988.241	2343.75
988.462	2338.75
988.684	2376.75
988.906	2419.75
989.127	2399.75
989.349	2285.75
989.57	2324.75
989.792	2352.75
990.013	2365.75
990.234	2364.75
990.456	2363.75
990.677	2345.75
990.898	2264.75
991.119	2287.75
991.341	2335.75
991.562	2215.75
991.783	2276.75
992.004	2204.75
992.225	2156.75
992.446	2243.75
992.667	2124.75
992.887	2227.75
993.108	2098.75
993.329	2206.75
993.55	2156.75
993.77	2105.75
993.991	2100.75
994.212	2155.75
994.432	2131.75
994.653	2115.75
994.873	2099.75
995.093	1991.75
995.314	2051.75
995.534	2105.75
995.754	2130.75
995.975	2139.75
996.195	2031.75
996.415	2073.75
996.635	2054.75
996.855	2099.75
997.075	2051.75
997.295	2047.75
997.515	2030.75
997.735	2069.75
997.955	2015.75
998.174	2041.75
998.394	1979.75
998.614	2014.75
998.834	1982.75
999.053	2066.75
999.273	2030.75
999.492	2096.75
999.712	2013.75
999.931	1971.75
1000.151	1958.75
1000.37	1972.75
1000.589	2040.75
1000.809	1918.75
1001.028	2049.75
1001.247	1978.75
1001.466	1869.75
1001.685	1980.75
1001.904	1924.75
1002.123	1915.75
1002.342	1955.75
1002.561	1875.75
1002.78	1891.75
1002.999	1939.75
1003.218	1877.75
1003.436	1841.75
1003.655	1917.75
1003.874	1831.75
1004.092	1852.75
1004.311	1874.75
1004.53	1837.75
1004.748	1931.75
1004.966	1854.75
1005.185	1888.75
1005.403	1849.75
1005.622	1836.75
1005.84	1922.75
1006.058	1839.75
1006.276	1863.75
1006.494	2313.75
1006.712	1848.75
1006.931	1890.75
1007.149	1827.75
1007.367	1822.75
1007.584	1867.75
1007.802	1914.75
1008.02	1877.75
1008.238	1950.75
1008.456	1991.75
1008.673	1822.75
1008.891	1960.75
1009.109	1924.75
1009.326	2014.75
1009.544	2109.75
1009.761	2046.75
1009.979	2138.75
1010.196	2224.75
1010.413	2372.75
1010.631	2425.75
1010.848	2503.75
1011.065	2528.75
1011.282	2488.75
1011.5	2399.75
1011.717	2496.75
1011.934	2435.75
1012.151	2481.75
1012.368	2421.75
1012.585	2334.75
1012.801	2422.75
1013.018	2427.75
1013.235	2378.75
1013.452	2396.75
1013.669	2415.75
1013.885	2395.75
1014.102	2447.75
1014.318	2420.75
1014.535	2391.75
1014.751	2406.75
1014.968	2428.75
1015.184	2446.75
1015.401	2305.75
1015.617	2326.75
1015.833	2221.75
1016.049	2249.75
1016.266	2205.75
1016.482	2200.75
1016.698	2146.75
1016.914	2173.75
1017.13	2093.75
1017.346	2086.75
1017.562	2159.75
1017.778	2043.75
1017.993	2037.75
1018.209	2088.75
1018.425	2075.75
1018.641	2016.75
1018.856	1967.75
1019.072	2034.75
1019.288	2043.75
1019.503	1996.75
1019.719	1920.75
1019.934	1910.75
1020.149	1992.75
1020.365	1902.75
1020.58	1859.75
1020.795	1875.75
1021.011	1804.75
1021.226	1741.75
1021.441	1743.75
1021.656	1665.75
1021.871	1583.75
1022.086	1544.75
1022.301	1559.75
1022.516	1541.75
1022.731	1588.75
1022.946	1483.75
1023.16	1480.75
1023.375	1422.75
1023.59	1405.75
1023.804	1346.75
1024.019	1421.75
1024.234	1320.75
1024.448	1317.75
1024.663	1239.75
1024.877	1263.75
1025.092	1284.75
1025.306	1249.75
1025.52	1130.75
1025.734	1219.75
1025.949	1150.75
1026.163	1091.75
1026.377	1031.75
1026.591	1086.75
1026.805	1008.75
1027.019	993.75
1027.233	957.75
1027.447	899.75
1027.661	983.75
1027.875	935.75
1028.088	925.75
1028.302	859.75
1028.516	849.75
1028.73	836.75
1028.943	809.75
1029.157	757.75
1029.37	714.75
1029.584	-0.25
1029.797	-4.25
1030.011	-4.25
1030.224	-3.25
