Data from QEP037381__19__14-15-03-765.txt Node

Date: Wed Dec 21 14:15:03 EST 2022
User: dcclab
Spectrometer: QEP03738
Trigger mode: 4
Integration Time (sec): 1.000000E1
Scans to average: 1
Electric dark correction enabled: true
Nonlinearity correction enabled: false
Boxcar width: 0
XAxis mode: Wavelengths
Number of Pixels in Spectrum: 1044
>>>>>Begin Spectral Data<<<<<
784.041	15
784.3	-1
784.558	-3
784.817	-3
785.075	97657
785.334	16710
785.592	7799
785.851	5398
786.109	4105
786.368	3248
786.626	2596
786.884	2174
787.143	1866
787.401	1515
787.659	1415
787.917	1202
788.175	1094
788.433	955
788.691	855
788.949	804
789.207	762
789.465	679
789.723	647
789.98	601
790.238	625
790.496	589
790.753	573
791.011	607
791.268	538
791.526	524
791.783	546
792.041	537
792.298	457
792.556	505
792.813	488
793.07	468
793.327	455
793.584	532
793.841	453
794.099	457
794.356	535
794.613	435
794.869	480
795.126	431
795.383	412
795.64	437
795.897	400
796.153	462
796.41	445
796.667	424
796.923	426
797.18	444
797.436	477
797.693	446
797.949	479
798.206	505
798.462	426
798.718	496
798.974	469
799.231	508
799.487	488
799.743	508
799.999	530
800.255	538
800.511	528
800.767	569
801.023	553
801.279	596
801.534	657
801.79	702
802.046	744
802.302	908
802.557	1056
802.813	1320
803.068	1624
803.324	2305
803.579	3151
803.835	4401
804.09	5991
804.345	7955
804.601	10032
804.856	12182
805.111	13993
805.366	15459
805.621	16646
805.876	17328
806.131	17923
806.386	18117
806.641	18556
806.896	18698
807.151	19124
807.406	19393
807.661	19690
807.915	20124
808.17	20439
808.425	20592
808.679	20684
808.934	20994
809.188	21223
809.443	21418
809.697	21518
809.951	21766
810.206	21868
810.46	22117
810.714	22308
810.968	22442
811.223	22651
811.477	22864
811.731	23038
811.985	23124
812.239	23080
812.493	23226
812.747	23413
813	23384
813.254	23501
813.508	23495
813.762	23644
814.015	23842
814.269	23983
814.522	24269
814.776	24437
815.03	24745
815.283	25093
815.536	25468
815.79	25935
816.043	26248
816.296	26505
816.55	26885
816.803	27140
817.056	27588
817.309	27713
817.562	28102
817.815	28275
818.068	28426
818.321	28773
818.574	29048
818.827	29385
819.079	29673
819.332	30214
819.585	30593
819.838	30965
820.09	30988
820.343	31386
820.595	31477
820.848	31705
821.1	31715
821.353	31671
821.605	31703
821.857	31736
822.11	31607
822.362	31554
822.614	31480
822.866	31498
823.118	31417
823.37	31495
823.622	31677
823.874	31699
824.126	32012
824.378	31712
824.63	31875
824.882	31982
825.134	31799
825.385	31798
825.637	31828
825.888	31623
826.14	31701
826.392	31567
826.643	31315
826.895	31208
827.146	31107
827.397	30997
827.649	31124
827.9	30969
828.151	30973
828.402	31115
828.653	31257
828.905	31377
829.156	31411
829.407	31294
829.658	31173
829.909	31344
830.159	31430
830.41	31221
830.661	30971
830.912	30644
831.162	30620
831.413	30555
831.664	30497
831.914	30441
832.165	30579
832.415	30436
832.666	30468
832.916	30561
833.167	30508
833.417	30585
833.667	30318
833.917	30202
834.168	30222
834.418	30191
834.668	30025
834.918	29782
835.168	29781
835.418	29780
835.668	29527
835.918	29426
836.167	29461
836.417	29383
836.667	29325
836.917	29425
837.166	29118
837.416	29254
837.666	29193
837.915	29172
838.165	29074
838.414	29052
838.663	28891
838.913	28956
839.162	28753
839.411	28852
839.661	28661
839.91	28700
840.159	28524
840.408	28602
840.657	28602
840.906	28611
841.155	28554
841.404	28487
841.653	28622
841.902	28490
842.15	28715
842.399	28561
842.648	28643
842.897	28451
843.145	28234
843.394	28142
843.642	27987
843.891	27733
844.139	27675
844.388	27583
844.636	27404
844.884	27350
845.133	27334
845.381	27292
845.629	27428
845.877	27157
846.125	27137
846.373	27203
846.621	27138
846.869	27113
847.117	26838
847.365	26717
847.613	26615
847.861	26590
848.108	26552
848.356	26381
848.604	26297
848.851	26334
849.099	26368
849.346	26360
849.594	26575
849.841	26691
850.089	26656
850.336	26626
850.583	26782
850.831	26521
851.078	26459
851.325	26248
851.572	26398
851.819	26093
852.066	25679
852.313	25295
852.56	25086
852.807	24932
853.054	24982
853.301	24909
853.548	24894
853.794	25013
854.041	25088
854.288	25063
854.534	25433
854.781	25361
855.028	25307
855.274	25170
855.52	25215
855.767	24979
856.013	25094
856.26	25319
856.506	24789
856.752	24705
856.998	24682
857.244	24827
857.49	24814
857.736	24883
857.982	24904
858.228	24765
858.474	24706
858.72	24462
858.966	24156
859.212	24111
859.458	23739
859.703	23579
859.949	23352
860.195	23197
860.44	23076
860.686	22907
860.931	22917
861.177	22761
861.422	22638
861.667	22631
861.913	22646
862.158	22621
862.403	22647
862.648	22625
862.893	22754
863.138	22697
863.384	22590
863.629	22534
863.873	22482
864.118	22517
864.363	22432
864.608	22349
864.853	22210
865.098	22129
865.342	22028
865.587	21932
865.832	21896
866.076	21757
866.321	21723
866.565	21570
866.81	21599
867.054	21482
867.298	21455
867.543	21384
867.787	21417
868.031	21149
868.275	21195
868.519	21107
868.764	21115
869.008	21130
869.252	21125
869.496	20889
869.739	21017
869.983	20947
870.227	21009
870.471	20916
870.715	20902
870.958	21005
871.202	21056
871.446	20989
871.689	21013
871.933	21071
872.176	20957
872.42	20907
872.663	20895
872.906	20949
873.15	20831
873.393	20840
873.636	20801
873.879	20438
874.122	20393
874.366	20025
874.609	19793
874.852	19681
875.095	19515
875.337	19401
875.58	19332
875.823	19304
876.066	19241
876.309	19071
876.551	19024
876.794	19000
877.037	18956
877.279	18848
877.522	18872
877.764	18858
878.007	18832
878.249	18821
878.491	18733
878.734	18719
878.976	18732
879.218	18408
879.46	18427
879.702	18346
879.945	18132
880.187	17984
880.429	17918
880.671	17800
880.912	17653
881.154	17697
881.396	17551
881.638	17664
881.88	17668
882.121	17537
882.363	17561
882.605	17534
882.846	17476
883.088	17448
883.329	17376
883.571	17384
883.812	17607
884.053	17902
884.295	18163
884.536	18427
884.777	18269
885.018	18104
885.259	18031
885.5	17904
885.742	18139
885.982	17747
886.223	17686
886.464	17543
886.705	17360
886.946	17156
887.187	16867
887.428	16828
887.668	16469
887.909	16333
888.15	16209
888.39	16094
888.631	16031
888.871	15783
889.111	15737
889.352	15614
889.592	15439
889.833	15222
890.073	15201
890.313	15167
890.553	14956
890.793	15021
891.033	14913
891.273	14859
891.513	14745
891.753	14653
891.993	14653
892.233	14605
892.473	14809
892.713	14784
892.952	14702
893.192	14713
893.432	14670
893.671	14647
893.911	14573
894.15	14425
894.39	14382
894.629	14213
894.869	14207
895.108	14051
895.347	14011
895.587	14024
895.826	13913
896.065	13977
896.304	13846
896.543	13888
896.782	13799
897.021	13792
897.26	13641
897.499	13713
897.738	13672
897.977	13492
898.216	13480
898.454	13368
898.693	13254
898.932	13205
899.17	13120
899.409	13038
899.647	13048
899.886	12951
900.124	12927
900.363	13002
900.601	13041
900.839	12988
901.078	13069
901.316	13079
901.554	13122
901.792	13227
902.03	13119
902.268	13155
902.506	13108
902.744	12971
902.982	12958
903.22	12703
903.458	12656
903.695	12409
903.933	12335
904.171	12157
904.409	11953
904.646	11801
904.884	11607
905.121	11603
905.359	11483
905.596	11335
905.833	11195
906.071	11147
906.308	11253
906.545	11158
906.783	11036
907.02	11095
907.257	11040
907.494	11059
907.731	10965
907.968	10948
908.205	10848
908.442	10817
908.679	10672
908.915	10644
909.152	10513
909.389	10448
909.626	10378
909.862	10352
910.099	10301
910.335	10335
910.572	10165
910.808	10195
911.045	10166
911.281	10060
911.518	10083
911.754	9925
911.99	9980
912.226	9832
912.463	9757
912.699	9756
912.935	9596
913.171	9539
913.407	9453
913.643	9501
913.879	9408
914.114	9261
914.35	9120
914.586	9058
914.822	8995
915.057	9015
915.293	8835
915.529	8829
915.764	8887
916	8824
916.235	8767
916.471	8741
916.706	8639
916.941	8708
917.177	8690
917.412	8638
917.647	8668
917.882	8669
918.117	8674
918.352	8654
918.588	8607
918.823	8515
919.057	8388
919.292	8270
919.527	8287
919.762	8142
919.997	8091
920.232	8045
920.466	8020
920.701	7811
920.935	7784
921.17	7784
921.405	7615
921.639	7740
921.873	7694
922.108	7660
922.342	7589
922.576	7555
922.811	7548
923.045	7497
923.279	7572
923.513	7329
923.747	7425
923.981	7352
924.215	7257
924.449	7319
924.683	7189
924.917	7159
925.151	7083
925.385	7156
925.618	7131
925.852	7046
926.086	7024
926.319	7101
926.553	7080
926.786	7012
927.02	7019
927.253	7065
927.486	7035
927.72	6920
927.953	6955
928.186	6902
928.42	6933
928.653	6843
928.886	6768
929.119	6827
929.352	6798
929.585	6730
929.818	6646
930.051	6664
930.284	6600
930.516	6440
930.749	6392
930.982	6509
931.215	6459
931.447	6335
931.68	6354
931.912	6323
932.145	6323
932.377	6344
932.61	6469
932.842	6234
933.074	6291
933.307	6187
933.539	6334
933.771	6361
934.003	6234
934.236	6288
934.468	6345
934.7	6243
934.932	6251
935.164	6143
935.395	6112
935.627	6216
935.859	6137
936.091	6039
936.323	6107
936.554	6137
936.786	6027
937.017	5946
937.249	6036
937.481	5896
937.712	6027
937.943	5951
938.175	5949
938.406	5844
938.637	5957
938.869	5838
939.1	5897
939.331	5778
939.562	5832
939.793	5866
940.024	5850
940.255	5830
940.486	5708
940.717	5691
940.948	5694
941.179	5654
941.409	5638
941.64	5620
941.871	5628
942.102	5622
942.332	5640
942.563	5652
942.793	5626
943.024	5591
943.254	5612
943.484	5646
943.715	5622
943.945	5577
944.175	5548
944.405	5530
944.636	5476
944.866	5540
945.096	5571
945.326	5473
945.556	5555
945.786	5592
946.016	5437
946.245	5375
946.475	5332
946.705	5292
946.935	5308
947.164	5326
947.394	5187
947.624	5198
947.853	5239
948.083	5213
948.312	5135
948.542	5105
948.771	5051
949	5094
949.23	5049
949.459	5064
949.688	5144
949.917	5146
950.146	5071
950.375	5089
950.604	5040
950.833	5069
951.062	5110
951.291	5015
951.52	5019
951.749	4961
951.978	4961
952.206	4919
952.435	4908
952.664	4960
952.892	4960
953.121	4899
953.349	4893
953.578	4878
953.806	4841
954.035	4760
954.263	4724
954.491	4707
954.719	4758
954.948	4686
955.176	4713
955.404	4553
955.632	4671
955.86	4604
956.088	4649
956.316	4595
956.544	4624
956.772	4542
956.999	4500
957.227	4559
957.455	4499
957.683	4418
957.91	4415
958.138	4355
958.365	4340
958.593	4364
958.82	4214
959.048	4358
959.275	4297
959.502	4289
959.73	4300
959.957	4280
960.184	4351
960.411	4246
960.638	4306
960.865	4224
961.092	4328
961.319	4208
961.546	4246
961.773	4245
962	4188
962.227	4273
962.454	4145
962.68	4146
962.907	4175
963.134	4085
963.36	4064
963.587	4088
963.813	4053
964.04	4048
964.266	3991
964.493	4044
964.719	4008
964.945	3985
965.171	3877
965.398	3897
965.624	3901
965.85	3854
966.076	3843
966.302	3885
966.528	3835
966.754	3862
966.98	3835
967.206	3777
967.431	3719
967.657	3793
967.883	3832
968.109	3749
968.334	3659
968.56	3705
968.785	3705
969.011	3651
969.236	3735
969.462	3634
969.687	3663
969.912	3686
970.138	3694
970.363	3580
970.588	3615
970.813	3581
971.038	3543
971.263	3559
971.488	3564
971.713	3567
971.938	3547
972.163	3461
972.388	3478
972.613	3427
972.838	3438
973.062	3390
973.287	3416
973.512	3372
973.736	3395
973.961	3349
974.185	3345
974.41	3364
974.634	3207
974.858	3271
975.083	3253
975.307	3291
975.531	3206
975.755	3161
975.98	3161
976.204	3121
976.428	3090
976.652	3089
976.876	3098
977.1	3108
977.324	3073
977.547	3108
977.771	3103
977.995	3058
978.219	2975
978.442	3117
978.666	3040
978.89	3031
979.113	3018
979.337	3011
979.56	2967
979.783	3043
980.007	2931
980.23	2944
980.453	2927
980.677	2930
980.9	2937
981.123	2829
981.346	2899
981.569	2889
981.792	2929
982.015	2849
982.238	2794
982.461	2807
982.684	2817
982.907	2726
983.129	2698
983.352	2786
983.575	2789
983.797	2706
984.02	2701
984.242	2669
984.465	2687
984.687	2705
984.91	2741
985.132	2684
985.354	2711
985.577	2647
985.799	2633
986.021	2548
986.243	2566
986.465	2597
986.687	2626
986.909	2644
987.131	2589
987.353	2529
987.575	2592
987.797	2561
988.019	2462
988.241	2536
988.462	2514
988.684	2541
988.906	2581
989.127	2585
989.349	2422
989.57	2462
989.792	2517
990.013	2519
990.234	2535
990.456	2532
990.677	2511
990.898	2474
991.119	2432
991.341	2462
991.562	2386
991.783	2441
992.004	2358
992.225	2323
992.446	2380
992.667	2294
992.887	2396
993.108	2224
993.329	2385
993.55	2302
993.77	2249
993.991	2252
994.212	2276
994.432	2270
994.653	2251
994.873	2194
995.093	2150
995.314	2168
995.534	2227
995.754	2265
995.975	2222
996.195	2138
996.415	2203
996.635	2198
996.855	2197
997.075	2111
997.295	2155
997.515	2095
997.735	2189
997.955	2177
998.174	2124
998.394	2135
998.614	2129
998.834	2090
999.053	2166
999.273	2135
999.492	2171
999.712	2104
999.931	2036
1000.151	2108
1000.37	2058
1000.589	2119
1000.809	2034
1001.028	2126
1001.247	2073
1001.466	1956
1001.685	2111
1001.904	2009
1002.123	2014
1002.342	2013
1002.561	1967
1002.78	1952
1002.999	2025
1003.218	1983
1003.436	1925
1003.655	2006
1003.874	1911
1004.092	1950
1004.311	1971
1004.53	1933
1004.748	2032
1004.966	1925
1005.185	1976
1005.403	1949
1005.622	1917
1005.84	1982
1006.058	1908
1006.276	1934
1006.494	2437
1006.712	1953
1006.931	1974
1007.149	1907
1007.367	1907
1007.584	1952
1007.802	1956
1008.02	1903
1008.238	2004
1008.456	2002
1008.673	1905
1008.891	2020
1009.109	1961
1009.326	2003
1009.544	2111
1009.761	2035
1009.979	2131
1010.196	2179
1010.413	2288
1010.631	2392
1010.848	2373
1011.065	2460
1011.282	2333
1011.5	2331
1011.717	2400
1011.934	2349
1012.151	2352
1012.368	2329
1012.585	2259
1012.801	2329
1013.018	2287
1013.235	2246
1013.452	2287
1013.669	2291
1013.885	2322
1014.102	2317
1014.318	2309
1014.535	2273
1014.751	2286
1014.968	2243
1015.184	2322
1015.401	2171
1015.617	2186
1015.833	2163
1016.049	2101
1016.266	2109
1016.482	2121
1016.698	2013
1016.914	2078
1017.13	2001
1017.346	1990
1017.562	2054
1017.778	1997
1017.993	1940
1018.209	1967
1018.425	1941
1018.641	1923
1018.856	1915
1019.072	1955
1019.288	1971
1019.503	1933
1019.719	1822
1019.934	1854
1020.149	1919
1020.365	1814
1020.58	1785
1020.795	1809
1021.011	1757
1021.226	1695
1021.441	1719
1021.656	1628
1021.871	1552
1022.086	1553
1022.301	1520
1022.516	1500
1022.731	1568
1022.946	1485
1023.16	1437
1023.375	1399
1023.59	1390
1023.804	1309
1024.019	1414
1024.234	1291
1024.448	1306
1024.663	1232
1024.877	1230
1025.092	1221
1025.306	1261
1025.52	1120
1025.734	1219
1025.949	1136
1026.163	1089
1026.377	1038
1026.591	1075
1026.805	1011
1027.019	997
1027.233	947
1027.447	907
1027.661	990
1027.875	944
1028.088	931
1028.302	850
1028.516	831
1028.73	840
1028.943	813
1029.157	759
1029.37	699
1029.584	0
1029.797	-5
1030.011	-2
1030.224	-1
