Data from QEP037381__12__14-13-53-766.txt Node

Date: Wed Dec 21 14:13:53 EST 2022
User: dcclab
Spectrometer: QEP03738
Trigger mode: 4
Integration Time (sec): 1.000000E1
Scans to average: 1
Electric dark correction enabled: true
Nonlinearity correction enabled: false
Boxcar width: 0
XAxis mode: Wavelengths
Number of Pixels in Spectrum: 1044
>>>>>Begin Spectral Data<<<<<
784.041	9.88
784.3	2.88
784.558	-2.12
784.817	-3.12
785.075	98283.88
785.334	16922.88
785.592	7910.88
785.851	5463.88
786.109	4030.88
786.368	3124.88
786.626	2497.88
786.884	2119.88
787.143	1775.88
787.401	1476.88
787.659	1326.88
787.917	1127.88
788.175	1038.88
788.433	927.88
788.691	833.88
788.949	754.88
789.207	742.88
789.465	640.88
789.723	633.88
789.98	576.88
790.238	627.88
790.496	569.88
790.753	549.88
791.011	593.88
791.268	543.88
791.526	513.88
791.783	548.88
792.041	522.88
792.298	451.88
792.556	496.88
792.813	472.88
793.07	456.88
793.327	455.88
793.584	527.88
793.841	447.88
794.099	478.88
794.356	527.88
794.613	429.88
794.869	475.88
795.126	434.88
795.383	431.88
795.64	434.88
795.897	399.88
796.153	451.88
796.41	449.88
796.667	418.88
796.923	417.88
797.18	430.88
797.436	450.88
797.693	424.88
797.949	480.88
798.206	493.88
798.462	418.88
798.718	477.88
798.974	448.88
799.231	496.88
799.487	482.88
799.743	502.88
799.999	532.88
800.255	516.88
800.511	525.88
800.767	549.88
801.023	565.88
801.279	601.88
801.534	625.88
801.79	680.88
802.046	729.88
802.302	869.88
802.557	1029.88
802.813	1262.88
803.068	1586.88
803.324	2208.88
803.579	2993.88
803.835	4189.88
804.09	5675.88
804.345	7367.88
804.601	9377.88
804.856	11288.88
805.111	12993.88
805.366	14384.88
805.621	15318.88
805.876	16055.88
806.131	16589.88
806.386	16874.88
806.641	17048.88
806.896	17339.88
807.151	17715.88
807.406	17926.88
807.661	18265.88
807.915	18625.88
808.17	18865.88
808.425	19086.88
808.679	19168.88
808.934	19380.88
809.188	19504.88
809.443	19798.88
809.697	20014.88
809.951	20085.88
810.206	20302.88
810.46	20377.88
810.714	20576.88
810.968	20845.88
811.223	20895.88
811.477	21083.88
811.731	21255.88
811.985	21301.88
812.239	21348.88
812.493	21443.88
812.747	21592.88
813	21542.88
813.254	21676.88
813.508	21800.88
813.762	21870.88
814.015	22038.88
814.269	22222.88
814.522	22245.88
814.776	22503.88
815.03	22858.88
815.283	23133.88
815.536	23526.88
815.79	23947.88
816.043	24077.88
816.296	24562.88
816.55	24853.88
816.803	25061.88
817.056	25467.88
817.309	25606.88
817.562	25758.88
817.815	25855.88
818.068	26216.88
818.321	26397.88
818.574	26775.88
818.827	27018.88
819.079	27409.88
819.332	27820.88
819.585	28099.88
819.838	28537.88
820.09	28716.88
820.343	28813.88
820.595	28946.88
820.848	29102.88
821.1	29273.88
821.353	29229.88
821.605	29191.88
821.857	29342.88
822.11	28947.88
822.362	29006.88
822.614	29000.88
822.866	28899.88
823.118	28910.88
823.37	29141.88
823.622	29141.88
823.874	29189.88
824.126	29307.88
824.378	29320.88
824.63	29348.88
824.882	29433.88
825.134	29342.88
825.385	29383.88
825.637	29324.88
825.888	29171.88
826.14	29151.88
826.392	28959.88
826.643	28840.88
826.895	28804.88
827.146	28689.88
827.397	28532.88
827.649	28601.88
827.9	28456.88
828.151	28491.88
828.402	28633.88
828.653	28699.88
828.905	28767.88
829.156	28839.88
829.407	28909.88
829.658	28902.88
829.909	29038.88
830.159	29042.88
830.41	28808.88
830.661	28535.88
830.912	28328.88
831.162	28305.88
831.413	28187.88
831.664	28279.88
831.914	28122.88
832.165	28105.88
832.415	28068.88
832.666	27976.88
832.916	28242.88
833.167	28123.88
833.417	27936.88
833.667	27946.88
833.917	27849.88
834.168	27836.88
834.418	27780.88
834.668	27667.88
834.918	27440.88
835.168	27423.88
835.418	27223.88
835.668	27163.88
835.918	27197.88
836.167	27122.88
836.417	26972.88
836.667	26906.88
836.917	27013.88
837.166	26909.88
837.416	26953.88
837.666	26878.88
837.915	26950.88
838.165	26800.88
838.414	26693.88
838.663	26749.88
838.913	26611.88
839.162	26585.88
839.411	26620.88
839.661	26389.88
839.91	26364.88
840.159	26329.88
840.408	26442.88
840.657	26396.88
840.906	26397.88
841.155	26355.88
841.404	26168.88
841.653	26369.88
841.902	26379.88
842.15	26428.88
842.399	26479.88
842.648	26424.88
842.897	26237.88
843.145	26041.88
843.394	25965.88
843.642	25666.88
843.891	25579.88
844.139	25561.88
844.388	25390.88
844.636	25290.88
844.884	25274.88
845.133	25253.88
845.381	25148.88
845.629	25376.88
845.877	25136.88
846.125	25171.88
846.373	25034.88
846.621	24880.88
846.869	25011.88
847.117	24746.88
847.365	24643.88
847.613	24501.88
847.861	24485.88
848.108	24503.88
848.356	24415.88
848.604	24333.88
848.851	24339.88
849.099	24396.88
849.346	24383.88
849.594	24481.88
849.841	24577.88
850.089	24676.88
850.336	24730.88
850.583	24661.88
850.831	24484.88
851.078	24344.88
851.325	24292.88
851.572	24369.88
851.819	24154.88
852.066	23732.88
852.313	23498.88
852.56	23174.88
852.807	23110.88
853.054	22974.88
853.301	23019.88
853.548	23098.88
853.794	23170.88
854.041	23181.88
854.288	23346.88
854.534	23579.88
854.781	23415.88
855.028	23373.88
855.274	23477.88
855.52	23326.88
855.767	23283.88
856.013	23326.88
856.26	23633.88
856.506	23051.88
856.752	23067.88
856.998	22895.88
857.244	23094.88
857.49	23131.88
857.736	23157.88
857.982	23157.88
858.228	23039.88
858.474	22836.88
858.72	22731.88
858.966	22512.88
859.212	22297.88
859.458	21946.88
859.703	21798.88
859.949	21633.88
860.195	21517.88
860.44	21386.88
860.686	21410.88
860.931	21325.88
861.177	21103.88
861.422	21056.88
861.667	20935.88
861.913	20877.88
862.158	20951.88
862.403	21048.88
862.648	20975.88
862.893	21019.88
863.138	20968.88
863.384	21028.88
863.629	20881.88
863.873	20839.88
864.118	20898.88
864.363	20699.88
864.608	20657.88
864.853	20662.88
865.098	20498.88
865.342	20460.88
865.587	20304.88
865.832	20304.88
866.076	20209.88
866.321	20155.88
866.565	20061.88
866.81	19942.88
867.054	19920.88
867.298	19807.88
867.543	19823.88
867.787	19778.88
868.031	19726.88
868.275	19662.88
868.519	19667.88
868.764	19610.88
869.008	19602.88
869.252	19538.88
869.496	19481.88
869.739	19525.88
869.983	19449.88
870.227	19548.88
870.471	19410.88
870.715	19504.88
870.958	19566.88
871.202	19565.88
871.446	19631.88
871.689	19668.88
871.933	19579.88
872.176	19601.88
872.42	19504.88
872.663	19519.88
872.906	19523.88
873.15	19461.88
873.393	19471.88
873.636	19531.88
873.879	19248.88
874.122	19102.88
874.366	18714.88
874.609	18570.88
874.852	18365.88
875.095	18352.88
875.337	18152.88
875.58	17938.88
875.823	17972.88
876.066	17982.88
876.309	17862.88
876.551	17792.88
876.794	17670.88
877.037	17659.88
877.279	17502.88
877.522	17543.88
877.764	17602.88
878.007	17532.88
878.249	17504.88
878.491	17503.88
878.734	17484.88
878.976	17427.88
879.218	17264.88
879.46	17251.88
879.702	17091.88
879.945	16917.88
880.187	16750.88
880.429	16705.88
880.671	16568.88
880.912	16480.88
881.154	16463.88
881.396	16368.88
881.638	16467.88
881.88	16421.88
882.121	16327.88
882.363	16300.88
882.605	16342.88
882.846	16302.88
883.088	16317.88
883.329	16251.88
883.571	16295.88
883.812	16547.88
884.053	16951.88
884.295	17222.88
884.536	17475.88
884.777	17406.88
885.018	17257.88
885.259	17022.88
885.5	16847.88
885.742	17168.88
885.982	16765.88
886.223	16766.88
886.464	16568.88
886.705	16393.88
886.946	16163.88
887.187	15874.88
887.428	15832.88
887.668	15441.88
887.909	15270.88
888.15	15066.88
888.39	15065.88
888.631	14912.88
888.871	14679.88
889.111	14684.88
889.352	14576.88
889.592	14427.88
889.833	14277.88
890.073	14255.88
890.313	14182.88
890.553	13963.88
890.793	13952.88
891.033	13877.88
891.273	13770.88
891.513	13714.88
891.753	13739.88
891.993	13689.88
892.233	13691.88
892.473	13797.88
892.713	13672.88
892.952	13736.88
893.192	13749.88
893.432	13652.88
893.671	13660.88
893.911	13590.88
894.15	13510.88
894.39	13373.88
894.629	13378.88
894.869	13276.88
895.108	13177.88
895.347	13077.88
895.587	13109.88
895.826	13014.88
896.065	12935.88
896.304	13020.88
896.543	12991.88
896.782	12803.88
897.021	12965.88
897.26	12857.88
897.499	12771.88
897.738	12782.88
897.977	12722.88
898.216	12557.88
898.454	12479.88
898.693	12354.88
898.932	12372.88
899.17	12305.88
899.409	12234.88
899.647	12276.88
899.886	12191.88
900.124	12271.88
900.363	12201.88
900.601	12084.88
900.839	12230.88
901.078	12277.88
901.316	12324.88
901.554	12388.88
901.792	12434.88
902.03	12413.88
902.268	12457.88
902.506	12441.88
902.744	12268.88
902.982	12279.88
903.22	12042.88
903.458	11879.88
903.695	11712.88
903.933	11618.88
904.171	11333.88
904.409	11182.88
904.646	11084.88
904.884	10923.88
905.121	10903.88
905.359	10733.88
905.596	10663.88
905.833	10460.88
906.071	10465.88
906.308	10460.88
906.545	10446.88
906.783	10334.88
907.02	10404.88
907.257	10346.88
907.494	10274.88
907.731	10307.88
907.968	10266.88
908.205	10159.88
908.442	10103.88
908.679	10059.88
908.915	9943.88
909.152	9907.88
909.389	9721.88
909.626	9770.88
909.862	9669.88
910.099	9618.88
910.335	9679.88
910.572	9511.88
910.808	9535.88
911.045	9469.88
911.281	9414.88
911.518	9434.88
911.754	9344.88
911.99	9360.88
912.226	9201.88
912.463	9143.88
912.699	9034.88
912.935	9040.88
913.171	8908.88
913.407	8840.88
913.643	8920.88
913.879	8733.88
914.114	8633.88
914.35	8570.88
914.586	8551.88
914.822	8411.88
915.057	8411.88
915.293	8270.88
915.529	8260.88
915.764	8267.88
916	8214.88
916.235	8291.88
916.471	8248.88
916.706	8177.88
916.941	8118.88
917.177	8163.88
917.412	8203.88
917.647	8176.88
917.882	8065.88
918.117	8127.88
918.352	8065.88
918.588	8016.88
918.823	7994.88
919.057	7874.88
919.292	7769.88
919.527	7818.88
919.762	7670.88
919.997	7634.88
920.232	7561.88
920.466	7495.88
920.701	7336.88
920.935	7313.88
921.17	7284.88
921.405	7247.88
921.639	7304.88
921.873	7190.88
922.108	7176.88
922.342	7191.88
922.576	7127.88
922.811	7042.88
923.045	7058.88
923.279	7064.88
923.513	6931.88
923.747	7014.88
923.981	6966.88
924.215	6852.88
924.449	6823.88
924.683	6698.88
924.917	6754.88
925.151	6713.88
925.385	6733.88
925.618	6724.88
925.852	6690.88
926.086	6634.88
926.319	6648.88
926.553	6595.88
926.786	6625.88
927.02	6611.88
927.253	6617.88
927.486	6599.88
927.72	6503.88
927.953	6563.88
928.186	6519.88
928.42	6543.88
928.653	6403.88
928.886	6440.88
929.119	6446.88
929.352	6394.88
929.585	6330.88
929.818	6239.88
930.051	6246.88
930.284	6191.88
930.516	6032.88
930.749	6062.88
930.982	6048.88
931.215	6059.88
931.447	6009.88
931.68	5980.88
931.912	5959.88
932.145	5887.88
932.377	5969.88
932.61	6040.88
932.842	5890.88
933.074	5963.88
933.307	5823.88
933.539	5958.88
933.771	5899.88
934.003	5910.88
934.236	5971.88
934.468	6003.88
934.7	5851.88
934.932	5864.88
935.164	5873.88
935.395	5747.88
935.627	5780.88
935.859	5821.88
936.091	5699.88
936.323	5707.88
936.554	5737.88
936.786	5649.88
937.017	5634.88
937.249	5601.88
937.481	5539.88
937.712	5676.88
937.943	5655.88
938.175	5579.88
938.406	5577.88
938.637	5682.88
938.869	5527.88
939.1	5551.88
939.331	5503.88
939.562	5537.88
939.793	5493.88
940.024	5486.88
940.255	5513.88
940.486	5418.88
940.717	5389.88
940.948	5330.88
941.179	5344.88
941.409	5321.88
941.64	5302.88
941.871	5369.88
942.102	5301.88
942.332	5310.88
942.563	5292.88
942.793	5340.88
943.024	5307.88
943.254	5303.88
943.484	5293.88
943.715	5350.88
943.945	5261.88
944.175	5192.88
944.405	5247.88
944.636	5225.88
944.866	5274.88
945.096	5286.88
945.326	5177.88
945.556	5240.88
945.786	5208.88
946.016	5136.88
946.245	5132.88
946.475	5100.88
946.705	5057.88
946.935	5010.88
947.164	5017.88
947.394	4931.88
947.624	4924.88
947.853	4975.88
948.083	4892.88
948.312	4836.88
948.542	4790.88
948.771	4819.88
949	4837.88
949.23	4827.88
949.459	4783.88
949.688	4870.88
949.917	4794.88
950.146	4791.88
950.375	4864.88
950.604	4713.88
950.833	4816.88
951.062	4821.88
951.291	4726.88
951.52	4684.88
951.749	4719.88
951.978	4666.88
952.206	4671.88
952.435	4630.88
952.664	4624.88
952.892	4683.88
953.121	4650.88
953.349	4651.88
953.578	4676.88
953.806	4610.88
954.035	4499.88
954.263	4532.88
954.491	4449.88
954.719	4543.88
954.948	4476.88
955.176	4397.88
955.404	4367.88
955.632	4453.88
955.86	4411.88
956.088	4333.88
956.316	4324.88
956.544	4355.88
956.772	4308.88
956.999	4233.88
957.227	4324.88
957.455	4244.88
957.683	4213.88
957.91	4195.88
958.138	4159.88
958.365	4143.88
958.593	4129.88
958.82	4083.88
959.048	4114.88
959.275	4044.88
959.502	4048.88
959.73	4063.88
959.957	4044.88
960.184	4111.88
960.411	4025.88
960.638	4099.88
960.865	4019.88
961.092	4039.88
961.319	3956.88
961.546	4037.88
961.773	4078.88
962	3982.88
962.227	4027.88
962.454	3989.88
962.68	3961.88
962.907	3974.88
963.134	3915.88
963.36	3882.88
963.587	3932.88
963.813	3793.88
964.04	3866.88
964.266	3771.88
964.493	3860.88
964.719	3811.88
964.945	3830.88
965.171	3716.88
965.398	3730.88
965.624	3734.88
965.85	3659.88
966.076	3679.88
966.302	3675.88
966.528	3623.88
966.754	3637.88
966.98	3650.88
967.206	3626.88
967.431	3568.88
967.657	3602.88
967.883	3587.88
968.109	3565.88
968.334	3539.88
968.56	3514.88
968.785	3548.88
969.011	3469.88
969.236	3529.88
969.462	3485.88
969.687	3439.88
969.912	3514.88
970.138	3538.88
970.363	3413.88
970.588	3456.88
970.813	3408.88
971.038	3436.88
971.263	3400.88
971.488	3383.88
971.713	3434.88
971.938	3400.88
972.163	3284.88
972.388	3309.88
972.613	3263.88
972.838	3334.88
973.062	3261.88
973.287	3216.88
973.512	3223.88
973.736	3226.88
973.961	3245.88
974.185	3175.88
974.41	3201.88
974.634	3068.88
974.858	3098.88
975.083	3125.88
975.307	3129.88
975.531	3072.88
975.755	3003.88
975.98	3050.88
976.204	2967.88
976.428	2966.88
976.652	2980.88
976.876	2923.88
977.1	2980.88
977.324	2924.88
977.547	2980.88
977.771	2964.88
977.995	2923.88
978.219	2902.88
978.442	2958.88
978.666	2920.88
978.89	2921.88
979.113	2872.88
979.337	2880.88
979.56	2796.88
979.783	2946.88
980.007	2823.88
980.23	2817.88
980.453	2780.88
980.677	2841.88
980.9	2816.88
981.123	2697.88
981.346	2813.88
981.569	2769.88
981.792	2805.88
982.015	2734.88
982.238	2712.88
982.461	2704.88
982.684	2659.88
982.907	2657.88
983.129	2643.88
983.352	2654.88
983.575	2664.88
983.797	2671.88
984.02	2568.88
984.242	2558.88
984.465	2570.88
984.687	2612.88
984.91	2604.88
985.132	2535.88
985.354	2566.88
985.577	2544.88
985.799	2507.88
986.021	2448.88
986.243	2441.88
986.465	2483.88
986.687	2529.88
986.909	2554.88
987.131	2472.88
987.353	2454.88
987.575	2454.88
987.797	2489.88
988.019	2386.88
988.241	2443.88
988.462	2418.88
988.684	2460.88
988.906	2435.88
989.127	2463.88
989.349	2363.88
989.57	2370.88
989.792	2406.88
990.013	2416.88
990.234	2415.88
990.456	2421.88
990.677	2398.88
990.898	2347.88
991.119	2336.88
991.341	2365.88
991.562	2290.88
991.783	2339.88
992.004	2249.88
992.225	2221.88
992.446	2298.88
992.667	2203.88
992.887	2280.88
993.108	2177.88
993.329	2302.88
993.55	2233.88
993.77	2174.88
993.991	2147.88
994.212	2187.88
994.432	2171.88
994.653	2189.88
994.873	2162.88
995.093	2043.88
995.314	2133.88
995.534	2192.88
995.754	2160.88
995.975	2180.88
996.195	2075.88
996.415	2146.88
996.635	2112.88
996.855	2115.88
997.075	2087.88
997.295	2092.88
997.515	2083.88
997.735	2122.88
997.955	2075.88
998.174	2077.88
998.394	2056.88
998.614	2085.88
998.834	2038.88
999.053	2111.88
999.273	2062.88
999.492	2111.88
999.712	2052.88
999.931	1993.88
1000.151	2037.88
1000.37	2034.88
1000.589	2080.88
1000.809	1970.88
1001.028	2069.88
1001.247	1996.88
1001.466	1868.88
1001.685	2033.88
1001.904	1972.88
1002.123	1939.88
1002.342	1984.88
1002.561	1890.88
1002.78	1919.88
1002.999	1957.88
1003.218	1909.88
1003.436	1895.88
1003.655	1909.88
1003.874	1850.88
1004.092	1870.88
1004.311	1934.88
1004.53	1889.88
1004.748	1960.88
1004.966	1895.88
1005.185	1912.88
1005.403	1930.88
1005.622	1893.88
1005.84	1954.88
1006.058	1823.88
1006.276	1877.88
1006.494	2367.88
1006.712	1864.88
1006.931	1945.88
1007.149	1836.88
1007.367	1851.88
1007.584	1896.88
1007.802	1927.88
1008.02	1888.88
1008.238	1970.88
1008.456	1961.88
1008.673	1864.88
1008.891	1965.88
1009.109	1955.88
1009.326	1970.88
1009.544	2072.88
1009.761	2039.88
1009.979	2164.88
1010.196	2180.88
1010.413	2306.88
1010.631	2391.88
1010.848	2448.88
1011.065	2460.88
1011.282	2396.88
1011.5	2310.88
1011.717	2434.88
1011.934	2384.88
1012.151	2380.88
1012.368	2358.88
1012.585	2305.88
1012.801	2397.88
1013.018	2318.88
1013.235	2280.88
1013.452	2274.88
1013.669	2356.88
1013.885	2323.88
1014.102	2382.88
1014.318	2331.88
1014.535	2309.88
1014.751	2321.88
1014.968	2317.88
1015.184	2306.88
1015.401	2173.88
1015.617	2236.88
1015.833	2175.88
1016.049	2181.88
1016.266	2135.88
1016.482	2152.88
1016.698	2047.88
1016.914	2099.88
1017.13	2053.88
1017.346	2030.88
1017.562	2061.88
1017.778	2010.88
1017.993	1980.88
1018.209	2003.88
1018.425	1966.88
1018.641	1952.88
1018.856	1895.88
1019.072	1957.88
1019.288	2027.88
1019.503	1926.88
1019.719	1854.88
1019.934	1851.88
1020.149	1917.88
1020.365	1842.88
1020.58	1804.88
1020.795	1832.88
1021.011	1729.88
1021.226	1718.88
1021.441	1686.88
1021.656	1628.88
1021.871	1562.88
1022.086	1559.88
1022.301	1506.88
1022.516	1530.88
1022.731	1549.88
1022.946	1455.88
1023.16	1414.88
1023.375	1413.88
1023.59	1368.88
1023.804	1336.88
1024.019	1438.88
1024.234	1293.88
1024.448	1298.88
1024.663	1217.88
1024.877	1222.88
1025.092	1244.88
1025.306	1240.88
1025.52	1134.88
1025.734	1209.88
1025.949	1126.88
1026.163	1091.88
1026.377	1023.88
1026.591	1057.88
1026.805	1013.88
1027.019	973.88
1027.233	959.88
1027.447	882.88
1027.661	987.88
1027.875	897.88
1028.088	926.88
1028.302	848.88
1028.516	823.88
1028.73	837.88
1028.943	810.88
1029.157	766.88
1029.37	707.88
1029.584	-0.12
1029.797	-2.12
1030.011	-1.12
1030.224	-4.12
