Data from QEP037381__371__15-05-22-709.txt Node

Date: Fri Apr 28 15:05:22 EDT 2023
User: dcclab
Spectrometer: QEP03738
Trigger mode: 4
Integration Time (sec): 1.000000E1
Scans to average: 1
Electric dark correction enabled: true
Nonlinearity correction enabled: false
Boxcar width: 0
XAxis mode: Wavelengths
Number of Pixels in Spectrum: 1044
>>>>>Begin Spectral Data<<<<<
784.041	10.5
784.3	-3.5
784.558	-3.5
784.817	-1.5
785.075	61195.5
785.334	12417.5
785.592	6508.5
785.851	4612.5
786.109	3524.5
786.368	2774.5
786.626	2247.5
786.884	1868.5
787.143	1595.5
787.401	1321.5
787.659	1229.5
787.917	1043.5
788.175	969.5
788.433	832.5
788.691	765.5
788.949	724.5
789.207	700.5
789.465	618.5
789.723	590.5
789.98	537.5
790.238	574.5
790.496	550.5
790.753	523.5
791.011	570.5
791.268	503.5
791.526	492.5
791.783	528.5
792.041	497.5
792.298	405.5
792.556	483.5
792.813	474.5
793.07	451.5
793.327	441.5
793.584	523.5
793.841	444.5
794.099	467.5
794.356	523.5
794.613	415.5
794.869	470.5
795.126	417.5
795.383	410.5
795.64	424.5
795.897	397.5
796.153	456.5
796.41	423.5
796.667	428.5
796.923	431.5
797.18	422.5
797.436	465.5
797.693	428.5
797.949	472.5
798.206	498.5
798.462	424.5
798.718	486.5
798.974	456.5
799.231	499.5
799.487	495.5
799.743	527.5
799.999	541.5
800.255	540.5
800.511	541.5
800.767	584.5
801.023	573.5
801.279	628.5
801.534	665.5
801.79	731.5
802.046	788.5
802.302	997.5
802.557	1165.5
802.813	1540.5
803.068	2015.5
803.324	2893.5
803.579	3987.5
803.835	5691.5
804.09	7731.5
804.345	9957.5
804.601	12097.5
804.856	14155.5
805.111	15665.5
805.366	16788.5
805.621	17494.5
805.876	18019.5
806.131	18375.5
806.386	18799.5
806.641	19072.5
806.896	19336.5
807.151	19640.5
807.406	19995.5
807.661	20182.5
807.915	20600.5
808.17	20860.5
808.425	21166.5
808.679	21290.5
808.934	21572.5
809.188	21813.5
809.443	22132.5
809.697	22163.5
809.951	22380.5
810.206	22581.5
810.46	22820.5
810.714	23000.5
810.968	23201.5
811.223	23251.5
811.477	23491.5
811.731	23556.5
811.985	23765.5
812.239	23839.5
812.493	23933.5
812.747	24202.5
813	24074.5
813.254	24209.5
813.508	24317.5
813.762	24436.5
814.015	24435.5
814.269	24455.5
814.522	24763.5
814.776	25151.5
815.03	25415.5
815.283	25677.5
815.536	26059.5
815.79	26511.5
816.043	26747.5
816.296	27052.5
816.55	27401.5
816.803	27652.5
817.056	28115.5
817.309	28306.5
817.562	28550.5
817.815	28896.5
818.068	29189.5
818.321	29366.5
818.574	29859.5
818.827	30175.5
819.079	30599.5
819.332	31255.5
819.585	31539.5
819.838	31951.5
820.09	32069.5
820.343	32338.5
820.595	32269.5
820.848	32673.5
821.1	32852.5
821.353	32755.5
821.605	32596.5
821.857	32735.5
822.11	32554.5
822.362	32318.5
822.614	32348.5
822.866	32447.5
823.118	32208.5
823.37	32527.5
823.622	32702.5
823.874	32690.5
824.126	32846.5
824.378	32703.5
824.63	32996.5
824.882	32905.5
825.134	32899.5
825.385	32934.5
825.637	32883.5
825.888	32716.5
826.14	32735.5
826.392	32591.5
826.643	32284.5
826.895	32336.5
827.146	32152.5
827.397	32004.5
827.649	32131.5
827.9	31994.5
828.151	32079.5
828.402	32070.5
828.653	32129.5
828.905	32182.5
829.156	32318.5
829.407	32214.5
829.658	32318.5
829.909	32310.5
830.159	32128.5
830.41	32010.5
830.661	31810.5
830.912	31683.5
831.162	31547.5
831.413	31369.5
831.664	31430.5
831.914	31446.5
832.165	31407.5
832.415	31417.5
832.666	31395.5
832.916	31444.5
833.167	31321.5
833.417	31264.5
833.667	31168.5
833.917	31053.5
834.168	31005.5
834.418	30881.5
834.668	30677.5
834.918	30449.5
835.168	30527.5
835.418	30380.5
835.668	30265.5
835.918	30255.5
836.167	30106.5
836.417	29920.5
836.667	30034.5
836.917	29921.5
837.166	29913.5
837.416	29964.5
837.666	29857.5
837.915	29927.5
838.165	29785.5
838.414	29499.5
838.663	29443.5
838.913	29457.5
839.162	29416.5
839.411	29477.5
839.661	29222.5
839.91	29141.5
840.159	29117.5
840.408	29001.5
840.657	29132.5
840.906	29078.5
841.155	28997.5
841.404	29006.5
841.653	29015.5
841.902	29150.5
842.15	29153.5
842.399	29120.5
842.648	28980.5
842.897	28899.5
843.145	28762.5
843.394	28656.5
843.642	28422.5
843.891	28244.5
844.139	28095.5
844.388	28044.5
844.636	27858.5
844.884	27785.5
845.133	27699.5
845.381	27728.5
845.629	27719.5
845.877	27735.5
846.125	27665.5
846.373	27506.5
846.621	27310.5
846.869	27352.5
847.117	27225.5
847.365	26991.5
847.613	26804.5
847.861	26963.5
848.108	26742.5
848.356	26787.5
848.604	26766.5
848.851	26644.5
849.099	26776.5
849.346	26845.5
849.594	26810.5
849.841	26983.5
850.089	26898.5
850.336	27023.5
850.583	26881.5
850.831	26738.5
851.078	26501.5
851.325	26480.5
851.572	26485.5
851.819	26190.5
852.066	25792.5
852.313	25534.5
852.56	25307.5
852.807	25181.5
853.054	25203.5
853.301	25069.5
853.548	25185.5
853.794	25332.5
854.041	25366.5
854.288	25325.5
854.534	25746.5
854.781	25503.5
855.028	25440.5
855.274	25463.5
855.52	25304.5
855.767	25209.5
856.013	25251.5
856.26	25293.5
856.506	24860.5
856.752	24950.5
856.998	24905.5
857.244	24975.5
857.49	25005.5
857.736	25063.5
857.982	25003.5
858.228	24898.5
858.474	24735.5
858.72	24559.5
858.966	24289.5
859.212	24156.5
859.458	23817.5
859.703	23651.5
859.949	23378.5
860.195	23245.5
860.44	23133.5
860.686	23014.5
860.931	23202.5
861.177	22732.5
861.422	22853.5
861.667	22638.5
861.913	22770.5
862.158	22713.5
862.403	22850.5
862.648	22894.5
862.893	22874.5
863.138	22769.5
863.384	22649.5
863.629	22582.5
863.873	22622.5
864.118	22553.5
864.363	22350.5
864.608	22265.5
864.853	22167.5
865.098	21972.5
865.342	21862.5
865.587	21758.5
865.832	21888.5
866.076	21730.5
866.321	21677.5
866.565	21566.5
866.81	21501.5
867.054	21424.5
867.298	21330.5
867.543	21386.5
867.787	21343.5
868.031	21231.5
868.275	21332.5
868.519	21195.5
868.764	21224.5
869.008	21180.5
869.252	21010.5
869.496	21008.5
869.739	21010.5
869.983	21113.5
870.227	20964.5
870.471	20867.5
870.715	21054.5
870.958	21113.5
871.202	21002.5
871.446	21234.5
871.689	21081.5
871.933	20985.5
872.176	21101.5
872.42	20904.5
872.663	20884.5
872.906	20847.5
873.15	20818.5
873.393	20740.5
873.636	20559.5
873.879	20411.5
874.122	20295.5
874.366	19831.5
874.609	19834.5
874.852	19512.5
875.095	19585.5
875.337	19363.5
875.58	19199.5
875.823	19358.5
876.066	19274.5
876.309	19321.5
876.551	18989.5
876.794	18994.5
877.037	18969.5
877.279	18896.5
877.522	18904.5
877.764	18912.5
878.007	18828.5
878.249	18815.5
878.491	18740.5
878.734	18801.5
878.976	18605.5
879.218	18625.5
879.46	18406.5
879.702	18401.5
879.945	18119.5
880.187	18021.5
880.429	17949.5
880.671	17800.5
880.912	17749.5
881.154	17698.5
881.396	17650.5
881.638	17655.5
881.88	17567.5
882.121	17485.5
882.363	17498.5
882.605	17575.5
882.846	17383.5
883.088	17349.5
883.329	17439.5
883.571	17343.5
883.812	17618.5
884.053	17819.5
884.295	18201.5
884.536	18241.5
884.777	18062.5
885.018	17936.5
885.259	17932.5
885.5	17718.5
885.742	17876.5
885.982	17694.5
886.223	17540.5
886.464	17467.5
886.705	17255.5
886.946	17049.5
887.187	16670.5
887.428	16637.5
887.668	16471.5
887.909	16187.5
888.15	16094.5
888.39	15975.5
888.631	15868.5
888.871	15783.5
889.111	15602.5
889.352	15545.5
889.592	15347.5
889.833	15247.5
890.073	15143.5
890.313	15135.5
890.553	14924.5
890.793	14855.5
891.033	14850.5
891.273	14722.5
891.513	14740.5
891.753	14629.5
891.993	14673.5
892.233	14675.5
892.473	14768.5
892.713	14681.5
892.952	14690.5
893.192	14688.5
893.432	14676.5
893.671	14645.5
893.911	14446.5
894.15	14431.5
894.39	14281.5
894.629	14229.5
894.869	14157.5
895.108	14038.5
895.347	13934.5
895.587	13895.5
895.826	13886.5
896.065	13797.5
896.304	13822.5
896.543	13783.5
896.782	13643.5
897.021	13689.5
897.26	13647.5
897.499	13672.5
897.738	13675.5
897.977	13431.5
898.216	13357.5
898.454	13222.5
898.693	13161.5
898.932	13154.5
899.17	13020.5
899.409	13035.5
899.647	12962.5
899.886	12950.5
900.124	12971.5
900.363	12949.5
900.601	12981.5
900.839	12949.5
901.078	13038.5
901.316	13052.5
901.554	13136.5
901.792	13156.5
902.03	13069.5
902.268	13032.5
902.506	13020.5
902.744	12963.5
902.982	12838.5
903.22	12620.5
903.458	12534.5
903.695	12348.5
903.933	12266.5
904.171	11984.5
904.409	11890.5
904.646	11826.5
904.884	11567.5
905.121	11508.5
905.359	11411.5
905.596	11363.5
905.833	11139.5
906.071	11157.5
906.308	11164.5
906.545	11148.5
906.783	11032.5
907.02	11109.5
907.257	10987.5
907.494	10976.5
907.731	11003.5
907.968	10918.5
908.205	10806.5
908.442	10777.5
908.679	10732.5
908.915	10610.5
909.152	10612.5
909.389	10384.5
909.626	10418.5
909.862	10285.5
910.099	10297.5
910.335	10223.5
910.572	10106.5
910.808	10097.5
911.045	10101.5
911.281	10076.5
911.518	10073.5
911.754	9901.5
911.99	9876.5
912.226	9821.5
912.463	9778.5
912.699	9634.5
912.935	9569.5
913.171	9565.5
913.407	9387.5
913.643	9518.5
913.879	9309.5
914.114	9228.5
914.35	9168.5
914.586	9035.5
914.822	8930.5
915.057	9020.5
915.293	8856.5
915.529	8754.5
915.764	8812.5
916	8757.5
916.235	8752.5
916.471	8762.5
916.706	8703.5
916.941	8682.5
917.177	8671.5
917.412	8733.5
917.647	8637.5
917.882	8615.5
918.117	8664.5
918.352	8574.5
918.588	8638.5
918.823	8531.5
919.057	8419.5
919.292	8207.5
919.527	8212.5
919.762	8101.5
919.997	8116.5
920.232	7941.5
920.466	8001.5
920.701	7852.5
920.935	7798.5
921.17	7721.5
921.405	7644.5
921.639	7697.5
921.873	7683.5
922.108	7597.5
922.342	7620.5
922.576	7493.5
922.811	7553.5
923.045	7569.5
923.279	7512.5
923.513	7368.5
923.747	7432.5
923.981	7367.5
924.215	7289.5
924.449	7240.5
924.683	7207.5
924.917	7144.5
925.151	7147.5
925.385	7168.5
925.618	7095.5
925.852	7069.5
926.086	6987.5
926.319	7006.5
926.553	7032.5
926.786	6975.5
927.02	6976.5
927.253	7067.5
927.486	6983.5
927.72	6893.5
927.953	6950.5
928.186	6892.5
928.42	6883.5
928.653	6834.5
928.886	6741.5
929.119	6764.5
929.352	6707.5
929.585	6723.5
929.818	6594.5
930.051	6581.5
930.284	6579.5
930.516	6462.5
930.749	6385.5
930.982	6406.5
931.215	6435.5
931.447	6323.5
931.68	6324.5
931.912	6303.5
932.145	6278.5
932.377	6329.5
932.61	6475.5
932.842	6230.5
933.074	6299.5
933.307	6205.5
933.539	6360.5
933.771	6273.5
934.003	6241.5
934.236	6277.5
934.468	6255.5
934.7	6167.5
934.932	6179.5
935.164	6127.5
935.395	6126.5
935.627	6109.5
935.859	6134.5
936.091	6090.5
936.323	6097.5
936.554	6043.5
936.786	5984.5
937.017	5940.5
937.249	5980.5
937.481	5885.5
937.712	5951.5
937.943	5894.5
938.175	5843.5
938.406	5885.5
938.637	5927.5
938.869	5830.5
939.1	5838.5
939.331	5763.5
939.562	5862.5
939.793	5752.5
940.024	5792.5
940.255	5781.5
940.486	5690.5
940.717	5712.5
940.948	5654.5
941.179	5558.5
941.409	5586.5
941.64	5621.5
941.871	5597.5
942.102	5563.5
942.332	5582.5
942.563	5614.5
942.793	5571.5
943.024	5501.5
943.254	5595.5
943.484	5598.5
943.715	5572.5
943.945	5571.5
944.175	5476.5
944.405	5502.5
944.636	5463.5
944.866	5522.5
945.096	5481.5
945.326	5425.5
945.556	5446.5
945.786	5484.5
946.016	5373.5
946.245	5304.5
946.475	5281.5
946.705	5220.5
946.935	5268.5
947.164	5188.5
947.394	5164.5
947.624	5138.5
947.853	5176.5
948.083	5113.5
948.312	5097.5
948.542	5050.5
948.771	4974.5
949	5005.5
949.23	5038.5
949.459	5045.5
949.688	5062.5
949.917	4996.5
950.146	5029.5
950.375	5070.5
950.604	4945.5
950.833	5053.5
951.062	5019.5
951.291	4938.5
951.52	4931.5
951.749	4982.5
951.978	4865.5
952.206	4873.5
952.435	4846.5
952.664	4907.5
952.892	4836.5
953.121	4848.5
953.349	4845.5
953.578	4790.5
953.806	4780.5
954.035	4733.5
954.263	4750.5
954.491	4653.5
954.719	4631.5
954.948	4618.5
955.176	4624.5
955.404	4523.5
955.632	4557.5
955.86	4586.5
956.088	4562.5
956.316	4570.5
956.544	4523.5
956.772	4466.5
956.999	4388.5
957.227	4508.5
957.455	4380.5
957.683	4399.5
957.91	4361.5
958.138	4315.5
958.365	4335.5
958.593	4275.5
958.82	4241.5
959.048	4337.5
959.275	4304.5
959.502	4267.5
959.73	4222.5
959.957	4219.5
960.184	4284.5
960.411	4179.5
960.638	4266.5
960.865	4181.5
961.092	4236.5
961.319	4122.5
961.546	4247.5
961.773	4223.5
962	4155.5
962.227	4164.5
962.454	4158.5
962.68	4143.5
962.907	4149.5
963.134	3987.5
963.36	4074.5
963.587	4095.5
963.813	3969.5
964.04	3980.5
964.266	3953.5
964.493	4017.5
964.719	3983.5
964.945	3954.5
965.171	3819.5
965.398	3882.5
965.624	3883.5
965.85	3769.5
966.076	3776.5
966.302	3797.5
966.528	3782.5
966.754	3809.5
966.98	3756.5
967.206	3809.5
967.431	3701.5
967.657	3798.5
967.883	3705.5
968.109	3748.5
968.334	3684.5
968.56	3641.5
968.785	3663.5
969.011	3576.5
969.236	3618.5
969.462	3590.5
969.687	3552.5
969.912	3652.5
970.138	3679.5
970.363	3518.5
970.588	3597.5
970.813	3539.5
971.038	3467.5
971.263	3517.5
971.488	3526.5
971.713	3537.5
971.938	3513.5
972.163	3391.5
972.388	3405.5
972.613	3392.5
972.838	3398.5
973.062	3397.5
973.287	3399.5
973.512	3282.5
973.736	3309.5
973.961	3312.5
974.185	3289.5
974.41	3295.5
974.634	3198.5
974.858	3205.5
975.083	3229.5
975.307	3262.5
975.531	3198.5
975.755	3120.5
975.98	3139.5
976.204	3042.5
976.428	3055.5
976.652	3047.5
976.876	3052.5
977.1	3073.5
977.324	3017.5
977.547	3033.5
977.771	3049.5
977.995	3045.5
978.219	2978.5
978.442	3078.5
978.666	3001.5
978.89	2994.5
979.113	2962.5
979.337	2944.5
979.56	2918.5
979.783	3002.5
980.007	2911.5
980.23	2920.5
980.453	2898.5
980.677	2897.5
980.9	2896.5
981.123	2774.5
981.346	2881.5
981.569	2871.5
981.792	2885.5
982.015	2823.5
982.238	2763.5
982.461	2780.5
982.684	2711.5
982.907	2757.5
983.129	2681.5
983.352	2739.5
983.575	2738.5
983.797	2706.5
984.02	2667.5
984.242	2659.5
984.465	2640.5
984.687	2691.5
984.91	2690.5
985.132	2648.5
985.354	2666.5
985.577	2632.5
985.799	2627.5
986.021	2495.5
986.243	2552.5
986.465	2561.5
986.687	2594.5
986.909	2650.5
987.131	2551.5
987.353	2528.5
987.575	2516.5
987.797	2524.5
988.019	2457.5
988.241	2491.5
988.462	2457.5
988.684	2498.5
988.906	2576.5
989.127	2563.5
989.349	2426.5
989.57	2476.5
989.792	2504.5
990.013	2515.5
990.234	2471.5
990.456	2537.5
990.677	2470.5
990.898	2427.5
991.119	2433.5
991.341	2435.5
991.562	2357.5
991.783	2422.5
992.004	2318.5
992.225	2299.5
992.446	2331.5
992.667	2220.5
992.887	2316.5
993.108	2233.5
993.329	2342.5
993.55	2278.5
993.77	2229.5
993.991	2188.5
994.212	2204.5
994.432	2213.5
994.653	2222.5
994.873	2210.5
995.093	2063.5
995.314	2126.5
995.534	2215.5
995.754	2223.5
995.975	2237.5
996.195	2103.5
996.415	2172.5
996.635	2159.5
996.855	2155.5
997.075	2140.5
997.295	2119.5
997.515	2085.5
997.735	2147.5
997.955	2123.5
998.174	2115.5
998.394	2075.5
998.614	2135.5
998.834	2052.5
999.053	2120.5
999.273	2081.5
999.492	2146.5
999.712	2085.5
999.931	2029.5
1000.151	2060.5
1000.37	2026.5
1000.589	2090.5
1000.809	2035.5
1001.028	2124.5
1001.247	2054.5
1001.466	1928.5
1001.685	2095.5
1001.904	1999.5
1002.123	1970.5
1002.342	2005.5
1002.561	1923.5
1002.78	1938.5
1002.999	2015.5
1003.218	1969.5
1003.436	1937.5
1003.655	1956.5
1003.874	1893.5
1004.092	1922.5
1004.311	1930.5
1004.53	1909.5
1004.748	1981.5
1004.966	1895.5
1005.185	1963.5
1005.403	1914.5
1005.622	1932.5
1005.84	1969.5
1006.058	1905.5
1006.276	1891.5
1006.494	2244.5
1006.712	1878.5
1006.931	1927.5
1007.149	1837.5
1007.367	1885.5
1007.584	1926.5
1007.802	1924.5
1008.02	1869.5
1008.238	1971.5
1008.456	1967.5
1008.673	1845.5
1008.891	1966.5
1009.109	1924.5
1009.326	1978.5
1009.544	2082.5
1009.761	2000.5
1009.979	2076.5
1010.196	2097.5
1010.413	2260.5
1010.631	2290.5
1010.848	2305.5
1011.065	2323.5
1011.282	2260.5
1011.5	2204.5
1011.717	2306.5
1011.934	2239.5
1012.151	2278.5
1012.368	2242.5
1012.585	2159.5
1012.801	2242.5
1013.018	2209.5
1013.235	2203.5
1013.452	2184.5
1013.669	2195.5
1013.885	2200.5
1014.102	2217.5
1014.318	2202.5
1014.535	2133.5
1014.751	2164.5
1014.968	2172.5
1015.184	2172.5
1015.401	2088.5
1015.617	2094.5
1015.833	2070.5
1016.049	2070.5
1016.266	2013.5
1016.482	1994.5
1016.698	1934.5
1016.914	1986.5
1017.13	1919.5
1017.346	1921.5
1017.562	1998.5
1017.778	1885.5
1017.993	1874.5
1018.209	1895.5
1018.425	1881.5
1018.641	1878.5
1018.856	1866.5
1019.072	1862.5
1019.288	1924.5
1019.503	1855.5
1019.719	1784.5
1019.934	1811.5
1020.149	1850.5
1020.365	1792.5
1020.58	1748.5
1020.795	1751.5
1021.011	1682.5
1021.226	1664.5
1021.441	1682.5
1021.656	1566.5
1021.871	1512.5
1022.086	1520.5
1022.301	1471.5
1022.516	1481.5
1022.731	1534.5
1022.946	1429.5
1023.16	1413.5
1023.375	1387.5
1023.59	1355.5
1023.804	1287.5
1024.019	1422.5
1024.234	1298.5
1024.448	1307.5
1024.663	1217.5
1024.877	1223.5
1025.092	1234.5
1025.306	1263.5
1025.52	1125.5
1025.734	1203.5
1025.949	1114.5
1026.163	1114.5
1026.377	1027.5
1026.591	1072.5
1026.805	1003.5
1027.019	1016.5
1027.233	950.5
1027.447	938.5
1027.661	1010.5
1027.875	947.5
1028.088	953.5
1028.302	860.5
1028.516	865.5
1028.73	843.5
1028.943	845.5
1029.157	781.5
1029.37	719.5
1029.584	-0.5
1029.797	1.5
1030.011	-3.5
1030.224	0.5
