Data from QEP037381__376__15-06-12-707.txt Node

Date: Fri Apr 28 15:06:12 EDT 2023
User: dcclab
Spectrometer: QEP03738
Trigger mode: 4
Integration Time (sec): 1.000000E1
Scans to average: 1
Electric dark correction enabled: true
Nonlinearity correction enabled: false
Boxcar width: 0
XAxis mode: Wavelengths
Number of Pixels in Spectrum: 1044
>>>>>Begin Spectral Data<<<<<
784.041	13.88
784.3	2.88
784.558	-4.12
784.817	-3.12
785.075	65075.88
785.334	13221.88
785.592	6950.88
785.851	4884.88
786.109	3710.88
786.368	2935.88
786.626	2363.88
786.884	1975.88
787.143	1654.88
787.401	1383.88
787.659	1244.88
787.917	1064.88
788.175	989.88
788.433	872.88
788.691	792.88
788.949	714.88
789.207	693.88
789.465	606.88
789.723	586.88
789.98	544.88
790.238	587.88
790.496	536.88
790.753	524.88
791.011	567.88
791.268	510.88
791.526	485.88
791.783	510.88
792.041	494.88
792.298	427.88
792.556	471.88
792.813	458.88
793.07	437.88
793.327	426.88
793.584	518.88
793.841	425.88
794.099	444.88
794.356	507.88
794.613	393.88
794.869	448.88
795.126	399.88
795.383	397.88
795.64	418.88
795.897	379.88
796.153	418.88
796.41	410.88
796.667	399.88
796.923	408.88
797.18	406.88
797.436	434.88
797.693	383.88
797.949	437.88
798.206	479.88
798.462	389.88
798.718	437.88
798.974	437.88
799.231	459.88
799.487	443.88
799.743	458.88
799.999	482.88
800.255	470.88
800.511	454.88
800.767	494.88
801.023	487.88
801.279	514.88
801.534	555.88
801.79	612.88
802.046	625.88
802.302	745.88
802.557	878.88
802.813	1087.88
803.068	1367.88
803.324	1911.88
803.579	2671.88
803.835	3708.88
804.09	5055.88
804.345	6534.88
804.601	8023.88
804.856	9403.88
805.111	10390.88
805.366	11119.88
805.621	11484.88
805.876	11947.88
806.131	12069.88
806.386	12265.88
806.641	12424.88
806.896	12609.88
807.151	12832.88
807.406	12953.88
807.661	13112.88
807.915	13400.88
808.17	13502.88
808.425	13604.88
808.679	13745.88
808.934	13930.88
809.188	14004.88
809.443	14253.88
809.697	14404.88
809.951	14426.88
810.206	14563.88
810.46	14650.88
810.714	14717.88
810.968	14836.88
811.223	14975.88
811.477	15061.88
811.731	15163.88
811.985	15237.88
812.239	15108.88
812.493	15318.88
812.747	15576.88
813	15403.88
813.254	15397.88
813.508	15590.88
813.762	15629.88
814.015	15617.88
814.269	15808.88
814.522	15876.88
814.776	16079.88
815.03	16267.88
815.283	16413.88
815.536	16724.88
815.79	16894.88
816.043	17090.88
816.296	17239.88
816.55	17402.88
816.803	17677.88
817.056	17867.88
817.309	17902.88
817.562	18131.88
817.815	18297.88
818.068	18437.88
818.321	18603.88
818.574	18855.88
818.827	19150.88
819.079	19312.88
819.332	19747.88
819.585	19875.88
819.838	20186.88
820.09	20259.88
820.343	20475.88
820.595	20461.88
820.848	20591.88
821.1	20725.88
821.353	20608.88
821.605	20700.88
821.857	20687.88
822.11	20576.88
822.362	20513.88
822.614	20482.88
822.866	20536.88
823.118	20501.88
823.37	20684.88
823.622	20658.88
823.874	20700.88
824.126	20765.88
824.378	20806.88
824.63	20940.88
824.882	20931.88
825.134	20790.88
825.385	20864.88
825.637	20831.88
825.888	20729.88
826.14	20599.88
826.392	20581.88
826.643	20372.88
826.895	20459.88
827.146	20289.88
827.397	20308.88
827.649	20343.88
827.9	20235.88
828.151	20347.88
828.402	20319.88
828.653	20349.88
828.905	20407.88
829.156	20508.88
829.407	20299.88
829.658	20271.88
829.909	20378.88
830.159	20355.88
830.41	20083.88
830.661	20079.88
830.912	19855.88
831.162	19842.88
831.413	19827.88
831.664	19882.88
831.914	19885.88
832.165	19835.88
832.415	19818.88
832.666	19850.88
832.916	19860.88
833.167	19778.88
833.417	19705.88
833.667	19565.88
833.917	19626.88
834.168	19516.88
834.418	19482.88
834.668	19319.88
834.918	19221.88
835.168	19185.88
835.418	19077.88
835.668	19146.88
835.918	19107.88
836.167	19066.88
836.417	18965.88
836.667	18965.88
836.917	19044.88
837.166	18929.88
837.416	18996.88
837.666	18896.88
837.915	18774.88
838.165	18635.88
838.414	18721.88
838.663	18456.88
838.913	18460.88
839.162	18384.88
839.411	18511.88
839.661	18313.88
839.91	18361.88
840.159	18330.88
840.408	18303.88
840.657	18432.88
840.906	18185.88
841.155	18277.88
841.404	18266.88
841.653	18168.88
841.902	18321.88
842.15	18205.88
842.399	18322.88
842.648	18173.88
842.897	18099.88
843.145	17931.88
843.394	17908.88
843.642	17726.88
843.891	17730.88
844.139	17671.88
844.388	17635.88
844.636	17435.88
844.884	17486.88
845.133	17391.88
845.381	17419.88
845.629	17377.88
845.877	17278.88
846.125	17342.88
846.373	17217.88
846.621	17222.88
846.869	17198.88
847.117	17128.88
847.365	16954.88
847.613	16988.88
847.861	16893.88
848.108	16858.88
848.356	16747.88
848.604	16714.88
848.851	16825.88
849.099	16773.88
849.346	16795.88
849.594	16899.88
849.841	16971.88
850.089	16891.88
850.336	16897.88
850.583	16870.88
850.831	16771.88
851.078	16686.88
851.325	16645.88
851.572	16574.88
851.819	16444.88
852.066	16063.88
852.313	16014.88
852.56	15940.88
852.807	15878.88
853.054	15731.88
853.301	15871.88
853.548	15810.88
853.794	15890.88
854.041	15921.88
854.288	16004.88
854.534	16178.88
854.781	16107.88
855.028	15956.88
855.274	16008.88
855.52	15860.88
855.767	15734.88
856.013	15697.88
856.26	15878.88
856.506	15548.88
856.752	15549.88
856.998	15489.88
857.244	15531.88
857.49	15578.88
857.736	15587.88
857.982	15637.88
858.228	15576.88
858.474	15462.88
858.72	15410.88
858.966	15331.88
859.212	15168.88
859.458	14938.88
859.703	14848.88
859.949	14698.88
860.195	14592.88
860.44	14581.88
860.686	14426.88
860.931	14410.88
861.177	14283.88
861.422	14391.88
861.667	14268.88
861.913	14300.88
862.158	14292.88
862.403	14386.88
862.648	14431.88
862.893	14422.88
863.138	14310.88
863.384	14275.88
863.629	14342.88
863.873	14259.88
864.118	14164.88
864.363	14079.88
864.608	14056.88
864.853	13941.88
865.098	13861.88
865.342	13730.88
865.587	13780.88
865.832	13732.88
866.076	13652.88
866.321	13580.88
866.565	13597.88
866.81	13447.88
867.054	13514.88
867.298	13505.88
867.543	13383.88
867.787	13486.88
868.031	13454.88
868.275	13361.88
868.519	13304.88
868.764	13359.88
869.008	13259.88
869.252	13286.88
869.496	13209.88
869.739	13228.88
869.983	13183.88
870.227	13168.88
870.471	13042.88
870.715	13164.88
870.958	13143.88
871.202	13087.88
871.446	13117.88
871.689	13075.88
871.933	13129.88
872.176	13089.88
872.42	13116.88
872.663	13020.88
872.906	13060.88
873.15	12977.88
873.393	12713.88
873.636	12832.88
873.879	12611.88
874.122	12564.88
874.366	12371.88
874.609	12388.88
874.852	12216.88
875.095	12254.88
875.337	12173.88
875.58	12009.88
875.823	12028.88
876.066	12096.88
876.309	12097.88
876.551	11977.88
876.794	11973.88
877.037	11926.88
877.279	11765.88
877.522	11889.88
877.764	12015.88
878.007	11917.88
878.249	11860.88
878.491	11858.88
878.734	11860.88
878.976	11775.88
879.218	11709.88
879.46	11624.88
879.702	11610.88
879.945	11515.88
880.187	11379.88
880.429	11321.88
880.671	11296.88
880.912	11215.88
881.154	11123.88
881.396	11062.88
881.638	11072.88
881.88	11079.88
882.121	11028.88
882.363	11063.88
882.605	11084.88
882.846	10956.88
883.088	10901.88
883.329	10901.88
883.571	10926.88
883.812	10893.88
884.053	10999.88
884.295	11081.88
884.536	11113.88
884.777	11065.88
885.018	10944.88
885.259	10981.88
885.5	10788.88
885.742	11096.88
885.982	10890.88
886.223	10804.88
886.464	10703.88
886.705	10609.88
886.946	10590.88
887.187	10538.88
887.428	10574.88
887.668	10305.88
887.909	10267.88
888.15	10156.88
888.39	10223.88
888.631	10127.88
888.871	10027.88
889.111	9955.88
889.352	9888.88
889.592	9757.88
889.833	9735.88
890.073	9638.88
890.313	9589.88
890.553	9539.88
890.793	9531.88
891.033	9452.88
891.273	9345.88
891.513	9409.88
891.753	9328.88
891.993	9325.88
892.233	9369.88
892.473	9409.88
892.713	9337.88
892.952	9312.88
893.192	9371.88
893.432	9351.88
893.671	9327.88
893.911	9237.88
894.15	9139.88
894.39	9062.88
894.629	9040.88
894.869	9008.88
895.108	8942.88
895.347	8872.88
895.587	8895.88
895.826	8774.88
896.065	8782.88
896.304	8787.88
896.543	8826.88
896.782	8729.88
897.021	8652.88
897.26	8646.88
897.499	8710.88
897.738	8651.88
897.977	8590.88
898.216	8489.88
898.454	8431.88
898.693	8299.88
898.932	8376.88
899.17	8261.88
899.409	8259.88
899.647	8224.88
899.886	8197.88
900.124	8209.88
900.363	8205.88
900.601	8188.88
900.839	8163.88
901.078	8227.88
901.316	8258.88
901.554	8222.88
901.792	8158.88
902.03	8173.88
902.268	8192.88
902.506	8189.88
902.744	8084.88
902.982	8096.88
903.22	7930.88
903.458	7871.88
903.695	7813.88
903.933	7790.88
904.171	7631.88
904.409	7542.88
904.646	7549.88
904.884	7394.88
905.121	7433.88
905.359	7336.88
905.596	7186.88
905.833	7170.88
906.071	7143.88
906.308	7165.88
906.545	7129.88
906.783	7138.88
907.02	7064.88
907.257	7028.88
907.494	7028.88
907.731	7018.88
907.968	7055.88
908.205	6923.88
908.442	6882.88
908.679	6904.88
908.915	6821.88
909.152	6771.88
909.389	6606.88
909.626	6643.88
909.862	6581.88
910.099	6604.88
910.335	6599.88
910.572	6418.88
910.808	6509.88
911.045	6527.88
911.281	6462.88
911.518	6501.88
911.754	6442.88
911.99	6412.88
912.226	6321.88
912.463	6267.88
912.699	6242.88
912.935	6221.88
913.171	6208.88
913.407	6078.88
913.643	6103.88
913.879	6043.88
914.114	5983.88
914.35	5888.88
914.586	5860.88
914.822	5799.88
915.057	5825.88
915.293	5674.88
915.529	5653.88
915.764	5715.88
916	5683.88
916.235	5688.88
916.471	5687.88
916.706	5584.88
916.941	5612.88
917.177	5613.88
917.412	5620.88
917.647	5646.88
917.882	5543.88
918.117	5576.88
918.352	5541.88
918.588	5597.88
918.823	5471.88
919.057	5421.88
919.292	5257.88
919.527	5369.88
919.762	5261.88
919.997	5256.88
920.232	5110.88
920.466	5136.88
920.701	5011.88
920.935	5023.88
921.17	5003.88
921.405	4968.88
921.639	4956.88
921.873	4897.88
922.108	4909.88
922.342	4951.88
922.576	4878.88
922.811	4862.88
923.045	4909.88
923.279	4922.88
923.513	4736.88
923.747	4838.88
923.981	4776.88
924.215	4728.88
924.449	4716.88
924.683	4647.88
924.917	4676.88
925.151	4602.88
925.385	4641.88
925.618	4611.88
925.852	4606.88
926.086	4543.88
926.319	4587.88
926.553	4561.88
926.786	4550.88
927.02	4550.88
927.253	4580.88
927.486	4518.88
927.72	4452.88
927.953	4512.88
928.186	4466.88
928.42	4481.88
928.653	4420.88
928.886	4397.88
929.119	4423.88
929.352	4450.88
929.585	4331.88
929.818	4300.88
930.051	4270.88
930.284	4292.88
930.516	4175.88
930.749	4169.88
930.982	4225.88
931.215	4135.88
931.447	4090.88
931.68	4059.88
931.912	4053.88
932.145	4106.88
932.377	4109.88
932.61	4192.88
932.842	4001.88
933.074	4094.88
933.307	4035.88
933.539	4129.88
933.771	4102.88
934.003	4040.88
934.236	4179.88
934.468	4130.88
934.7	4023.88
934.932	4081.88
935.164	3961.88
935.395	3972.88
935.627	4002.88
935.859	3984.88
936.091	3926.88
936.323	3979.88
936.554	3978.88
936.786	3932.88
937.017	3852.88
937.249	3905.88
937.481	3817.88
937.712	3881.88
937.943	3889.88
938.175	3864.88
938.406	3812.88
938.637	3862.88
938.869	3768.88
939.1	3835.88
939.331	3787.88
939.562	3811.88
939.793	3824.88
940.024	3785.88
940.255	3777.88
940.486	3726.88
940.717	3704.88
940.948	3736.88
941.179	3657.88
941.409	3712.88
941.64	3643.88
941.871	3634.88
942.102	3648.88
942.332	3636.88
942.563	3659.88
942.793	3636.88
943.024	3602.88
943.254	3654.88
943.484	3704.88
943.715	3709.88
943.945	3661.88
944.175	3535.88
944.405	3536.88
944.636	3579.88
944.866	3604.88
945.096	3605.88
945.326	3547.88
945.556	3586.88
945.786	3615.88
946.016	3580.88
946.245	3447.88
946.475	3482.88
946.705	3473.88
946.935	3437.88
947.164	3428.88
947.394	3425.88
947.624	3432.88
947.853	3409.88
948.083	3417.88
948.312	3335.88
948.542	3315.88
948.771	3249.88
949	3259.88
949.23	3271.88
949.459	3315.88
949.688	3364.88
949.917	3253.88
950.146	3332.88
950.375	3329.88
950.604	3257.88
950.833	3385.88
951.062	3343.88
951.291	3241.88
951.52	3249.88
951.749	3285.88
951.978	3211.88
952.206	3215.88
952.435	3195.88
952.664	3218.88
952.892	3234.88
953.121	3209.88
953.349	3222.88
953.578	3178.88
953.806	3188.88
954.035	3129.88
954.263	3083.88
954.491	3044.88
954.719	3159.88
954.948	3043.88
955.176	3026.88
955.404	2949.88
955.632	3023.88
955.86	3010.88
956.088	3020.88
956.316	3047.88
956.544	3021.88
956.772	2981.88
956.999	2956.88
957.227	3014.88
957.455	2924.88
957.683	2937.88
957.91	2877.88
958.138	2907.88
958.365	2855.88
958.593	2805.88
958.82	2793.88
959.048	2878.88
959.275	2847.88
959.502	2841.88
959.73	2777.88
959.957	2791.88
960.184	2857.88
960.411	2773.88
960.638	2871.88
960.865	2797.88
961.092	2841.88
961.319	2724.88
961.546	2849.88
961.773	2819.88
962	2743.88
962.227	2813.88
962.454	2762.88
962.68	2750.88
962.907	2753.88
963.134	2677.88
963.36	2694.88
963.587	2728.88
963.813	2674.88
964.04	2676.88
964.266	2633.88
964.493	2719.88
964.719	2666.88
964.945	2655.88
965.171	2567.88
965.398	2615.88
965.624	2614.88
965.85	2549.88
966.076	2547.88
966.302	2602.88
966.528	2550.88
966.754	2605.88
966.98	2549.88
967.206	2562.88
967.431	2457.88
967.657	2562.88
967.883	2573.88
968.109	2487.88
968.334	2502.88
968.56	2460.88
968.785	2480.88
969.011	2414.88
969.236	2509.88
969.462	2437.88
969.687	2426.88
969.912	2481.88
970.138	2481.88
970.363	2388.88
970.588	2429.88
970.813	2400.88
971.038	2400.88
971.263	2371.88
971.488	2422.88
971.713	2423.88
971.938	2407.88
972.163	2300.88
972.388	2313.88
972.613	2286.88
972.838	2332.88
973.062	2310.88
973.287	2315.88
973.512	2244.88
973.736	2305.88
973.961	2237.88
974.185	2199.88
974.41	2253.88
974.634	2168.88
974.858	2186.88
975.083	2215.88
975.307	2236.88
975.531	2200.88
975.755	2079.88
975.98	2131.88
976.204	2052.88
976.428	2058.88
976.652	2099.88
976.876	2039.88
977.1	2081.88
977.324	2048.88
977.547	2093.88
977.771	2112.88
977.995	2054.88
978.219	1989.88
978.442	2120.88
978.666	2052.88
978.89	2016.88
979.113	2013.88
979.337	2044.88
979.56	2008.88
979.783	2088.88
980.007	1969.88
980.23	1987.88
980.453	1976.88
980.677	2018.88
980.9	1976.88
981.123	1898.88
981.346	1990.88
981.569	1963.88
981.792	1987.88
982.015	1935.88
982.238	1887.88
982.461	1917.88
982.684	1893.88
982.907	1865.88
983.129	1840.88
983.352	1890.88
983.575	1855.88
983.797	1876.88
984.02	1846.88
984.242	1820.88
984.465	1828.88
984.687	1860.88
984.91	1879.88
985.132	1855.88
985.354	1867.88
985.577	1817.88
985.799	1806.88
986.021	1741.88
986.243	1759.88
986.465	1792.88
986.687	1812.88
986.909	1866.88
987.131	1791.88
987.353	1768.88
987.575	1810.88
987.797	1756.88
988.019	1702.88
988.241	1769.88
988.462	1705.88
988.684	1747.88
988.906	1798.88
989.127	1828.88
989.349	1673.88
989.57	1732.88
989.792	1751.88
990.013	1774.88
990.234	1743.88
990.456	1774.88
990.677	1766.88
990.898	1708.88
991.119	1712.88
991.341	1715.88
991.562	1645.88
991.783	1691.88
992.004	1630.88
992.225	1614.88
992.446	1673.88
992.667	1578.88
992.887	1648.88
993.108	1554.88
993.329	1683.88
993.55	1636.88
993.77	1575.88
993.991	1563.88
994.212	1589.88
994.432	1585.88
994.653	1598.88
994.873	1621.88
995.093	1482.88
995.314	1517.88
995.534	1612.88
995.754	1607.88
995.975	1645.88
996.195	1526.88
996.415	1568.88
996.635	1525.88
996.855	1570.88
997.075	1511.88
997.295	1510.88
997.515	1495.88
997.735	1553.88
997.955	1514.88
998.174	1490.88
998.394	1464.88
998.614	1548.88
998.834	1486.88
999.053	1541.88
999.273	1539.88
999.492	1550.88
999.712	1496.88
999.931	1466.88
1000.151	1514.88
1000.37	1489.88
1000.589	1554.88
1000.809	1453.88
1001.028	1576.88
1001.247	1519.88
1001.466	1401.88
1001.685	1557.88
1001.904	1481.88
1002.123	1473.88
1002.342	1481.88
1002.561	1430.88
1002.78	1452.88
1002.999	1523.88
1003.218	1453.88
1003.436	1431.88
1003.655	1498.88
1003.874	1436.88
1004.092	1458.88
1004.311	1490.88
1004.53	1422.88
1004.748	1494.88
1004.966	1442.88
1005.185	1474.88
1005.403	1489.88
1005.622	1456.88
1005.84	1521.88
1006.058	1434.88
1006.276	1459.88
1006.494	1826.88
1006.712	1430.88
1006.931	1510.88
1007.149	1390.88
1007.367	1426.88
1007.584	1430.88
1007.802	1476.88
1008.02	1421.88
1008.238	1514.88
1008.456	1475.88
1008.673	1346.88
1008.891	1459.88
1009.109	1389.88
1009.326	1440.88
1009.544	1512.88
1009.761	1413.88
1009.979	1504.88
1010.196	1480.88
1010.413	1545.88
1010.631	1569.88
1010.848	1615.88
1011.065	1562.88
1011.282	1532.88
1011.5	1466.88
1011.717	1569.88
1011.934	1517.88
1012.151	1538.88
1012.368	1516.88
1012.585	1467.88
1012.801	1504.88
1013.018	1472.88
1013.235	1421.88
1013.452	1474.88
1013.669	1469.88
1013.885	1429.88
1014.102	1468.88
1014.318	1464.88
1014.535	1382.88
1014.751	1444.88
1014.968	1423.88
1015.184	1458.88
1015.401	1363.88
1015.617	1411.88
1015.833	1364.88
1016.049	1358.88
1016.266	1342.88
1016.482	1344.88
1016.698	1265.88
1016.914	1349.88
1017.13	1293.88
1017.346	1279.88
1017.562	1352.88
1017.778	1254.88
1017.993	1221.88
1018.209	1317.88
1018.425	1283.88
1018.641	1245.88
1018.856	1215.88
1019.072	1274.88
1019.288	1302.88
1019.503	1242.88
1019.719	1153.88
1019.934	1188.88
1020.149	1259.88
1020.365	1223.88
1020.58	1152.88
1020.795	1186.88
1021.011	1167.88
1021.226	1137.88
1021.441	1166.88
1021.656	1101.88
1021.871	1041.88
1022.086	1045.88
1022.301	1024.88
1022.516	1025.88
1022.731	1093.88
1022.946	1003.88
1023.16	985.88
1023.375	983.88
1023.59	939.88
1023.804	913.88
1024.019	1035.88
1024.234	905.88
1024.448	934.88
1024.663	887.88
1024.877	899.88
1025.092	917.88
1025.306	933.88
1025.52	838.88
1025.734	933.88
1025.949	856.88
1026.163	838.88
1026.377	754.88
1026.591	837.88
1026.805	760.88
1027.019	755.88
1027.233	736.88
1027.447	663.88
1027.661	765.88
1027.875	709.88
1028.088	710.88
1028.302	637.88
1028.516	640.88
1028.73	648.88
1028.943	643.88
1029.157	605.88
1029.37	577.88
1029.584	0.88
1029.797	-0.12
1030.011	-5.12
1030.224	-5.12
