Data from QEP037381__368__15-04-52-710.txt Node

Date: Fri Apr 28 15:04:52 EDT 2023
User: dcclab
Spectrometer: QEP03738
Trigger mode: 4
Integration Time (sec): 1.000000E1
Scans to average: 1
Electric dark correction enabled: true
Nonlinearity correction enabled: false
Boxcar width: 0
XAxis mode: Wavelengths
Number of Pixels in Spectrum: 1044
>>>>>Begin Spectral Data<<<<<
784.041	13.12
784.3	1.12
784.558	-2.88
784.817	-2.88
785.075	62568.12
785.334	12806.12
785.592	6749.12
785.851	4764.12
786.109	3656.12
786.368	2862.12
786.626	2306.12
786.884	1895.12
787.143	1617.12
787.401	1337.12
787.659	1231.12
787.917	1053.12
788.175	978.12
788.433	868.12
788.691	766.12
788.949	719.12
789.207	684.12
789.465	580.12
789.723	585.12
789.98	519.12
790.238	589.12
790.496	534.12
790.753	525.12
791.011	561.12
791.268	510.12
791.526	486.12
791.783	500.12
792.041	486.12
792.298	393.12
792.556	489.12
792.813	447.12
793.07	444.12
793.327	432.12
793.584	498.12
793.841	414.12
794.099	433.12
794.356	494.12
794.613	404.12
794.869	436.12
795.126	398.12
795.383	375.12
795.64	420.12
795.897	366.12
796.153	420.12
796.41	392.12
796.667	402.12
796.923	399.12
797.18	380.12
797.436	428.12
797.693	395.12
797.949	440.12
798.206	460.12
798.462	380.12
798.718	440.12
798.974	416.12
799.231	456.12
799.487	448.12
799.743	457.12
799.999	473.12
800.255	467.12
800.511	462.12
800.767	495.12
801.023	495.12
801.279	514.12
801.534	556.12
801.79	605.12
802.046	621.12
802.302	753.12
802.557	884.12
802.813	1095.12
803.068	1352.12
803.324	1909.12
803.579	2626.12
803.835	3665.12
804.09	4997.12
804.345	6440.12
804.601	7921.12
804.856	9321.12
805.111	10334.12
805.366	11016.12
805.621	11475.12
805.876	11821.12
806.131	11979.12
806.386	12187.12
806.641	12344.12
806.896	12556.12
807.151	12768.12
807.406	12778.12
807.661	13012.12
807.915	13188.12
808.17	13488.12
808.425	13662.12
808.679	13681.12
808.934	13829.12
809.188	13917.12
809.443	14157.12
809.697	14219.12
809.951	14285.12
810.206	14413.12
810.46	14545.12
810.714	14661.12
810.968	14793.12
811.223	14858.12
811.477	14916.12
811.731	15131.12
811.985	15127.12
812.239	15134.12
812.493	15253.12
812.747	15317.12
813	15334.12
813.254	15409.12
813.508	15471.12
813.762	15410.12
814.015	15459.12
814.269	15646.12
814.522	15720.12
814.776	15943.12
815.03	16093.12
815.283	16380.12
815.536	16487.12
815.79	16697.12
816.043	16973.12
816.296	17067.12
816.55	17330.12
816.803	17436.12
817.056	17726.12
817.309	17736.12
817.562	17938.12
817.815	18233.12
818.068	18315.12
818.321	18369.12
818.574	18626.12
818.827	18882.12
819.079	19010.12
819.332	19552.12
819.585	19593.12
819.838	19957.12
820.09	19995.12
820.343	20151.12
820.595	20263.12
820.848	20415.12
821.1	20482.12
821.353	20420.12
821.605	20476.12
821.857	20410.12
822.11	20340.12
822.362	20172.12
822.614	20228.12
822.866	20163.12
823.118	20211.12
823.37	20533.12
823.622	20291.12
823.874	20477.12
824.126	20557.12
824.378	20541.12
824.63	20642.12
824.882	20668.12
825.134	20585.12
825.385	20587.12
825.637	20523.12
825.888	20352.12
826.14	20493.12
826.392	20310.12
826.643	20233.12
826.895	20102.12
827.146	20013.12
827.397	19919.12
827.649	20019.12
827.9	20057.12
828.151	19989.12
828.402	19911.12
828.653	20095.12
828.905	20148.12
829.156	20168.12
829.407	20033.12
829.658	20125.12
829.909	20051.12
830.159	20062.12
830.41	19841.12
830.661	19820.12
830.912	19714.12
831.162	19527.12
831.413	19524.12
831.664	19683.12
831.914	19550.12
832.165	19607.12
832.415	19623.12
832.666	19566.12
832.916	19654.12
833.167	19461.12
833.417	19487.12
833.667	19413.12
833.917	19263.12
834.168	19310.12
834.418	19294.12
834.668	19080.12
834.918	19025.12
835.168	19142.12
835.418	18904.12
835.668	18852.12
835.918	18786.12
836.167	18793.12
836.417	18707.12
836.667	18812.12
836.917	18740.12
837.166	18605.12
837.416	18662.12
837.666	18623.12
837.915	18542.12
838.165	18481.12
838.414	18456.12
838.663	18214.12
838.913	18276.12
839.162	18157.12
839.411	18247.12
839.661	18154.12
839.91	18099.12
840.159	18027.12
840.408	18131.12
840.657	18097.12
840.906	18007.12
841.155	18105.12
841.404	17950.12
841.653	18038.12
841.902	17953.12
842.15	18039.12
842.399	18024.12
842.648	17988.12
842.897	17891.12
843.145	17825.12
843.394	17698.12
843.642	17576.12
843.891	17601.12
844.139	17503.12
844.388	17332.12
844.636	17268.12
844.884	17312.12
845.133	17211.12
845.381	17134.12
845.629	17257.12
845.877	17111.12
846.125	17110.12
846.373	17073.12
846.621	17010.12
846.869	17000.12
847.117	16883.12
847.365	16778.12
847.613	16689.12
847.861	16806.12
848.108	16678.12
848.356	16570.12
848.604	16512.12
848.851	16582.12
849.099	16633.12
849.346	16614.12
849.594	16718.12
849.841	16715.12
850.089	16752.12
850.336	16773.12
850.583	16746.12
850.831	16575.12
851.078	16482.12
851.325	16378.12
851.572	16312.12
851.819	16119.12
852.066	15987.12
852.313	15740.12
852.56	15733.12
852.807	15649.12
853.054	15529.12
853.301	15518.12
853.548	15669.12
853.794	15816.12
854.041	15637.12
854.288	15780.12
854.534	15962.12
854.781	15873.12
855.028	15831.12
855.274	15808.12
855.52	15699.12
855.767	15515.12
856.013	15511.12
856.26	15757.12
856.506	15270.12
856.752	15370.12
856.998	15417.12
857.244	15326.12
857.49	15366.12
857.736	15354.12
857.982	15426.12
858.228	15501.12
858.474	15277.12
858.72	15237.12
858.966	15074.12
859.212	14965.12
859.458	14718.12
859.703	14696.12
859.949	14532.12
860.195	14387.12
860.44	14492.12
860.686	14258.12
860.931	14289.12
861.177	14211.12
861.422	14184.12
861.667	14090.12
861.913	14099.12
862.158	14116.12
862.403	14272.12
862.648	14121.12
862.893	14227.12
863.138	14198.12
863.384	14063.12
863.629	14096.12
863.873	14123.12
864.118	13997.12
864.363	13833.12
864.608	13829.12
864.853	13785.12
865.098	13769.12
865.342	13607.12
865.587	13544.12
865.832	13575.12
866.076	13517.12
866.321	13517.12
866.565	13520.12
866.81	13329.12
867.054	13316.12
867.298	13367.12
867.543	13238.12
867.787	13318.12
868.031	13246.12
868.275	13292.12
868.519	13194.12
868.764	13168.12
869.008	13121.12
869.252	13127.12
869.496	13059.12
869.739	12928.12
869.983	13082.12
870.227	12986.12
870.471	12996.12
870.715	12970.12
870.958	12974.12
871.202	12983.12
871.446	13127.12
871.689	13008.12
871.933	13073.12
872.176	13010.12
872.42	12972.12
872.663	12882.12
872.906	12979.12
873.15	12788.12
873.393	12756.12
873.636	12732.12
873.879	12597.12
874.122	12477.12
874.366	12287.12
874.609	12310.12
874.852	12157.12
875.095	12201.12
875.337	12080.12
875.58	12019.12
875.823	12012.12
876.066	11981.12
876.309	12004.12
876.551	11860.12
876.794	11734.12
877.037	11754.12
877.279	11705.12
877.522	11755.12
877.764	11861.12
878.007	11742.12
878.249	11824.12
878.491	11673.12
878.734	11733.12
878.976	11699.12
879.218	11495.12
879.46	11498.12
879.702	11516.12
879.945	11359.12
880.187	11288.12
880.429	11280.12
880.671	11170.12
880.912	11117.12
881.154	11043.12
881.396	11011.12
881.638	10993.12
881.88	11018.12
882.121	10960.12
882.363	10945.12
882.605	11010.12
882.846	10911.12
883.088	10886.12
883.329	10808.12
883.571	10829.12
883.812	10827.12
884.053	11001.12
884.295	11022.12
884.536	11180.12
884.777	11064.12
885.018	10997.12
885.259	10956.12
885.5	10835.12
885.742	11033.12
885.982	10877.12
886.223	10733.12
886.464	10626.12
886.705	10582.12
886.946	10606.12
887.187	10352.12
887.428	10370.12
887.668	10258.12
887.909	10155.12
888.15	10035.12
888.39	10057.12
888.631	9999.12
888.871	9917.12
889.111	9887.12
889.352	9768.12
889.592	9685.12
889.833	9554.12
890.073	9499.12
890.313	9520.12
890.553	9371.12
890.793	9402.12
891.033	9351.12
891.273	9313.12
891.513	9274.12
891.753	9319.12
891.993	9180.12
892.233	9252.12
892.473	9348.12
892.713	9239.12
892.952	9255.12
893.192	9176.12
893.432	9196.12
893.671	9272.12
893.911	9164.12
894.15	9123.12
894.39	8992.12
894.629	8899.12
894.869	8899.12
895.108	8774.12
895.347	8776.12
895.587	8803.12
895.826	8728.12
896.065	8627.12
896.304	8701.12
896.543	8741.12
896.782	8600.12
897.021	8654.12
897.26	8576.12
897.499	8573.12
897.738	8524.12
897.977	8485.12
898.216	8426.12
898.454	8390.12
898.693	8214.12
898.932	8314.12
899.17	8236.12
899.409	8222.12
899.647	8124.12
899.886	8076.12
900.124	8169.12
900.363	8108.12
900.601	8134.12
900.839	8121.12
901.078	8127.12
901.316	8171.12
901.554	8135.12
901.792	8164.12
902.03	8084.12
902.268	8102.12
902.506	8071.12
902.744	8026.12
902.982	8027.12
903.22	7914.12
903.458	7888.12
903.695	7813.12
903.933	7747.12
904.171	7578.12
904.409	7456.12
904.646	7427.12
904.884	7306.12
905.121	7318.12
905.359	7225.12
905.596	7178.12
905.833	7025.12
906.071	7116.12
906.308	7065.12
906.545	7058.12
906.783	6998.12
907.02	7040.12
907.257	6982.12
907.494	7000.12
907.731	6971.12
907.968	6926.12
908.205	6886.12
908.442	6803.12
908.679	6835.12
908.915	6797.12
909.152	6737.12
909.389	6611.12
909.626	6647.12
909.862	6522.12
910.099	6497.12
910.335	6547.12
910.572	6416.12
910.808	6445.12
911.045	6460.12
911.281	6416.12
911.518	6420.12
911.754	6331.12
911.99	6318.12
912.226	6300.12
912.463	6221.12
912.699	6181.12
912.935	6126.12
913.171	6054.12
913.407	5996.12
913.643	6006.12
913.879	5943.12
914.114	5897.12
914.35	5861.12
914.586	5798.12
914.822	5693.12
915.057	5729.12
915.293	5579.12
915.529	5593.12
915.764	5661.12
916	5645.12
916.235	5592.12
916.471	5613.12
916.706	5500.12
916.941	5551.12
917.177	5539.12
917.412	5580.12
917.647	5501.12
917.882	5526.12
918.117	5542.12
918.352	5516.12
918.588	5546.12
918.823	5466.12
919.057	5367.12
919.292	5267.12
919.527	5319.12
919.762	5236.12
919.997	5219.12
920.232	5074.12
920.466	5116.12
920.701	4982.12
920.935	5017.12
921.17	4958.12
921.405	4927.12
921.639	4945.12
921.873	4867.12
922.108	4891.12
922.342	4901.12
922.576	4825.12
922.811	4806.12
923.045	4895.12
923.279	4897.12
923.513	4701.12
923.747	4776.12
923.981	4739.12
924.215	4676.12
924.449	4628.12
924.683	4565.12
924.917	4622.12
925.151	4592.12
925.385	4631.12
925.618	4551.12
925.852	4592.12
926.086	4482.12
926.319	4525.12
926.553	4496.12
926.786	4535.12
927.02	4496.12
927.253	4505.12
927.486	4521.12
927.72	4460.12
927.953	4487.12
928.186	4459.12
928.42	4444.12
928.653	4404.12
928.886	4346.12
929.119	4389.12
929.352	4380.12
929.585	4329.12
929.818	4249.12
930.051	4222.12
930.284	4239.12
930.516	4113.12
930.749	4165.12
930.982	4155.12
931.215	4108.12
931.447	4057.12
931.68	4068.12
931.912	4024.12
932.145	4038.12
932.377	4075.12
932.61	4211.12
932.842	4037.12
933.074	4037.12
933.307	4003.12
933.539	4106.12
933.771	4108.12
934.003	3990.12
934.236	4132.12
934.468	4106.12
934.7	3977.12
934.932	4002.12
935.164	3947.12
935.395	3960.12
935.627	3968.12
935.859	3945.12
936.091	3918.12
936.323	3885.12
936.554	3950.12
936.786	3899.12
937.017	3817.12
937.249	3893.12
937.481	3796.12
937.712	3896.12
937.943	3821.12
938.175	3821.12
938.406	3749.12
938.637	3859.12
938.869	3746.12
939.1	3820.12
939.331	3755.12
939.562	3782.12
939.793	3760.12
940.024	3742.12
940.255	3778.12
940.486	3696.12
940.717	3708.12
940.948	3688.12
941.179	3601.12
941.409	3662.12
941.64	3640.12
941.871	3644.12
942.102	3611.12
942.332	3605.12
942.563	3691.12
942.793	3597.12
943.024	3581.12
943.254	3609.12
943.484	3669.12
943.715	3636.12
943.945	3620.12
944.175	3542.12
944.405	3532.12
944.636	3549.12
944.866	3573.12
945.096	3559.12
945.326	3505.12
945.556	3531.12
945.786	3569.12
946.016	3480.12
946.245	3441.12
946.475	3433.12
946.705	3410.12
946.935	3404.12
947.164	3380.12
947.394	3323.12
947.624	3362.12
947.853	3366.12
948.083	3356.12
948.312	3341.12
948.542	3251.12
948.771	3247.12
949	3252.12
949.23	3269.12
949.459	3271.12
949.688	3351.12
949.917	3256.12
950.146	3313.12
950.375	3330.12
950.604	3230.12
950.833	3313.12
951.062	3271.12
951.291	3224.12
951.52	3201.12
951.749	3237.12
951.978	3149.12
952.206	3185.12
952.435	3167.12
952.664	3189.12
952.892	3204.12
953.121	3137.12
953.349	3179.12
953.578	3194.12
953.806	3115.12
954.035	3079.12
954.263	3081.12
954.491	3036.12
954.719	3069.12
954.948	3031.12
955.176	3002.12
955.404	2983.12
955.632	3007.12
955.86	3026.12
956.088	2987.12
956.316	2948.12
956.544	3001.12
956.772	2933.12
956.999	2920.12
957.227	2983.12
957.455	2891.12
957.683	2911.12
957.91	2851.12
958.138	2835.12
958.365	2810.12
958.593	2829.12
958.82	2779.12
959.048	2808.12
959.275	2818.12
959.502	2764.12
959.73	2778.12
959.957	2804.12
960.184	2818.12
960.411	2765.12
960.638	2814.12
960.865	2772.12
961.092	2758.12
961.319	2664.12
961.546	2780.12
961.773	2792.12
962	2763.12
962.227	2781.12
962.454	2697.12
962.68	2742.12
962.907	2718.12
963.134	2632.12
963.36	2690.12
963.587	2728.12
963.813	2629.12
964.04	2705.12
964.266	2589.12
964.493	2682.12
964.719	2670.12
964.945	2632.12
965.171	2523.12
965.398	2579.12
965.624	2593.12
965.85	2501.12
966.076	2503.12
966.302	2555.12
966.528	2494.12
966.754	2547.12
966.98	2512.12
967.206	2502.12
967.431	2425.12
967.657	2555.12
967.883	2518.12
968.109	2484.12
968.334	2459.12
968.56	2458.12
968.785	2438.12
969.011	2392.12
969.236	2445.12
969.462	2408.12
969.687	2396.12
969.912	2418.12
970.138	2440.12
970.363	2393.12
970.588	2425.12
970.813	2364.12
971.038	2364.12
971.263	2406.12
971.488	2390.12
971.713	2418.12
971.938	2388.12
972.163	2280.12
972.388	2293.12
972.613	2287.12
972.838	2348.12
973.062	2299.12
973.287	2280.12
973.512	2201.12
973.736	2253.12
973.961	2249.12
974.185	2194.12
974.41	2197.12
974.634	2156.12
974.858	2148.12
975.083	2176.12
975.307	2203.12
975.531	2099.12
975.755	2113.12
975.98	2135.12
976.204	2062.12
976.428	2059.12
976.652	2056.12
976.876	2047.12
977.1	2045.12
977.324	2016.12
977.547	2084.12
977.771	2081.12
977.995	2038.12
978.219	2003.12
978.442	2103.12
978.666	2018.12
978.89	2044.12
979.113	2042.12
979.337	1990.12
979.56	1995.12
979.783	2061.12
980.007	1969.12
980.23	1964.12
980.453	1953.12
980.677	2010.12
980.9	1964.12
981.123	1857.12
981.346	1979.12
981.569	1935.12
981.792	1952.12
982.015	1898.12
982.238	1879.12
982.461	1934.12
982.684	1847.12
982.907	1828.12
983.129	1869.12
983.352	1877.12
983.575	1848.12
983.797	1838.12
984.02	1823.12
984.242	1827.12
984.465	1827.12
984.687	1855.12
984.91	1868.12
985.132	1821.12
985.354	1832.12
985.577	1828.12
985.799	1792.12
986.021	1747.12
986.243	1762.12
986.465	1791.12
986.687	1811.12
986.909	1830.12
987.131	1780.12
987.353	1731.12
987.575	1768.12
987.797	1736.12
988.019	1679.12
988.241	1728.12
988.462	1694.12
988.684	1740.12
988.906	1761.12
989.127	1805.12
989.349	1712.12
989.57	1735.12
989.792	1742.12
990.013	1739.12
990.234	1771.12
990.456	1771.12
990.677	1745.12
990.898	1686.12
991.119	1688.12
991.341	1726.12
991.562	1673.12
991.783	1687.12
992.004	1627.12
992.225	1613.12
992.446	1678.12
992.667	1572.12
992.887	1683.12
993.108	1534.12
993.329	1683.12
993.55	1644.12
993.77	1568.12
993.991	1559.12
994.212	1606.12
994.432	1578.12
994.653	1575.12
994.873	1578.12
995.093	1465.12
995.314	1488.12
995.534	1577.12
995.754	1610.12
995.975	1589.12
996.195	1507.12
996.415	1577.12
996.635	1522.12
996.855	1528.12
997.075	1513.12
997.295	1499.12
997.515	1490.12
997.735	1550.12
997.955	1503.12
998.174	1502.12
998.394	1451.12
998.614	1527.12
998.834	1446.12
999.053	1537.12
999.273	1504.12
999.492	1566.12
999.712	1504.12
999.931	1465.12
1000.151	1495.12
1000.37	1479.12
1000.589	1544.12
1000.809	1488.12
1001.028	1601.12
1001.247	1491.12
1001.466	1402.12
1001.685	1556.12
1001.904	1482.12
1002.123	1449.12
1002.342	1492.12
1002.561	1436.12
1002.78	1438.12
1002.999	1507.12
1003.218	1468.12
1003.436	1415.12
1003.655	1468.12
1003.874	1427.12
1004.092	1444.12
1004.311	1499.12
1004.53	1442.12
1004.748	1504.12
1004.966	1425.12
1005.185	1482.12
1005.403	1459.12
1005.622	1407.12
1005.84	1514.12
1006.058	1441.12
1006.276	1441.12
1006.494	1813.12
1006.712	1419.12
1006.931	1481.12
1007.149	1407.12
1007.367	1388.12
1007.584	1464.12
1007.802	1471.12
1008.02	1391.12
1008.238	1507.12
1008.456	1480.12
1008.673	1345.12
1008.891	1473.12
1009.109	1427.12
1009.326	1452.12
1009.544	1532.12
1009.761	1431.12
1009.979	1513.12
1010.196	1506.12
1010.413	1569.12
1010.631	1596.12
1010.848	1620.12
1011.065	1605.12
1011.282	1556.12
1011.5	1481.12
1011.717	1605.12
1011.934	1545.12
1012.151	1558.12
1012.368	1581.12
1012.585	1511.12
1012.801	1546.12
1013.018	1518.12
1013.235	1466.12
1013.452	1490.12
1013.669	1497.12
1013.885	1495.12
1014.102	1524.12
1014.318	1483.12
1014.535	1464.12
1014.751	1466.12
1014.968	1469.12
1015.184	1516.12
1015.401	1407.12
1015.617	1453.12
1015.833	1380.12
1016.049	1405.12
1016.266	1375.12
1016.482	1383.12
1016.698	1312.12
1016.914	1387.12
1017.13	1323.12
1017.346	1302.12
1017.562	1367.12
1017.778	1316.12
1017.993	1270.12
1018.209	1332.12
1018.425	1323.12
1018.641	1267.12
1018.856	1260.12
1019.072	1268.12
1019.288	1313.12
1019.503	1284.12
1019.719	1205.12
1019.934	1238.12
1020.149	1278.12
1020.365	1215.12
1020.58	1190.12
1020.795	1230.12
1021.011	1168.12
1021.226	1157.12
1021.441	1200.12
1021.656	1110.12
1021.871	1054.12
1022.086	1060.12
1022.301	1055.12
1022.516	1051.12
1022.731	1115.12
1022.946	1020.12
1023.16	997.12
1023.375	960.12
1023.59	970.12
1023.804	937.12
1024.019	1035.12
1024.234	909.12
1024.448	949.12
1024.663	891.12
1024.877	887.12
1025.092	925.12
1025.306	921.12
1025.52	828.12
1025.734	918.12
1025.949	858.12
1026.163	831.12
1026.377	766.12
1026.591	815.12
1026.805	765.12
1027.019	767.12
1027.233	716.12
1027.447	684.12
1027.661	773.12
1027.875	722.12
1028.088	730.12
1028.302	642.12
1028.516	643.12
1028.73	666.12
1028.943	625.12
1029.157	588.12
1029.37	548.12
1029.584	-2.88
1029.797	-3.88
1030.011	0.12
1030.224	-1.88
