Data from QEP037381__353__15-02-22-718.txt Node

Date: Fri Apr 28 15:02:22 EDT 2023
User: dcclab
Spectrometer: QEP03738
Trigger mode: 4
Integration Time (sec): 1.000000E1
Scans to average: 1
Electric dark correction enabled: true
Nonlinearity correction enabled: false
Boxcar width: 0
XAxis mode: Wavelengths
Number of Pixels in Spectrum: 1044
>>>>>Begin Spectral Data<<<<<
784.041	12.38
784.3	-0.62
784.558	-3.62
784.817	-4.62
785.075	68429.38
785.334	13625.38
785.592	7028.38
785.851	4982.38
786.109	3769.38
786.368	2969.38
786.626	2372.38
786.884	2005.38
787.143	1697.38
787.401	1397.38
787.659	1292.38
787.917	1109.38
788.175	995.38
788.433	891.38
788.691	815.38
788.949	750.38
789.207	712.38
789.465	625.38
789.723	601.38
789.98	547.38
790.238	581.38
790.496	559.38
790.753	549.38
791.011	581.38
791.268	510.38
791.526	511.38
791.783	530.38
792.041	484.38
792.298	440.38
792.556	499.38
792.813	476.38
793.07	452.38
793.327	454.38
793.584	515.38
793.841	435.38
794.099	467.38
794.356	513.38
794.613	419.38
794.869	447.38
795.126	429.38
795.383	413.38
795.64	433.38
795.897	392.38
796.153	436.38
796.41	430.38
796.667	420.38
796.923	407.38
797.18	424.38
797.436	444.38
797.693	419.38
797.949	459.38
798.206	493.38
798.462	396.38
798.718	455.38
798.974	459.38
799.231	478.38
799.487	486.38
799.743	472.38
799.999	512.38
800.255	504.38
800.511	504.38
800.767	538.38
801.023	538.38
801.279	570.38
801.534	625.38
801.79	686.38
802.046	742.38
802.302	913.38
802.557	1063.38
802.813	1372.38
803.068	1728.38
803.324	2526.38
803.579	3578.38
803.835	4963.38
804.09	6810.38
804.345	8802.38
804.601	10846.38
804.856	12681.38
805.111	14054.38
805.366	14992.38
805.621	15608.38
805.876	16000.38
806.131	16235.38
806.386	16459.38
806.641	16735.38
806.896	17003.38
807.151	17201.38
807.406	17459.38
807.661	17603.38
807.915	17939.38
808.17	18143.38
808.425	18332.38
808.679	18392.38
808.934	18798.38
809.188	18854.38
809.443	19116.38
809.697	19340.38
809.951	19344.38
810.206	19588.38
810.46	19649.38
810.714	19696.38
810.968	19862.38
811.223	19996.38
811.477	20257.38
811.731	20353.38
811.985	20479.38
812.239	20425.38
812.493	20585.38
812.747	20753.38
813	20584.38
813.254	20821.38
813.508	20833.38
813.762	20907.38
814.015	20989.38
814.269	21153.38
814.522	21267.38
814.776	21596.38
815.03	21743.38
815.283	21995.38
815.536	22277.38
815.79	22605.38
816.043	22789.38
816.296	23141.38
816.55	23318.38
816.803	23600.38
817.056	23821.38
817.309	24004.38
817.562	24263.38
817.815	24410.38
818.068	24593.38
818.321	24905.38
818.574	25226.38
818.827	25428.38
819.079	25668.38
819.332	26303.38
819.585	26538.38
819.838	26870.38
820.09	26966.38
820.343	27171.38
820.595	27198.38
820.848	27469.38
821.1	27544.38
821.353	27483.38
821.605	27595.38
821.857	27657.38
822.11	27378.38
822.362	27232.38
822.614	27198.38
822.866	27317.38
823.118	27351.38
823.37	27350.38
823.622	27361.38
823.874	27422.38
824.126	27672.38
824.378	27703.38
824.63	27766.38
824.882	27766.38
825.134	27804.38
825.385	27686.38
825.637	27875.38
825.888	27462.38
826.14	27499.38
826.392	27279.38
826.643	27226.38
826.895	27265.38
827.146	27135.38
827.397	26956.38
827.649	27099.38
827.9	26979.38
828.151	27048.38
828.402	27013.38
828.653	27013.38
828.905	27149.38
829.156	27239.38
829.407	27015.38
829.658	26984.38
829.909	27057.38
830.159	26995.38
830.41	26766.38
830.661	26620.38
830.912	26471.38
831.162	26415.38
831.413	26417.38
831.664	26350.38
831.914	26364.38
832.165	26326.38
832.415	26344.38
832.666	26433.38
832.916	26330.38
833.167	26204.38
833.417	26144.38
833.667	26041.38
833.917	25999.38
834.168	25906.38
834.418	25864.38
834.668	25751.38
834.918	25661.38
835.168	25490.38
835.418	25489.38
835.668	25434.38
835.918	25344.38
836.167	25281.38
836.417	25272.38
836.667	25180.38
836.917	25060.38
837.166	25068.38
837.416	25059.38
837.666	25001.38
837.915	24783.38
838.165	24747.38
838.414	24746.38
838.663	24509.38
838.913	24482.38
839.162	24488.38
839.411	24413.38
839.661	24386.38
839.91	24256.38
840.159	24272.38
840.408	24306.38
840.657	24071.38
840.906	24197.38
841.155	24289.38
841.404	24345.38
841.653	24220.38
841.902	24103.38
842.15	24108.38
842.399	24075.38
842.648	23995.38
842.897	23900.38
843.145	23793.38
843.394	23580.38
843.642	23541.38
843.891	23476.38
844.139	23464.38
844.388	23294.38
844.636	23178.38
844.884	23103.38
845.133	22965.38
845.381	22936.38
845.629	23004.38
845.877	22948.38
846.125	22901.38
846.373	22812.38
846.621	22848.38
846.869	22705.38
847.117	22541.38
847.365	22408.38
847.613	22404.38
847.861	22280.38
848.108	22204.38
848.356	22190.38
848.604	22131.38
848.851	22186.38
849.099	22189.38
849.346	22218.38
849.594	22279.38
849.841	22341.38
850.089	22452.38
850.336	22357.38
850.583	22298.38
850.831	22131.38
851.078	21970.38
851.325	21935.38
851.572	21812.38
851.819	21570.38
852.066	21224.38
852.313	21142.38
852.56	20929.38
852.807	20915.38
853.054	20794.38
853.301	20765.38
853.548	20756.38
853.794	20796.38
854.041	21019.38
854.288	21019.38
854.534	21247.38
854.781	21122.38
855.028	20998.38
855.274	20945.38
855.52	20909.38
855.767	20634.38
856.013	20601.38
856.26	20838.38
856.506	20325.38
856.752	20366.38
856.998	20387.38
857.244	20440.38
857.49	20476.38
857.736	20394.38
857.982	20510.38
858.228	20447.38
858.474	20294.38
858.72	20251.38
858.966	20096.38
859.212	19947.38
859.458	19643.38
859.703	19438.38
859.949	19250.38
860.195	19204.38
860.44	19064.38
860.686	18919.38
860.931	18885.38
861.177	18790.38
861.422	18756.38
861.667	18672.38
861.913	18769.38
862.158	18818.38
862.403	18958.38
862.648	18947.38
862.893	18935.38
863.138	18817.38
863.384	18839.38
863.629	18749.38
863.873	18682.38
864.118	18592.38
864.363	18450.38
864.608	18379.38
864.853	18279.38
865.098	18178.38
865.342	18111.38
865.587	17895.38
865.832	18000.38
866.076	17957.38
866.321	17910.38
866.565	17802.38
866.81	17734.38
867.054	17696.38
867.298	17607.38
867.543	17588.38
867.787	17636.38
868.031	17488.38
868.275	17448.38
868.519	17450.38
868.764	17386.38
869.008	17323.38
869.252	17327.38
869.496	17322.38
869.739	17337.38
869.983	17232.38
870.227	17173.38
870.471	17028.38
870.715	17078.38
870.958	17135.38
871.202	17111.38
871.446	17151.38
871.689	17070.38
871.933	17085.38
872.176	17104.38
872.42	17115.38
872.663	17044.38
872.906	16989.38
873.15	16865.38
873.393	16686.38
873.636	16623.38
873.879	16555.38
874.122	16378.38
874.366	16217.38
874.609	16025.38
874.852	16023.38
875.095	15899.38
875.337	15808.38
875.58	15666.38
875.823	15777.38
876.066	15774.38
876.309	15698.38
876.551	15515.38
876.794	15469.38
877.037	15530.38
877.279	15472.38
877.522	15590.38
877.764	15576.38
878.007	15566.38
878.249	15609.38
878.491	15420.38
878.734	15485.38
878.976	15465.38
879.218	15265.38
879.46	15259.38
879.702	15143.38
879.945	14958.38
880.187	14807.38
880.429	14798.38
880.671	14805.38
880.912	14655.38
881.154	14633.38
881.396	14524.38
881.638	14594.38
881.88	14455.38
882.121	14470.38
882.363	14448.38
882.605	14450.38
882.846	14379.38
883.088	14334.38
883.329	14100.38
883.571	14123.38
883.812	14104.38
884.053	14197.38
884.295	14280.38
884.536	14384.38
884.777	14177.38
885.018	14147.38
885.259	14086.38
885.5	14036.38
885.742	14208.38
885.982	14053.38
886.223	13881.38
886.464	13882.38
886.705	13774.38
886.946	13762.38
887.187	13641.38
887.428	13624.38
887.668	13382.38
887.909	13338.38
888.15	13231.38
888.39	13249.38
888.631	13167.38
888.871	13080.38
889.111	12944.38
889.352	12903.38
889.592	12797.38
889.833	12688.38
890.073	12596.38
890.313	12604.38
890.553	12322.38
890.793	12337.38
891.033	12334.38
891.273	12321.38
891.513	12235.38
891.753	12244.38
891.993	12147.38
892.233	12262.38
892.473	12305.38
892.713	12261.38
892.952	12140.38
893.192	12234.38
893.432	12082.38
893.671	12140.38
893.911	11990.38
894.15	11948.38
894.39	11799.38
894.629	11779.38
894.869	11705.38
895.108	11611.38
895.347	11530.38
895.587	11551.38
895.826	11485.38
896.065	11300.38
896.304	11406.38
896.543	11435.38
896.782	11312.38
897.021	11315.38
897.26	11272.38
897.499	11236.38
897.738	11175.38
897.977	11108.38
898.216	11020.38
898.454	10955.38
898.693	10772.38
898.932	10843.38
899.17	10711.38
899.409	10673.38
899.647	10623.38
899.886	10605.38
900.124	10617.38
900.363	10597.38
900.601	10688.38
900.839	10595.38
901.078	10565.38
901.316	10543.38
901.554	10654.38
901.792	10650.38
902.03	10479.38
902.268	10466.38
902.506	10552.38
902.744	10432.38
902.982	10456.38
903.22	10273.38
903.458	10179.38
903.695	10188.38
903.933	10030.38
904.171	9878.38
904.409	9802.38
904.646	9740.38
904.884	9638.38
905.121	9583.38
905.359	9424.38
905.596	9402.38
905.833	9283.38
906.071	9241.38
906.308	9287.38
906.545	9162.38
906.783	9167.38
907.02	9183.38
907.257	9162.38
907.494	9204.38
907.731	9155.38
907.968	9098.38
908.205	9125.38
908.442	8971.38
908.679	8934.38
908.915	8844.38
909.152	8803.38
909.389	8611.38
909.626	8626.38
909.862	8609.38
910.099	8591.38
910.335	8604.38
910.572	8417.38
910.808	8426.38
911.045	8391.38
911.281	8361.38
911.518	8424.38
911.754	8296.38
911.99	8228.38
912.226	8217.38
912.463	8083.38
912.699	8084.38
912.935	8039.38
913.171	7949.38
913.407	7886.38
913.643	7802.38
913.879	7785.38
914.114	7660.38
914.35	7590.38
914.586	7557.38
914.822	7512.38
915.057	7530.38
915.293	7347.38
915.529	7336.38
915.764	7377.38
916	7365.38
916.235	7297.38
916.471	7310.38
916.706	7227.38
916.941	7190.38
917.177	7229.38
917.412	7255.38
917.647	7240.38
917.882	7209.38
918.117	7197.38
918.352	7188.38
918.588	7182.38
918.823	7066.38
919.057	7033.38
919.292	6878.38
919.527	6936.38
919.762	6758.38
919.997	6751.38
920.232	6639.38
920.466	6624.38
920.701	6474.38
920.935	6528.38
921.17	6445.38
921.405	6419.38
921.639	6462.38
921.873	6368.38
922.108	6362.38
922.342	6371.38
922.576	6278.38
922.811	6322.38
923.045	6310.38
923.279	6304.38
923.513	6146.38
923.747	6228.38
923.981	6131.38
924.215	6078.38
924.449	6073.38
924.683	5994.38
924.917	5942.38
925.151	5888.38
925.385	5973.38
925.618	5907.38
925.852	5912.38
926.086	5835.38
926.319	5884.38
926.553	5838.38
926.786	5880.38
927.02	5811.38
927.253	5862.38
927.486	5833.38
927.72	5781.38
927.953	5730.38
928.186	5764.38
928.42	5733.38
928.653	5657.38
928.886	5644.38
929.119	5617.38
929.352	5638.38
929.585	5565.38
929.818	5538.38
930.051	5485.38
930.284	5434.38
930.516	5363.38
930.749	5370.38
930.982	5370.38
931.215	5292.38
931.447	5256.38
931.68	5255.38
931.912	5252.38
932.145	5233.38
932.377	5262.38
932.61	5334.38
932.842	5128.38
933.074	5260.38
933.307	5230.38
933.539	5259.38
933.771	5236.38
934.003	5197.38
934.236	5312.38
934.468	5203.38
934.7	5166.38
934.932	5230.38
935.164	5097.38
935.395	5109.38
935.627	5106.38
935.859	5134.38
936.091	4993.38
936.323	5031.38
936.554	5027.38
936.786	4914.38
937.017	4951.38
937.249	4937.38
937.481	4907.38
937.712	4917.38
937.943	4907.38
938.175	4915.38
938.406	4881.38
938.637	4908.38
938.869	4842.38
939.1	4882.38
939.331	4833.38
939.562	4855.38
939.793	4829.38
940.024	4828.38
940.255	4809.38
940.486	4754.38
940.717	4694.38
940.948	4674.38
941.179	4724.38
941.409	4681.38
941.64	4650.38
941.871	4681.38
942.102	4626.38
942.332	4655.38
942.563	4673.38
942.793	4713.38
943.024	4620.38
943.254	4613.38
943.484	4634.38
943.715	4588.38
943.945	4625.38
944.175	4546.38
944.405	4544.38
944.636	4480.38
944.866	4564.38
945.096	4562.38
945.326	4506.38
945.556	4534.38
945.786	4540.38
946.016	4487.38
946.245	4407.38
946.475	4367.38
946.705	4353.38
946.935	4318.38
947.164	4341.38
947.394	4313.38
947.624	4282.38
947.853	4296.38
948.083	4250.38
948.312	4262.38
948.542	4158.38
948.771	4219.38
949	4173.38
949.23	4170.38
949.459	4181.38
949.688	4260.38
949.917	4218.38
950.146	4150.38
950.375	4208.38
950.604	4096.38
950.833	4192.38
951.062	4151.38
951.291	4118.38
951.52	4067.38
951.749	4121.38
951.978	4030.38
952.206	4051.38
952.435	4082.38
952.664	4058.38
952.892	4077.38
953.121	4033.38
953.349	4039.38
953.578	3985.38
953.806	3945.38
954.035	3891.38
954.263	3883.38
954.491	3871.38
954.719	3880.38
954.948	3873.38
955.176	3837.38
955.404	3792.38
955.632	3782.38
955.86	3795.38
956.088	3787.38
956.316	3799.38
956.544	3771.38
956.772	3725.38
956.999	3637.38
957.227	3762.38
957.455	3610.38
957.683	3645.38
957.91	3586.38
958.138	3649.38
958.365	3566.38
958.593	3555.38
958.82	3514.38
959.048	3588.38
959.275	3544.38
959.502	3543.38
959.73	3511.38
959.957	3521.38
960.184	3575.38
960.411	3495.38
960.638	3576.38
960.865	3490.38
961.092	3526.38
961.319	3418.38
961.546	3505.38
961.773	3504.38
962	3458.38
962.227	3490.38
962.454	3435.38
962.68	3429.38
962.907	3449.38
963.134	3361.38
963.36	3387.38
963.587	3365.38
963.813	3273.38
964.04	3357.38
964.266	3245.38
964.493	3283.38
964.719	3338.38
964.945	3294.38
965.171	3160.38
965.398	3204.38
965.624	3233.38
965.85	3140.38
966.076	3153.38
966.302	3194.38
966.528	3139.38
966.754	3176.38
966.98	3142.38
967.206	3178.38
967.431	3039.38
967.657	3128.38
967.883	3128.38
968.109	3092.38
968.334	3040.38
968.56	2993.38
968.785	3030.38
969.011	2977.38
969.236	3063.38
969.462	2984.38
969.687	2980.38
969.912	3025.38
970.138	3041.38
970.363	2981.38
970.588	3005.38
970.813	2981.38
971.038	2908.38
971.263	2925.38
971.488	2961.38
971.713	2981.38
971.938	2966.38
972.163	2848.38
972.388	2864.38
972.613	2822.38
972.838	2874.38
973.062	2825.38
973.287	2811.38
973.512	2722.38
973.736	2759.38
973.961	2746.38
974.185	2740.38
974.41	2796.38
974.634	2680.38
974.858	2687.38
975.083	2701.38
975.307	2732.38
975.531	2643.38
975.755	2604.38
975.98	2602.38
976.204	2560.38
976.428	2558.38
976.652	2532.38
976.876	2524.38
977.1	2578.38
977.324	2532.38
977.547	2575.38
977.771	2564.38
977.995	2507.38
978.219	2445.38
978.442	2579.38
978.666	2527.38
978.89	2521.38
979.113	2483.38
979.337	2490.38
979.56	2442.38
979.783	2516.38
980.007	2421.38
980.23	2416.38
980.453	2381.38
980.677	2435.38
980.9	2423.38
981.123	2352.38
981.346	2393.38
981.569	2393.38
981.792	2427.38
982.015	2375.38
982.238	2301.38
982.461	2332.38
982.684	2266.38
982.907	2287.38
983.129	2265.38
983.352	2296.38
983.575	2266.38
983.797	2280.38
984.02	2203.38
984.242	2218.38
984.465	2207.38
984.687	2226.38
984.91	2248.38
985.132	2240.38
985.354	2254.38
985.577	2198.38
985.799	2183.38
986.021	2101.38
986.243	2153.38
986.465	2162.38
986.687	2190.38
986.909	2208.38
987.131	2148.38
987.353	2103.38
987.575	2120.38
987.797	2109.38
988.019	2031.38
988.241	2090.38
988.462	2049.38
988.684	2111.38
988.906	2154.38
989.127	2146.38
989.349	1990.38
989.57	2057.38
989.792	2094.38
990.013	2104.38
990.234	2096.38
990.456	2112.38
990.677	2113.38
990.898	2029.38
991.119	2024.38
991.341	2044.38
991.562	1992.38
991.783	2010.38
992.004	1979.38
992.225	1913.38
992.446	1975.38
992.667	1894.38
992.887	1999.38
993.108	1842.38
993.329	1980.38
993.55	1913.38
993.77	1847.38
993.991	1871.38
994.212	1872.38
994.432	1871.38
994.653	1904.38
994.873	1861.38
995.093	1755.38
995.314	1805.38
995.534	1868.38
995.754	1882.38
995.975	1893.38
996.195	1793.38
996.415	1845.38
996.635	1804.38
996.855	1813.38
997.075	1794.38
997.295	1775.38
997.515	1754.38
997.735	1813.38
997.955	1767.38
998.174	1767.38
998.394	1719.38
998.614	1772.38
998.834	1714.38
999.053	1842.38
999.273	1763.38
999.492	1848.38
999.712	1765.38
999.931	1701.38
1000.151	1731.38
1000.37	1694.38
1000.589	1782.38
1000.809	1722.38
1001.028	1846.38
1001.247	1745.38
1001.466	1653.38
1001.685	1781.38
1001.904	1733.38
1002.123	1696.38
1002.342	1681.38
1002.561	1656.38
1002.78	1671.38
1002.999	1729.38
1003.218	1671.38
1003.436	1655.38
1003.655	1690.38
1003.874	1628.38
1004.092	1654.38
1004.311	1676.38
1004.53	1633.38
1004.748	1738.38
1004.966	1638.38
1005.185	1699.38
1005.403	1674.38
1005.622	1658.38
1005.84	1721.38
1006.058	1615.38
1006.276	1629.38
1006.494	1959.38
1006.712	1645.38
1006.931	1688.38
1007.149	1604.38
1007.367	1574.38
1007.584	1635.38
1007.802	1647.38
1008.02	1614.38
1008.238	1690.38
1008.456	1645.38
1008.673	1542.38
1008.891	1610.38
1009.109	1603.38
1009.326	1607.38
1009.544	1689.38
1009.761	1561.38
1009.979	1629.38
1010.196	1664.38
1010.413	1694.38
1010.631	1734.38
1010.848	1747.38
1011.065	1765.38
1011.282	1667.38
1011.5	1603.38
1011.717	1705.38
1011.934	1669.38
1012.151	1685.38
1012.368	1662.38
1012.585	1615.38
1012.801	1643.38
1013.018	1634.38
1013.235	1566.38
1013.452	1608.38
1013.669	1578.38
1013.885	1550.38
1014.102	1615.38
1014.318	1556.38
1014.535	1508.38
1014.751	1552.38
1014.968	1557.38
1015.184	1586.38
1015.401	1488.38
1015.617	1525.38
1015.833	1484.38
1016.049	1468.38
1016.266	1476.38
1016.482	1444.38
1016.698	1409.38
1016.914	1460.38
1017.13	1383.38
1017.346	1398.38
1017.562	1467.38
1017.778	1399.38
1017.993	1366.38
1018.209	1392.38
1018.425	1374.38
1018.641	1356.38
1018.856	1321.38
1019.072	1366.38
1019.288	1397.38
1019.503	1359.38
1019.719	1271.38
1019.934	1275.38
1020.149	1378.38
1020.365	1325.38
1020.58	1267.38
1020.795	1327.38
1021.011	1258.38
1021.226	1216.38
1021.441	1271.38
1021.656	1209.38
1021.871	1142.38
1022.086	1154.38
1022.301	1131.38
1022.516	1127.38
1022.731	1219.38
1022.946	1092.38
1023.16	1066.38
1023.375	1102.38
1023.59	1046.38
1023.804	1035.38
1024.019	1127.38
1024.234	991.38
1024.448	1019.38
1024.663	1003.38
1024.877	985.38
1025.092	1003.38
1025.306	1028.38
1025.52	933.38
1025.734	1000.38
1025.949	921.38
1026.163	905.38
1026.377	838.38
1026.591	900.38
1026.805	822.38
1027.019	819.38
1027.233	789.38
1027.447	757.38
1027.661	843.38
1027.875	789.38
1028.088	780.38
1028.302	715.38
1028.516	721.38
1028.73	728.38
1028.943	704.38
1029.157	659.38
1029.37	610.38
1029.584	-4.62
1029.797	1.38
1030.011	0.38
1030.224	-0.62
