Data from QEP037381__355__15-02-42-716.txt Node

Date: Fri Apr 28 15:02:42 EDT 2023
User: dcclab
Spectrometer: QEP03738
Trigger mode: 4
Integration Time (sec): 1.000000E1
Scans to average: 1
Electric dark correction enabled: true
Nonlinearity correction enabled: false
Boxcar width: 0
XAxis mode: Wavelengths
Number of Pixels in Spectrum: 1044
>>>>>Begin Spectral Data<<<<<
784.041	16.88
784.3	0.88
784.558	-2.12
784.817	-3.12
785.075	64096.88
785.334	13220.88
785.592	6954.88
785.851	4947.88
786.109	3763.88
786.368	2964.88
786.626	2419.88
786.884	1986.88
787.143	1693.88
787.401	1364.88
787.659	1249.88
787.917	1068.88
788.175	990.88
788.433	876.88
788.691	769.88
788.949	726.88
789.207	709.88
789.465	610.88
789.723	600.88
789.98	542.88
790.238	576.88
790.496	545.88
790.753	532.88
791.011	579.88
791.268	505.88
791.526	492.88
791.783	519.88
792.041	505.88
792.298	406.88
792.556	482.88
792.813	475.88
793.07	433.88
793.327	445.88
793.584	512.88
793.841	441.88
794.099	444.88
794.356	519.88
794.613	411.88
794.869	471.88
795.126	410.88
795.383	402.88
795.64	419.88
795.897	362.88
796.153	435.88
796.41	419.88
796.667	404.88
796.923	414.88
797.18	413.88
797.436	439.88
797.693	395.88
797.949	447.88
798.206	493.88
798.462	400.88
798.718	473.88
798.974	430.88
799.231	484.88
799.487	463.88
799.743	481.88
799.999	509.88
800.255	491.88
800.511	492.88
800.767	525.88
801.023	527.88
801.279	562.88
801.534	599.88
801.79	662.88
802.046	696.88
802.302	852.88
802.557	993.88
802.813	1281.88
803.068	1655.88
803.324	2321.88
803.579	3223.88
803.835	4546.88
804.09	6202.88
804.345	8038.88
804.601	9813.88
804.856	11500.88
805.111	12825.88
805.366	13578.88
805.621	14164.88
805.876	14601.88
806.131	14980.88
806.386	15023.88
806.641	15278.88
806.896	15482.88
807.151	15716.88
807.406	15869.88
807.661	16191.88
807.915	16415.88
808.17	16658.88
808.425	16801.88
808.679	16845.88
808.934	17165.88
809.188	17301.88
809.443	17445.88
809.697	17659.88
809.951	17754.88
810.206	17904.88
810.46	17979.88
810.714	18085.88
810.968	18214.88
811.223	18194.88
811.477	18548.88
811.731	18564.88
811.985	18571.88
812.239	18713.88
812.493	18820.88
812.747	18913.88
813	18855.88
813.254	19021.88
813.508	19134.88
813.762	19260.88
814.015	19217.88
814.269	19400.88
814.522	19521.88
814.776	19695.88
815.03	19946.88
815.283	20196.88
815.536	20399.88
815.79	20687.88
816.043	20993.88
816.296	21118.88
816.55	21355.88
816.803	21575.88
817.056	21761.88
817.309	22020.88
817.562	22132.88
817.815	22411.88
818.068	22604.88
818.321	22740.88
818.574	23041.88
818.827	23432.88
819.079	23667.88
819.332	24128.88
819.585	24309.88
819.838	24674.88
820.09	24766.88
820.343	25014.88
820.595	25056.88
820.848	25154.88
821.1	25230.88
821.353	25345.88
821.605	25213.88
821.857	25199.88
822.11	25040.88
822.362	25044.88
822.614	24987.88
822.866	25055.88
823.118	25042.88
823.37	25205.88
823.622	25242.88
823.874	25325.88
824.126	25454.88
824.378	25443.88
824.63	25504.88
824.882	25553.88
825.134	25414.88
825.385	25525.88
825.637	25358.88
825.888	25319.88
826.14	25271.88
826.392	25122.88
826.643	24926.88
826.895	24885.88
827.146	24759.88
827.397	24889.88
827.649	24857.88
827.9	24688.88
828.151	24788.88
828.402	24908.88
828.653	24871.88
828.905	24912.88
829.156	25015.88
829.407	24957.88
829.658	24888.88
829.909	24760.88
830.159	24745.88
830.41	24548.88
830.661	24514.88
830.912	24363.88
831.162	24402.88
831.413	24160.88
831.664	24105.88
831.914	24161.88
832.165	24178.88
832.415	24208.88
832.666	24210.88
832.916	24137.88
833.167	24032.88
833.417	24139.88
833.667	23979.88
833.917	24013.88
834.168	23898.88
834.418	23593.88
834.668	23644.88
834.918	23487.88
835.168	23484.88
835.418	23308.88
835.668	23337.88
835.918	23274.88
836.167	23187.88
836.417	23108.88
836.667	23206.88
836.917	23110.88
837.166	22995.88
837.416	23108.88
837.666	23048.88
837.915	22942.88
838.165	22786.88
838.414	22693.88
838.663	22643.88
838.913	22607.88
839.162	22361.88
839.411	22518.88
839.661	22407.88
839.91	22409.88
840.159	22359.88
840.408	22236.88
840.657	22277.88
840.906	22277.88
841.155	22316.88
841.404	22237.88
841.653	22282.88
841.902	22276.88
842.15	22280.88
842.399	22174.88
842.648	22190.88
842.897	22019.88
843.145	21972.88
843.394	21757.88
843.642	21622.88
843.891	21734.88
844.139	21531.88
844.388	21467.88
844.636	21254.88
844.884	21361.88
845.133	21166.88
845.381	21220.88
845.629	21166.88
845.877	21160.88
846.125	21147.88
846.373	21073.88
846.621	20954.88
846.869	20858.88
847.117	20857.88
847.365	20719.88
847.613	20573.88
847.861	20575.88
848.108	20605.88
848.356	20452.88
848.604	20340.88
848.851	20387.88
849.099	20440.88
849.346	20433.88
849.594	20594.88
849.841	20673.88
850.089	20638.88
850.336	20663.88
850.583	20566.88
850.831	20436.88
851.078	20317.88
851.325	20131.88
851.572	20169.88
851.819	19922.88
852.066	19712.88
852.313	19533.88
852.56	19313.88
852.807	19204.88
853.054	19284.88
853.301	19220.88
853.548	19270.88
853.794	19385.88
854.041	19253.88
854.288	19373.88
854.534	19594.88
854.781	19385.88
855.028	19418.88
855.274	19379.88
855.52	19231.88
855.767	19061.88
856.013	19049.88
856.26	19112.88
856.506	18764.88
856.752	18877.88
856.998	18706.88
857.244	18943.88
857.49	18975.88
857.736	18932.88
857.982	18970.88
858.228	18877.88
858.474	18754.88
858.72	18602.88
858.966	18549.88
859.212	18342.88
859.458	18198.88
859.703	17969.88
859.949	17853.88
860.195	17706.88
860.44	17551.88
860.686	17429.88
860.931	17518.88
861.177	17334.88
861.422	17386.88
861.667	17314.88
861.913	17391.88
862.158	17331.88
862.403	17507.88
862.648	17479.88
862.893	17492.88
863.138	17474.88
863.384	17386.88
863.629	17256.88
863.873	17313.88
864.118	17148.88
864.363	17062.88
864.608	17011.88
864.853	16887.88
865.098	16814.88
865.342	16685.88
865.587	16659.88
865.832	16668.88
866.076	16497.88
866.321	16590.88
866.565	16482.88
866.81	16325.88
867.054	16427.88
867.298	16356.88
867.543	16317.88
867.787	16276.88
868.031	16204.88
868.275	16216.88
868.519	16159.88
868.764	16258.88
869.008	16101.88
869.252	16127.88
869.496	16026.88
869.739	15944.88
869.983	15912.88
870.227	15885.88
870.471	15816.88
870.715	15832.88
870.958	15864.88
871.202	15830.88
871.446	15828.88
871.689	15931.88
871.933	15811.88
872.176	15906.88
872.42	15893.88
872.663	15773.88
872.906	15671.88
873.15	15648.88
873.393	15528.88
873.636	15401.88
873.879	15287.88
874.122	15170.88
874.366	14998.88
874.609	14947.88
874.852	14804.88
875.095	14780.88
875.337	14807.88
875.58	14546.88
875.823	14580.88
876.066	14655.88
876.309	14501.88
876.551	14479.88
876.794	14359.88
877.037	14504.88
877.279	14288.88
877.522	14291.88
877.764	14397.88
878.007	14366.88
878.249	14408.88
878.491	14263.88
878.734	14377.88
878.976	14299.88
879.218	14172.88
879.46	14095.88
879.702	13978.88
879.945	13980.88
880.187	13668.88
880.429	13781.88
880.671	13686.88
880.912	13545.88
881.154	13479.88
881.396	13409.88
881.638	13365.88
881.88	13326.88
882.121	13402.88
882.363	13392.88
882.605	13415.88
882.846	13226.88
883.088	13295.88
883.329	13222.88
883.571	13218.88
883.812	13100.88
884.053	13151.88
884.295	13275.88
884.536	13389.88
884.777	13314.88
885.018	13173.88
885.259	13170.88
885.5	13068.88
885.742	13297.88
885.982	13107.88
886.223	12945.88
886.464	12948.88
886.705	12841.88
886.946	12815.88
887.187	12612.88
887.428	12631.88
887.668	12509.88
887.909	12410.88
888.15	12212.88
888.39	12217.88
888.631	12249.88
888.871	12145.88
889.111	11968.88
889.352	11954.88
889.592	11824.88
889.833	11719.88
890.073	11637.88
890.313	11647.88
890.553	11476.88
890.793	11469.88
891.033	11417.88
891.273	11327.88
891.513	11331.88
891.753	11309.88
891.993	11353.88
892.233	11282.88
892.473	11405.88
892.713	11293.88
892.952	11350.88
893.192	11323.88
893.432	11275.88
893.671	11244.88
893.911	11153.88
894.15	11084.88
894.39	10886.88
894.629	10944.88
894.869	10850.88
895.108	10789.88
895.347	10747.88
895.587	10757.88
895.826	10564.88
896.065	10616.88
896.304	10535.88
896.543	10600.88
896.782	10448.88
897.021	10517.88
897.26	10487.88
897.499	10500.88
897.738	10430.88
897.977	10199.88
898.216	10183.88
898.454	10121.88
898.693	10087.88
898.932	10030.88
899.17	9991.88
899.409	9912.88
899.647	9873.88
899.886	9906.88
900.124	9942.88
900.363	9813.88
900.601	9852.88
900.839	9845.88
901.078	9867.88
901.316	9827.88
901.554	9846.88
901.792	9937.88
902.03	9821.88
902.268	9811.88
902.506	9825.88
902.744	9694.88
902.982	9764.88
903.22	9611.88
903.458	9449.88
903.695	9462.88
903.933	9338.88
904.171	9200.88
904.409	9096.88
904.646	9034.88
904.884	8861.88
905.121	8863.88
905.359	8806.88
905.596	8716.88
905.833	8591.88
906.071	8625.88
906.308	8615.88
906.545	8561.88
906.783	8512.88
907.02	8532.88
907.257	8429.88
907.494	8473.88
907.731	8531.88
907.968	8449.88
908.205	8348.88
908.442	8317.88
908.679	8312.88
908.915	8171.88
909.152	8179.88
909.389	8052.88
909.626	8040.88
909.862	7936.88
910.099	7892.88
910.335	7967.88
910.572	7849.88
910.808	7908.88
911.045	7865.88
911.281	7748.88
911.518	7804.88
911.754	7678.88
911.99	7675.88
912.226	7656.88
912.463	7546.88
912.699	7489.88
912.935	7476.88
913.171	7426.88
913.407	7320.88
913.643	7342.88
913.879	7182.88
914.114	7102.88
914.35	7113.88
914.586	7012.88
914.822	6960.88
915.057	6993.88
915.293	6891.88
915.529	6769.88
915.764	6833.88
916	6831.88
916.235	6824.88
916.471	6785.88
916.706	6729.88
916.941	6718.88
917.177	6667.88
917.412	6783.88
917.647	6790.88
917.882	6660.88
918.117	6740.88
918.352	6698.88
918.588	6681.88
918.823	6563.88
919.057	6594.88
919.292	6340.88
919.527	6407.88
919.762	6296.88
919.997	6278.88
920.232	6177.88
920.466	6164.88
920.701	6053.88
920.935	6026.88
921.17	5998.88
921.405	5905.88
921.639	5968.88
921.873	5978.88
922.108	5895.88
922.342	5896.88
922.576	5803.88
922.811	5832.88
923.045	5852.88
923.279	5852.88
923.513	5715.88
923.747	5760.88
923.981	5714.88
924.215	5643.88
924.449	5677.88
924.683	5552.88
924.917	5556.88
925.151	5553.88
925.385	5595.88
925.618	5487.88
925.852	5534.88
926.086	5359.88
926.319	5516.88
926.553	5473.88
926.786	5448.88
927.02	5416.88
927.253	5458.88
927.486	5381.88
927.72	5314.88
927.953	5395.88
928.186	5355.88
928.42	5327.88
928.653	5275.88
928.886	5239.88
929.119	5276.88
929.352	5219.88
929.585	5189.88
929.818	5137.88
930.051	5102.88
930.284	5107.88
930.516	4986.88
930.749	4996.88
930.982	5030.88
931.215	4931.88
931.447	4910.88
931.68	4906.88
931.912	4836.88
932.145	4855.88
932.377	4878.88
932.61	5023.88
932.842	4843.88
933.074	4843.88
933.307	4809.88
933.539	4874.88
933.771	4904.88
934.003	4850.88
934.236	4918.88
934.468	4882.88
934.7	4816.88
934.932	4832.88
935.164	4790.88
935.395	4721.88
935.627	4763.88
935.859	4787.88
936.091	4686.88
936.323	4736.88
936.554	4710.88
936.786	4657.88
937.017	4596.88
937.249	4616.88
937.481	4554.88
937.712	4626.88
937.943	4562.88
938.175	4537.88
938.406	4532.88
938.637	4607.88
938.869	4491.88
939.1	4521.88
939.331	4479.88
939.562	4520.88
939.793	4493.88
940.024	4495.88
940.255	4525.88
940.486	4412.88
940.717	4431.88
940.948	4423.88
941.179	4382.88
941.409	4349.88
941.64	4292.88
941.871	4403.88
942.102	4319.88
942.332	4324.88
942.563	4394.88
942.793	4356.88
943.024	4304.88
943.254	4283.88
943.484	4339.88
943.715	4356.88
943.945	4324.88
944.175	4252.88
944.405	4244.88
944.636	4287.88
944.866	4320.88
945.096	4294.88
945.326	4185.88
945.556	4236.88
945.786	4248.88
946.016	4126.88
946.245	4071.88
946.475	4116.88
946.705	4042.88
946.935	4061.88
947.164	4090.88
947.394	4013.88
947.624	4015.88
947.853	4037.88
948.083	4014.88
948.312	3939.88
948.542	3890.88
948.771	3877.88
949	3912.88
949.23	3871.88
949.459	3908.88
949.688	3955.88
949.917	3877.88
950.146	3950.88
950.375	3965.88
950.604	3847.88
950.833	3933.88
951.062	3927.88
951.291	3857.88
951.52	3804.88
951.749	3845.88
951.978	3797.88
952.206	3748.88
952.435	3775.88
952.664	3816.88
952.892	3788.88
953.121	3730.88
953.349	3768.88
953.578	3739.88
953.806	3698.88
954.035	3627.88
954.263	3687.88
954.491	3615.88
954.719	3694.88
954.948	3603.88
955.176	3588.88
955.404	3507.88
955.632	3552.88
955.86	3575.88
956.088	3542.88
956.316	3568.88
956.544	3553.88
956.772	3499.88
956.999	3456.88
957.227	3549.88
957.455	3436.88
957.683	3430.88
957.91	3391.88
958.138	3379.88
958.365	3371.88
958.593	3363.88
958.82	3284.88
959.048	3365.88
959.275	3332.88
959.502	3320.88
959.73	3298.88
959.957	3307.88
960.184	3315.88
960.411	3252.88
960.638	3336.88
960.865	3279.88
961.092	3316.88
961.319	3188.88
961.546	3248.88
961.773	3275.88
962	3234.88
962.227	3324.88
962.454	3241.88
962.68	3243.88
962.907	3221.88
963.134	3161.88
963.36	3131.88
963.587	3192.88
963.813	3111.88
964.04	3126.88
964.266	3082.88
964.493	3148.88
964.719	3095.88
964.945	3122.88
965.171	2964.88
965.398	3013.88
965.624	3029.88
965.85	2973.88
966.076	2936.88
966.302	3002.88
966.528	2937.88
966.754	2987.88
966.98	2968.88
967.206	2971.88
967.431	2871.88
967.657	2991.88
967.883	2945.88
968.109	2914.88
968.334	2846.88
968.56	2879.88
968.785	2858.88
969.011	2867.88
969.236	2907.88
969.462	2805.88
969.687	2808.88
969.912	2856.88
970.138	2860.88
970.363	2780.88
970.588	2817.88
970.813	2758.88
971.038	2764.88
971.263	2755.88
971.488	2763.88
971.713	2767.88
971.938	2744.88
972.163	2652.88
972.388	2702.88
972.613	2652.88
972.838	2680.88
973.062	2681.88
973.287	2671.88
973.512	2569.88
973.736	2641.88
973.961	2614.88
974.185	2572.88
974.41	2582.88
974.634	2529.88
974.858	2515.88
975.083	2574.88
975.307	2564.88
975.531	2489.88
975.755	2430.88
975.98	2440.88
976.204	2400.88
976.428	2392.88
976.652	2412.88
976.876	2387.88
977.1	2403.88
977.324	2366.88
977.547	2410.88
977.771	2418.88
977.995	2352.88
978.219	2323.88
978.442	2438.88
978.666	2372.88
978.89	2380.88
979.113	2355.88
979.337	2333.88
979.56	2280.88
979.783	2431.88
980.007	2267.88
980.23	2319.88
980.453	2283.88
980.677	2298.88
980.9	2278.88
981.123	2209.88
981.346	2301.88
981.569	2265.88
981.792	2266.88
982.015	2214.88
982.238	2201.88
982.461	2239.88
982.684	2188.88
982.907	2150.88
983.129	2128.88
983.352	2185.88
983.575	2165.88
983.797	2149.88
984.02	2115.88
984.242	2129.88
984.465	2101.88
984.687	2124.88
984.91	2135.88
985.132	2112.88
985.354	2127.88
985.577	2038.88
985.799	2096.88
986.021	2016.88
986.243	2032.88
986.465	2048.88
986.687	2085.88
986.909	2101.88
987.131	2055.88
987.353	2011.88
987.575	2049.88
987.797	1974.88
988.019	1930.88
988.241	1986.88
988.462	1940.88
988.684	1976.88
988.906	2046.88
989.127	2063.88
989.349	1906.88
989.57	1950.88
989.792	2003.88
990.013	1978.88
990.234	1971.88
990.456	2009.88
990.677	1985.88
990.898	1922.88
991.119	1913.88
991.341	1970.88
991.562	1860.88
991.783	1959.88
992.004	1855.88
992.225	1817.88
992.446	1890.88
992.667	1784.88
992.887	1865.88
993.108	1783.88
993.329	1913.88
993.55	1812.88
993.77	1793.88
993.991	1782.88
994.212	1825.88
994.432	1800.88
994.653	1827.88
994.873	1810.88
995.093	1680.88
995.314	1754.88
995.534	1789.88
995.754	1806.88
995.975	1816.88
996.195	1720.88
996.415	1753.88
996.635	1682.88
996.855	1779.88
997.075	1706.88
997.295	1701.88
997.515	1702.88
997.735	1738.88
997.955	1705.88
998.174	1662.88
998.394	1687.88
998.614	1716.88
998.834	1675.88
999.053	1764.88
999.273	1718.88
999.492	1730.88
999.712	1688.88
999.931	1655.88
1000.151	1703.88
1000.37	1656.88
1000.589	1729.88
1000.809	1640.88
1001.028	1736.88
1001.247	1683.88
1001.466	1585.88
1001.685	1710.88
1001.904	1661.88
1002.123	1624.88
1002.342	1633.88
1002.561	1568.88
1002.78	1631.88
1002.999	1687.88
1003.218	1594.88
1003.436	1606.88
1003.655	1647.88
1003.874	1613.88
1004.092	1582.88
1004.311	1603.88
1004.53	1588.88
1004.748	1663.88
1004.966	1596.88
1005.185	1642.88
1005.403	1636.88
1005.622	1613.88
1005.84	1672.88
1006.058	1536.88
1006.276	1564.88
1006.494	1937.88
1006.712	1568.88
1006.931	1671.88
1007.149	1568.88
1007.367	1525.88
1007.584	1589.88
1007.802	1602.88
1008.02	1536.88
1008.238	1616.88
1008.456	1621.88
1008.673	1473.88
1008.891	1581.88
1009.109	1521.88
1009.326	1577.88
1009.544	1621.88
1009.761	1543.88
1009.979	1638.88
1010.196	1593.88
1010.413	1637.88
1010.631	1688.88
1010.848	1710.88
1011.065	1699.88
1011.282	1631.88
1011.5	1620.88
1011.717	1698.88
1011.934	1631.88
1012.151	1664.88
1012.368	1632.88
1012.585	1565.88
1012.801	1626.88
1013.018	1605.88
1013.235	1552.88
1013.452	1586.88
1013.669	1574.88
1013.885	1546.88
1014.102	1584.88
1014.318	1553.88
1014.535	1517.88
1014.751	1522.88
1014.968	1522.88
1015.184	1566.88
1015.401	1502.88
1015.617	1507.88
1015.833	1457.88
1016.049	1485.88
1016.266	1438.88
1016.482	1445.88
1016.698	1399.88
1016.914	1455.88
1017.13	1367.88
1017.346	1397.88
1017.562	1435.88
1017.778	1359.88
1017.993	1381.88
1018.209	1402.88
1018.425	1376.88
1018.641	1325.88
1018.856	1332.88
1019.072	1364.88
1019.288	1400.88
1019.503	1331.88
1019.719	1255.88
1019.934	1298.88
1020.149	1374.88
1020.365	1277.88
1020.58	1231.88
1020.795	1306.88
1021.011	1260.88
1021.226	1239.88
1021.441	1258.88
1021.656	1185.88
1021.871	1117.88
1022.086	1129.88
1022.301	1132.88
1022.516	1102.88
1022.731	1201.88
1022.946	1083.88
1023.16	1086.88
1023.375	1053.88
1023.59	1055.88
1023.804	993.88
1024.019	1084.88
1024.234	956.88
1024.448	1012.88
1024.663	951.88
1024.877	993.88
1025.092	968.88
1025.306	993.88
1025.52	889.88
1025.734	992.88
1025.949	928.88
1026.163	893.88
1026.377	826.88
1026.591	894.88
1026.805	811.88
1027.019	829.88
1027.233	788.88
1027.447	712.88
1027.661	841.88
1027.875	787.88
1028.088	770.88
1028.302	706.88
1028.516	701.88
1028.73	700.88
1028.943	691.88
1029.157	646.88
1029.37	611.88
1029.584	-7.12
1029.797	-1.12
1030.011	-2.12
1030.224	-2.12
