Data from QEP037381__359__15-03-22-714.txt Node

Date: Fri Apr 28 15:03:22 EDT 2023
User: dcclab
Spectrometer: QEP03738
Trigger mode: 4
Integration Time (sec): 1.000000E1
Scans to average: 1
Electric dark correction enabled: true
Nonlinearity correction enabled: false
Boxcar width: 0
XAxis mode: Wavelengths
Number of Pixels in Spectrum: 1044
>>>>>Begin Spectral Data<<<<<
784.041	11.25
784.3	-2.75
784.558	-3.75
784.817	-1.75
785.075	61996.25
785.334	12530.25
785.592	6597.25
785.851	4681.25
786.109	3569.25
786.368	2804.25
786.626	2282.25
786.884	1937.25
787.143	1656.25
787.401	1341.25
787.659	1227.25
787.917	1059.25
788.175	1010.25
788.433	889.25
788.691	794.25
788.949	733.25
789.207	734.25
789.465	645.25
789.723	623.25
789.98	585.25
790.238	608.25
790.496	582.25
790.753	543.25
791.011	609.25
791.268	551.25
791.526	539.25
791.783	572.25
792.041	538.25
792.298	459.25
792.556	528.25
792.813	514.25
793.07	493.25
793.327	474.25
793.584	558.25
793.841	492.25
794.099	509.25
794.356	567.25
794.613	463.25
794.869	502.25
795.126	483.25
795.383	482.25
795.64	499.25
795.897	433.25
796.153	495.25
796.41	492.25
796.667	476.25
796.923	497.25
797.18	494.25
797.436	524.25
797.693	482.25
797.949	550.25
798.206	578.25
798.462	496.25
798.718	563.25
798.974	550.25
799.231	601.25
799.487	592.25
799.743	635.25
799.999	657.25
800.255	664.25
800.511	687.25
800.767	744.25
801.023	770.25
801.279	811.25
801.534	904.25
801.79	1040.25
802.046	1170.25
802.302	1463.25
802.557	1792.25
802.813	2449.25
803.068	3268.25
803.324	4818.25
803.579	7004.25
803.835	9984.25
804.09	13830.25
804.345	18070.25
804.601	22294.25
804.856	26212.25
805.111	29411.25
805.366	31533.25
805.621	32915.25
805.876	33999.25
806.131	34742.25
806.386	35442.25
806.641	35952.25
806.896	36622.25
807.151	37033.25
807.406	37724.25
807.661	38474.25
807.915	38874.25
808.17	39495.25
808.425	39984.25
808.679	40338.25
808.934	40831.25
809.188	41323.25
809.443	41755.25
809.697	42149.25
809.951	42419.25
810.206	42715.25
810.46	43315.25
810.714	43406.25
810.968	43882.25
811.223	44039.25
811.477	44358.25
811.731	44635.25
811.985	44826.25
812.239	45217.25
812.493	45386.25
812.747	45575.25
813	45759.25
813.254	45989.25
813.508	46151.25
813.762	46237.25
814.015	46388.25
814.269	46642.25
814.522	47163.25
814.776	47504.25
815.03	48091.25
815.283	48906.25
815.536	49528.25
815.79	50316.25
816.043	50802.25
816.296	51546.25
816.55	52016.25
816.803	52583.25
817.056	53342.25
817.309	53885.25
817.562	54177.25
817.815	54953.25
818.068	55444.25
818.321	56078.25
818.574	56809.25
818.827	57493.25
819.079	58286.25
819.332	59217.25
819.585	59937.25
819.838	60642.25
820.09	61090.25
820.343	61495.25
820.595	61590.25
820.848	62095.25
821.1	62424.25
821.353	62356.25
821.605	62299.25
821.857	62222.25
822.11	61852.25
822.362	61880.25
822.614	61770.25
822.866	61653.25
823.118	61772.25
823.37	61743.25
823.622	62019.25
823.874	62000.25
824.126	62511.25
824.378	62442.25
824.63	62616.25
824.882	62641.25
825.134	62552.25
825.385	62435.25
825.637	62347.25
825.888	62132.25
826.14	62176.25
826.392	61824.25
826.643	61381.25
826.895	61317.25
827.146	60955.25
827.397	60957.25
827.649	60884.25
827.9	60786.25
828.151	60713.25
828.402	61038.25
828.653	61009.25
828.905	61064.25
829.156	61233.25
829.407	61152.25
829.658	61034.25
829.909	61050.25
830.159	60823.25
830.41	60390.25
830.661	60001.25
830.912	59578.25
831.162	59627.25
831.413	59390.25
831.664	59267.25
831.914	59360.25
832.165	59109.25
832.415	59168.25
832.666	59326.25
832.916	59176.25
833.167	59014.25
833.417	58833.25
833.667	58561.25
833.917	58398.25
834.168	58172.25
834.418	57808.25
834.668	57661.25
834.918	57407.25
835.168	57065.25
835.418	56960.25
835.668	56767.25
835.918	56684.25
836.167	56661.25
836.417	56294.25
836.667	56242.25
836.917	56240.25
837.166	55953.25
837.416	56033.25
837.666	55945.25
837.915	55713.25
838.165	55605.25
838.414	55286.25
838.663	55131.25
838.913	55088.25
839.162	54794.25
839.411	54815.25
839.661	54642.25
839.91	54339.25
840.159	54184.25
840.408	53996.25
840.657	53984.25
840.906	54005.25
841.155	54192.25
841.404	53967.25
841.653	53939.25
841.902	53918.25
842.15	54002.25
842.399	53995.25
842.648	53885.25
842.897	53682.25
843.145	53369.25
843.394	53030.25
843.642	52863.25
843.891	52497.25
844.139	52081.25
844.388	51852.25
844.636	51550.25
844.884	51544.25
845.133	51489.25
845.381	51285.25
845.629	51334.25
845.877	51282.25
846.125	51196.25
846.373	51067.25
846.621	50748.25
846.869	50638.25
847.117	50212.25
847.365	49984.25
847.613	49818.25
847.861	49671.25
848.108	49690.25
848.356	49545.25
848.604	49274.25
848.851	49335.25
849.099	49295.25
849.346	49395.25
849.594	49347.25
849.841	49569.25
850.089	49734.25
850.336	49693.25
850.583	49588.25
850.831	49181.25
851.078	48782.25
851.325	48739.25
851.572	48598.25
851.819	48034.25
852.066	47269.25
852.313	46778.25
852.56	46631.25
852.807	46238.25
853.054	46119.25
853.301	45925.25
853.548	45951.25
853.794	46252.25
854.041	46337.25
854.288	46509.25
854.534	46655.25
854.781	46821.25
855.028	46513.25
855.274	46425.25
855.52	46342.25
855.767	45978.25
856.013	45819.25
856.26	45883.25
856.506	45267.25
856.752	45216.25
856.998	45035.25
857.244	45270.25
857.49	45538.25
857.736	45540.25
857.982	45476.25
858.228	45281.25
858.474	45088.25
858.72	44720.25
858.966	44169.25
859.212	44037.25
859.458	43564.25
859.703	42891.25
859.949	42690.25
860.195	42255.25
860.44	41963.25
860.686	41741.25
860.931	41601.25
861.177	41292.25
861.422	41180.25
861.667	41310.25
861.913	41528.25
862.158	41436.25
862.403	41564.25
862.648	41510.25
862.893	41504.25
863.138	41465.25
863.384	41399.25
863.629	41099.25
863.873	41008.25
864.118	40842.25
864.363	40486.25
864.608	40335.25
864.853	40185.25
865.098	39912.25
865.342	39591.25
865.587	39667.25
865.832	39568.25
866.076	39334.25
866.321	39290.25
866.565	39200.25
866.81	39006.25
867.054	38733.25
867.298	38698.25
867.543	38702.25
867.787	38500.25
868.031	38548.25
868.275	38380.25
868.519	38116.25
868.764	38059.25
869.008	38163.25
869.252	37945.25
869.496	37559.25
869.739	37660.25
869.983	37618.25
870.227	37404.25
870.471	37424.25
870.715	37428.25
870.958	37483.25
871.202	37674.25
871.446	37599.25
871.689	37521.25
871.933	37404.25
872.176	37223.25
872.42	37185.25
872.663	37193.25
872.906	36995.25
873.15	36886.25
873.393	36587.25
873.636	36387.25
873.879	35940.25
874.122	35612.25
874.366	35392.25
874.609	35161.25
874.852	34784.25
875.095	34449.25
875.337	34587.25
875.58	34211.25
875.823	34095.25
876.066	34152.25
876.309	34060.25
876.551	33790.25
876.794	33603.25
877.037	33730.25
877.279	33621.25
877.522	33756.25
877.764	33544.25
878.007	33638.25
878.249	33462.25
878.491	33363.25
878.734	33378.25
878.976	33334.25
879.218	33072.25
879.46	32891.25
879.702	32676.25
879.945	32388.25
880.187	32029.25
880.429	31816.25
880.671	31600.25
880.912	31475.25
881.154	31392.25
881.396	31210.25
881.638	31404.25
881.88	31208.25
882.121	31113.25
882.363	31113.25
882.605	31008.25
882.846	30944.25
883.088	30737.25
883.329	30623.25
883.571	30545.25
883.812	30616.25
884.053	30752.25
884.295	31052.25
884.536	31061.25
884.777	31001.25
885.018	30773.25
885.259	30577.25
885.5	30634.25
885.742	30786.25
885.982	30493.25
886.223	30226.25
886.464	30200.25
886.705	29899.25
886.946	29814.25
887.187	29407.25
887.428	29269.25
887.668	28859.25
887.909	28636.25
888.15	28365.25
888.39	28313.25
888.631	28054.25
888.871	27798.25
889.111	27572.25
889.352	27417.25
889.592	27034.25
889.833	26981.25
890.073	26662.25
890.313	26678.25
890.553	26327.25
890.793	26263.25
891.033	26143.25
891.273	25938.25
891.513	25808.25
891.753	25864.25
891.993	25901.25
892.233	25834.25
892.473	25952.25
892.713	25843.25
892.952	25909.25
893.192	25788.25
893.432	25813.25
893.671	25624.25
893.911	25441.25
894.15	25312.25
894.39	25189.25
894.629	25065.25
894.869	24855.25
895.108	24521.25
895.347	24480.25
895.587	24447.25
895.826	24260.25
896.065	24078.25
896.304	24127.25
896.543	24126.25
896.782	23984.25
897.021	23850.25
897.26	23717.25
897.499	23717.25
897.738	23463.25
897.977	23397.25
898.216	23131.25
898.454	23037.25
898.693	22902.25
898.932	22794.25
899.17	22632.25
899.409	22532.25
899.647	22428.25
899.886	22415.25
900.124	22426.25
900.363	22478.25
900.601	22474.25
900.839	22424.25
901.078	22445.25
901.316	22427.25
901.554	22358.25
901.792	22461.25
902.03	22427.25
902.268	22398.25
902.506	22290.25
902.744	22177.25
902.982	22136.25
903.22	21790.25
903.458	21671.25
903.695	21343.25
903.933	21176.25
904.171	20769.25
904.409	20523.25
904.646	20310.25
904.884	19907.25
905.121	19877.25
905.359	19656.25
905.596	19537.25
905.833	19271.25
906.071	19170.25
906.308	19227.25
906.545	19221.25
906.783	19094.25
907.02	19129.25
907.257	18968.25
907.494	18971.25
907.731	19005.25
907.968	18873.25
908.205	18817.25
908.442	18637.25
908.679	18456.25
908.915	18340.25
909.152	18172.25
909.389	18001.25
909.626	17874.25
909.862	17704.25
910.099	17630.25
910.335	17624.25
910.572	17508.25
910.808	17454.25
911.045	17466.25
911.281	17326.25
911.518	17199.25
911.754	17146.25
911.99	17022.25
912.226	17016.25
912.463	16781.25
912.699	16619.25
912.935	16582.25
913.171	16306.25
913.407	16318.25
913.643	16194.25
913.879	15966.25
914.114	15891.25
914.35	15677.25
914.586	15533.25
914.822	15434.25
915.057	15415.25
915.293	15119.25
915.529	15036.25
915.764	14995.25
916	15082.25
916.235	15026.25
916.471	14983.25
916.706	14868.25
916.941	14882.25
917.177	14887.25
917.412	14826.25
917.647	14894.25
917.882	14832.25
918.117	14813.25
918.352	14731.25
918.588	14704.25
918.823	14554.25
919.057	14319.25
919.292	14167.25
919.527	14122.25
919.762	13840.25
919.997	13785.25
920.232	13523.25
920.466	13544.25
920.701	13232.25
920.935	13226.25
921.17	13128.25
921.405	13127.25
921.639	13085.25
921.873	12947.25
922.108	12952.25
922.342	12967.25
922.576	12885.25
922.811	12836.25
923.045	12786.25
923.279	12762.25
923.513	12621.25
923.747	12606.25
923.981	12432.25
924.215	12301.25
924.449	12204.25
924.683	12195.25
924.917	12044.25
925.151	12026.25
925.385	11983.25
925.618	11983.25
925.852	11944.25
926.086	11762.25
926.319	11771.25
926.553	11765.25
926.786	11833.25
927.02	11810.25
927.253	11801.25
927.486	11764.25
927.72	11695.25
927.953	11739.25
928.186	11551.25
928.42	11615.25
928.653	11551.25
928.886	11426.25
929.119	11496.25
929.352	11340.25
929.585	11302.25
929.818	11097.25
930.051	11117.25
930.284	11040.25
930.516	10822.25
930.749	10783.25
930.982	10759.25
931.215	10739.25
931.447	10597.25
931.68	10547.25
931.912	10541.25
932.145	10476.25
932.377	10513.25
932.61	10629.25
932.842	10396.25
933.074	10608.25
933.307	10519.25
933.539	10562.25
933.771	10527.25
934.003	10529.25
934.236	10533.25
934.468	10564.25
934.7	10367.25
934.932	10330.25
935.164	10283.25
935.395	10246.25
935.627	10246.25
935.859	10202.25
936.091	10124.25
936.323	10151.25
936.554	10110.25
936.786	9964.25
937.017	9908.25
937.249	9849.25
937.481	9858.25
937.712	9802.25
937.943	9814.25
938.175	9746.25
938.406	9736.25
938.637	9799.25
938.869	9746.25
939.1	9775.25
939.331	9669.25
939.562	9674.25
939.793	9643.25
940.024	9721.25
940.255	9587.25
940.486	9516.25
940.717	9517.25
940.948	9393.25
941.179	9389.25
941.409	9367.25
941.64	9359.25
941.871	9365.25
942.102	9395.25
942.332	9235.25
942.563	9335.25
942.793	9286.25
943.024	9189.25
943.254	9263.25
943.484	9246.25
943.715	9238.25
943.945	9147.25
944.175	9175.25
944.405	9091.25
944.636	9102.25
944.866	9149.25
945.096	9171.25
945.326	9021.25
945.556	9069.25
945.786	8970.25
946.016	8954.25
946.245	8840.25
946.475	8825.25
946.705	8653.25
946.935	8618.25
947.164	8609.25
947.394	8529.25
947.624	8548.25
947.853	8565.25
948.083	8484.25
948.312	8425.25
948.542	8385.25
948.771	8262.25
949	8280.25
949.23	8295.25
949.459	8309.25
949.688	8360.25
949.917	8309.25
950.146	8282.25
950.375	8351.25
950.604	8193.25
950.833	8363.25
951.062	8233.25
951.291	8176.25
951.52	8190.25
951.749	8107.25
951.978	8006.25
952.206	8013.25
952.435	8024.25
952.664	7996.25
952.892	8044.25
953.121	7976.25
953.349	7938.25
953.578	7927.25
953.806	7752.25
954.035	7728.25
954.263	7817.25
954.491	7689.25
954.719	7685.25
954.948	7663.25
955.176	7547.25
955.404	7531.25
955.632	7554.25
955.86	7463.25
956.088	7445.25
956.316	7475.25
956.544	7347.25
956.772	7326.25
956.999	7245.25
957.227	7304.25
957.455	7191.25
957.683	7207.25
957.91	7131.25
958.138	7114.25
958.365	7083.25
958.593	7044.25
958.82	6978.25
959.048	7068.25
959.275	7014.25
959.502	6948.25
959.73	6868.25
959.957	6988.25
960.184	6935.25
960.411	6814.25
960.638	6912.25
960.865	6802.25
961.092	6865.25
961.319	6756.25
961.546	6858.25
961.773	6899.25
962	6770.25
962.227	6873.25
962.454	6737.25
962.68	6701.25
962.907	6677.25
963.134	6587.25
963.36	6566.25
963.587	6607.25
963.813	6500.25
964.04	6472.25
964.266	6378.25
964.493	6502.25
964.719	6350.25
964.945	6354.25
965.171	6203.25
965.398	6287.25
965.624	6271.25
965.85	6136.25
966.076	6105.25
966.302	6157.25
966.528	6105.25
966.754	6084.25
966.98	6090.25
967.206	6036.25
967.431	5951.25
967.657	6042.25
967.883	6012.25
968.109	6027.25
968.334	5933.25
968.56	5915.25
968.785	5890.25
969.011	5831.25
969.236	5827.25
969.462	5802.25
969.687	5790.25
969.912	5843.25
970.138	5836.25
970.363	5698.25
970.588	5764.25
970.813	5696.25
971.038	5664.25
971.263	5638.25
971.488	5666.25
971.713	5644.25
971.938	5588.25
972.163	5504.25
972.388	5513.25
972.613	5466.25
972.838	5458.25
973.062	5420.25
973.287	5407.25
973.512	5341.25
973.736	5347.25
973.961	5339.25
974.185	5248.25
974.41	5240.25
974.634	5154.25
974.858	5093.25
975.083	5151.25
975.307	5112.25
975.531	5061.25
975.755	4998.25
975.98	4966.25
976.204	4856.25
976.428	4914.25
976.652	4899.25
976.876	4841.25
977.1	4861.25
977.324	4844.25
977.547	4867.25
977.771	4820.25
977.995	4818.25
978.219	4728.25
978.442	4855.25
978.666	4775.25
978.89	4745.25
979.113	4719.25
979.337	4686.25
979.56	4619.25
979.783	4777.25
980.007	4589.25
980.23	4664.25
980.453	4533.25
980.677	4596.25
980.9	4550.25
981.123	4467.25
981.346	4551.25
981.569	4490.25
981.792	4490.25
982.015	4434.25
982.238	4319.25
982.461	4398.25
982.684	4321.25
982.907	4255.25
983.129	4206.25
983.352	4281.25
983.575	4236.25
983.797	4224.25
984.02	4185.25
984.242	4178.25
984.465	4149.25
984.687	4173.25
984.91	4140.25
985.132	4078.25
985.354	4077.25
985.577	4060.25
985.799	4058.25
986.021	3925.25
986.243	3929.25
986.465	3990.25
986.687	3995.25
986.909	4086.25
987.131	3962.25
987.353	3896.25
987.575	3939.25
987.797	3930.25
988.019	3836.25
988.241	3868.25
988.462	3808.25
988.684	3868.25
988.906	3896.25
989.127	3909.25
989.349	3748.25
989.57	3755.25
989.792	3841.25
990.013	3793.25
990.234	3744.25
990.456	3750.25
990.677	3772.25
990.898	3682.25
991.119	3663.25
991.341	3680.25
991.562	3592.25
991.783	3628.25
992.004	3511.25
992.225	3519.25
992.446	3570.25
992.667	3450.25
992.887	3505.25
993.108	3403.25
993.329	3520.25
993.55	3441.25
993.77	3381.25
993.991	3345.25
994.212	3389.25
994.432	3334.25
994.653	3347.25
994.873	3329.25
995.093	3207.25
995.314	3246.25
995.534	3325.25
995.754	3296.25
995.975	3300.25
996.195	3192.25
996.415	3268.25
996.635	3241.25
996.855	3196.25
997.075	3184.25
997.295	3167.25
997.515	3107.25
997.735	3131.25
997.955	3125.25
998.174	3137.25
998.394	3096.25
998.614	3142.25
998.834	3113.25
999.053	3159.25
999.273	3110.25
999.492	3203.25
999.712	3097.25
999.931	3047.25
1000.151	3057.25
1000.37	3018.25
1000.589	3060.25
1000.809	2983.25
1001.028	3058.25
1001.247	2978.25
1001.466	2899.25
1001.685	2970.25
1001.904	2913.25
1002.123	2837.25
1002.342	2848.25
1002.561	2844.25
1002.78	2813.25
1002.999	2881.25
1003.218	2830.25
1003.436	2761.25
1003.655	2822.25
1003.874	2750.25
1004.092	2748.25
1004.311	2759.25
1004.53	2714.25
1004.748	2806.25
1004.966	2702.25
1005.185	2782.25
1005.403	2717.25
1005.622	2689.25
1005.84	2812.25
1006.058	2650.25
1006.276	2704.25
1006.494	3021.25
1006.712	2692.25
1006.931	2724.25
1007.149	2671.25
1007.367	2611.25
1007.584	2667.25
1007.802	2695.25
1008.02	2610.25
1008.238	2713.25
1008.456	2722.25
1008.673	2573.25
1008.891	2677.25
1009.109	2652.25
1009.326	2675.25
1009.544	2753.25
1009.761	2674.25
1009.979	2768.25
1010.196	2786.25
1010.413	2901.25
1010.631	2935.25
1010.848	2972.25
1011.065	2959.25
1011.282	2940.25
1011.5	2826.25
1011.717	2948.25
1011.934	2920.25
1012.151	2909.25
1012.368	2878.25
1012.585	2807.25
1012.801	2849.25
1013.018	2796.25
1013.235	2833.25
1013.452	2813.25
1013.669	2829.25
1013.885	2788.25
1014.102	2815.25
1014.318	2816.25
1014.535	2761.25
1014.751	2767.25
1014.968	2704.25
1015.184	2750.25
1015.401	2675.25
1015.617	2674.25
1015.833	2583.25
1016.049	2594.25
1016.266	2587.25
1016.482	2565.25
1016.698	2449.25
1016.914	2516.25
1017.13	2493.25
1017.346	2469.25
1017.562	2497.25
1017.778	2446.25
1017.993	2394.25
1018.209	2449.25
1018.425	2430.25
1018.641	2387.25
1018.856	2348.25
1019.072	2383.25
1019.288	2384.25
1019.503	2411.25
1019.719	2300.25
1019.934	2306.25
1020.149	2354.25
1020.365	2248.25
1020.58	2217.25
1020.795	2257.25
1021.011	2168.25
1021.226	2137.25
1021.441	2126.25
1021.656	2100.25
1021.871	2027.25
1022.086	1991.25
1022.301	1963.25
1022.516	1903.25
1022.731	1985.25
1022.946	1862.25
1023.16	1844.25
1023.375	1811.25
1023.59	1784.25
1023.804	1741.25
1024.019	1823.25
1024.234	1668.25
1024.448	1720.25
1024.663	1613.25
1024.877	1632.25
1025.092	1663.25
1025.306	1619.25
1025.52	1498.25
1025.734	1597.25
1025.949	1480.25
1026.163	1478.25
1026.377	1385.25
1026.591	1443.25
1026.805	1335.25
1027.019	1310.25
1027.233	1310.25
1027.447	1235.25
1027.661	1324.25
1027.875	1275.25
1028.088	1236.25
1028.302	1166.25
1028.516	1134.25
1028.73	1119.25
1028.943	1103.25
1029.157	1056.25
1029.37	970.25
1029.584	0.25
1029.797	1.25
1030.011	-2.75
1030.224	-1.75
