Data from QEP037381__175__15-52-39-887.txt Node

Date: Fri Dec 16 15:52:39 EST 2022
User: dcclab
Spectrometer: QEP03738
Trigger mode: 4
Integration Time (sec): 1.000000E1
Scans to average: 1
Electric dark correction enabled: true
Nonlinearity correction enabled: false
Boxcar width: 0
XAxis mode: Wavelengths
Number of Pixels in Spectrum: 1044
>>>>>Begin Spectral Data<<<<<
784.041	12.75
784.3	0.75
784.558	-2.25
784.817	-4.25
785.075	110716.75
785.334	19304.75
785.592	9099.75
785.851	6240.75
786.109	4805.75
786.368	3648.75
786.626	2978.75
786.884	2501.75
787.143	2034.75
787.401	1714.75
787.659	1515.75
787.917	1305.75
788.175	1200.75
788.433	1034.75
788.691	952.75
788.949	875.75
789.207	828.75
789.465	719.75
789.723	697.75
789.98	649.75
790.238	681.75
790.496	645.75
790.753	603.75
791.011	653.75
791.268	586.75
791.526	565.75
791.783	578.75
792.041	549.75
792.298	484.75
792.556	560.75
792.813	501.75
793.07	502.75
793.327	487.75
793.584	564.75
793.841	479.75
794.099	512.75
794.356	568.75
794.613	475.75
794.869	501.75
795.126	473.75
795.383	468.75
795.64	468.75
795.897	434.75
796.153	492.75
796.41	470.75
796.667	449.75
796.923	455.75
797.18	477.75
797.436	496.75
797.693	464.75
797.949	505.75
798.206	535.75
798.462	445.75
798.718	513.75
798.974	502.75
799.231	525.75
799.487	537.75
799.743	537.75
799.999	577.75
800.255	568.75
800.511	572.75
800.767	625.75
801.023	610.75
801.279	656.75
801.534	717.75
801.79	781.75
802.046	833.75
802.302	1042.75
802.557	1219.75
802.813	1533.75
803.068	1938.75
803.324	2726.75
803.579	3852.75
803.835	5288.75
804.09	7365.75
804.345	9689.75
804.601	12387.75
804.856	14977.75
805.111	17406.75
805.366	19195.75
805.621	20488.75
805.876	21502.75
806.131	22068.75
806.386	22554.75
806.641	22971.75
806.896	23209.75
807.151	23717.75
807.406	24115.75
807.661	24578.75
807.915	24783.75
808.17	25310.75
808.425	25525.75
808.679	25773.75
808.934	26079.75
809.188	26351.75
809.443	26592.75
809.697	26894.75
809.951	27013.75
810.206	27341.75
810.46	27575.75
810.714	27704.75
810.968	28040.75
811.223	28239.75
811.477	28448.75
811.731	28789.75
811.985	28967.75
812.239	29045.75
812.493	29094.75
812.747	29249.75
813	29263.75
813.254	29412.75
813.508	29472.75
813.762	29723.75
814.015	29784.75
814.269	29975.75
814.522	30221.75
814.776	30513.75
815.03	30973.75
815.283	31340.75
815.536	31873.75
815.79	32305.75
816.043	32697.75
816.296	33336.75
816.55	33514.75
816.803	34009.75
817.056	34502.75
817.309	34745.75
817.562	35102.75
817.815	35497.75
818.068	35635.75
818.321	36037.75
818.574	36373.75
818.827	37025.75
819.079	37235.75
819.332	37884.75
819.585	38344.75
819.838	38855.75
820.09	39125.75
820.343	39341.75
820.595	39559.75
820.848	39696.75
821.1	39897.75
821.353	39969.75
821.605	40042.75
821.857	39908.75
822.11	39681.75
822.362	39659.75
822.614	39450.75
822.866	39518.75
823.118	39576.75
823.37	39648.75
823.622	39735.75
823.874	39836.75
824.126	40068.75
824.378	39997.75
824.63	39927.75
824.882	40257.75
825.134	40070.75
825.385	40119.75
825.637	40067.75
825.888	39880.75
826.14	39765.75
826.392	39661.75
826.643	39467.75
826.895	39453.75
827.146	39176.75
827.397	38963.75
827.649	39181.75
827.9	39029.75
828.151	39121.75
828.402	39236.75
828.653	39380.75
828.905	39417.75
829.156	39432.75
829.407	39466.75
829.658	39158.75
829.909	39352.75
830.159	39248.75
830.41	39072.75
830.661	38882.75
830.912	38566.75
831.162	38404.75
831.413	38405.75
831.664	38528.75
831.914	38397.75
832.165	38290.75
832.415	38160.75
832.666	38354.75
832.916	38251.75
833.167	38121.75
833.417	38295.75
833.667	38111.75
833.917	37777.75
834.168	37833.75
834.418	37702.75
834.668	37437.75
834.918	37476.75
835.168	37075.75
835.418	37010.75
835.668	36895.75
835.918	36842.75
836.167	36823.75
836.417	36621.75
836.667	36565.75
836.917	36634.75
837.166	36405.75
837.416	36521.75
837.666	36482.75
837.915	36269.75
838.165	36370.75
838.414	36040.75
838.663	36077.75
838.913	35904.75
839.162	35720.75
839.411	35873.75
839.661	35658.75
839.91	35602.75
840.159	35612.75
840.408	35499.75
840.657	35488.75
840.906	35567.75
841.155	35443.75
841.404	35302.75
841.653	35541.75
841.902	35389.75
842.15	35497.75
842.399	35435.75
842.648	35240.75
842.897	35302.75
843.145	35043.75
843.394	34878.75
843.642	34622.75
843.891	34564.75
844.139	34176.75
844.388	34110.75
844.636	33867.75
844.884	33907.75
845.133	33846.75
845.381	33676.75
845.629	33796.75
845.877	33768.75
846.125	33696.75
846.373	33606.75
846.621	33451.75
846.869	33299.75
847.117	33195.75
847.365	32854.75
847.613	32812.75
847.861	32699.75
848.108	32619.75
848.356	32517.75
848.604	32564.75
848.851	32475.75
849.099	32478.75
849.346	32458.75
849.594	32604.75
849.841	32761.75
850.089	32799.75
850.336	32785.75
850.583	32783.75
850.831	32528.75
851.078	32310.75
851.325	32311.75
851.572	32281.75
851.819	31932.75
852.066	31492.75
852.313	31147.75
852.56	30877.75
852.807	30683.75
853.054	30595.75
853.301	30480.75
853.548	30639.75
853.794	30715.75
854.041	30833.75
854.288	30887.75
854.534	31217.75
854.781	31089.75
855.028	30876.75
855.274	30951.75
855.52	30763.75
855.767	30493.75
856.013	30404.75
856.26	30640.75
856.506	30127.75
856.752	30160.75
856.998	30180.75
857.244	30195.75
857.49	30299.75
857.736	30379.75
857.982	30285.75
858.228	30267.75
858.474	30093.75
858.72	29932.75
858.966	29531.75
859.212	29357.75
859.458	28918.75
859.703	28757.75
859.949	28524.75
860.195	28287.75
860.44	28134.75
860.686	27996.75
860.931	28071.75
861.177	27696.75
861.422	27557.75
861.667	27671.75
861.913	27530.75
862.158	27648.75
862.403	27662.75
862.648	27689.75
862.893	27772.75
863.138	27672.75
863.384	27692.75
863.629	27584.75
863.873	27627.75
864.118	27552.75
864.363	27300.75
864.608	27186.75
864.853	27195.75
865.098	27030.75
865.342	26884.75
865.587	26723.75
865.832	26639.75
866.076	26505.75
866.321	26358.75
866.565	26380.75
866.81	26231.75
867.054	26156.75
867.298	26119.75
867.543	25991.75
867.787	26074.75
868.031	25880.75
868.275	25881.75
868.519	25889.75
868.764	25755.75
869.008	25648.75
869.252	25511.75
869.496	25490.75
869.739	25528.75
869.983	25432.75
870.227	25404.75
870.471	25274.75
870.715	25388.75
870.958	25506.75
871.202	25425.75
871.446	25590.75
871.689	25471.75
871.933	25517.75
872.176	25399.75
872.42	25436.75
872.663	25292.75
872.906	25193.75
873.15	25092.75
873.393	24936.75
873.636	24778.75
873.879	24754.75
874.122	24320.75
874.366	24186.75
874.609	23982.75
874.852	23844.75
875.095	23558.75
875.337	23533.75
875.58	23364.75
875.823	23354.75
876.066	23308.75
876.309	23197.75
876.551	23034.75
876.794	22956.75
877.037	22969.75
877.279	22733.75
877.522	22910.75
877.764	22772.75
878.007	22757.75
878.249	22673.75
878.491	22766.75
878.734	22802.75
878.976	22681.75
879.218	22439.75
879.46	22381.75
879.702	22252.75
879.945	21983.75
880.187	21888.75
880.429	21837.75
880.671	21647.75
880.912	21558.75
881.154	21359.75
881.396	21380.75
881.638	21372.75
881.88	21353.75
882.121	21312.75
882.363	21330.75
882.605	21219.75
882.846	21091.75
883.088	21117.75
883.329	21004.75
883.571	20941.75
883.812	20963.75
884.053	21318.75
884.295	21458.75
884.536	21615.75
884.777	21529.75
885.018	21369.75
885.259	21320.75
885.5	21152.75
885.742	21365.75
885.982	21133.75
886.223	21025.75
886.464	20854.75
886.705	20661.75
886.946	20586.75
887.187	20314.75
887.428	20156.75
887.668	19995.75
887.909	19616.75
888.15	19458.75
888.39	19393.75
888.631	19252.75
888.871	19096.75
889.111	19015.75
889.352	18911.75
889.592	18728.75
889.833	18505.75
890.073	18473.75
890.313	18463.75
890.553	18138.75
890.793	18103.75
891.033	18022.75
891.273	17898.75
891.513	17946.75
891.753	17805.75
891.993	17804.75
892.233	17801.75
892.473	17959.75
892.713	17945.75
892.952	17771.75
893.192	17834.75
893.432	17751.75
893.671	17820.75
893.911	17638.75
894.15	17666.75
894.39	17346.75
894.629	17211.75
894.869	17227.75
895.108	17063.75
895.347	16993.75
895.587	16936.75
895.826	16973.75
896.065	16791.75
896.304	16925.75
896.543	16872.75
896.782	16668.75
897.021	16697.75
897.26	16652.75
897.499	16635.75
897.738	16632.75
897.977	16343.75
898.216	16285.75
898.454	16087.75
898.693	16028.75
898.932	16028.75
899.17	15877.75
899.409	15859.75
899.647	15806.75
899.886	15689.75
900.124	15817.75
900.363	15740.75
900.601	15782.75
900.839	15784.75
901.078	15797.75
901.316	15806.75
901.554	15798.75
901.792	15921.75
902.03	15789.75
902.268	15796.75
902.506	15714.75
902.744	15743.75
902.982	15588.75
903.22	15473.75
903.458	15159.75
903.695	15047.75
903.933	14764.75
904.171	14572.75
904.409	14440.75
904.646	14288.75
904.884	14146.75
905.121	13981.75
905.359	13718.75
905.596	13776.75
905.833	13540.75
906.071	13550.75
906.308	13472.75
906.545	13455.75
906.783	13387.75
907.02	13396.75
907.257	13275.75
907.494	13270.75
907.731	13275.75
907.968	13151.75
908.205	13062.75
908.442	12995.75
908.679	12992.75
908.915	12787.75
909.152	12682.75
909.389	12575.75
909.626	12578.75
909.862	12379.75
910.099	12384.75
910.335	12354.75
910.572	12195.75
910.808	12231.75
911.045	12136.75
911.281	12048.75
911.518	12139.75
911.754	11939.75
911.99	11980.75
912.226	11889.75
912.463	11724.75
912.699	11694.75
912.935	11538.75
913.171	11499.75
913.407	11357.75
913.643	11318.75
913.879	11246.75
914.114	11112.75
914.35	11028.75
914.586	10891.75
914.822	10736.75
915.057	10775.75
915.293	10579.75
915.529	10558.75
915.764	10634.75
916	10521.75
916.235	10495.75
916.471	10517.75
916.706	10481.75
916.941	10440.75
917.177	10432.75
917.412	10423.75
917.647	10442.75
917.882	10297.75
918.117	10361.75
918.352	10358.75
918.588	10300.75
918.823	10169.75
919.057	10049.75
919.292	9862.75
919.527	9944.75
919.762	9671.75
919.997	9755.75
920.232	9558.75
920.466	9561.75
920.701	9363.75
920.935	9312.75
921.17	9290.75
921.405	9173.75
921.639	9221.75
921.873	9166.75
922.108	9134.75
922.342	9096.75
922.576	9054.75
922.811	8954.75
923.045	8957.75
923.279	9009.75
923.513	8810.75
923.747	8771.75
923.981	8786.75
924.215	8722.75
924.449	8644.75
924.683	8555.75
924.917	8502.75
925.151	8495.75
925.385	8502.75
925.618	8472.75
925.852	8498.75
926.086	8342.75
926.319	8395.75
926.553	8361.75
926.786	8348.75
927.02	8339.75
927.253	8317.75
927.486	8370.75
927.72	8250.75
927.953	8299.75
928.186	8256.75
928.42	8215.75
928.653	8229.75
928.886	8142.75
929.119	8159.75
929.352	8054.75
929.585	7977.75
929.818	7815.75
930.051	7922.75
930.284	7828.75
930.516	7710.75
930.749	7656.75
930.982	7628.75
931.215	7655.75
931.447	7462.75
931.68	7516.75
931.912	7505.75
932.145	7440.75
932.377	7463.75
932.61	7601.75
932.842	7369.75
933.074	7502.75
933.307	7438.75
933.539	7459.75
933.771	7451.75
934.003	7427.75
934.236	7472.75
934.468	7522.75
934.7	7341.75
934.932	7420.75
935.164	7330.75
935.395	7301.75
935.627	7282.75
935.859	7272.75
936.091	7163.75
936.323	7246.75
936.554	7170.75
936.786	7138.75
937.017	7069.75
937.249	7117.75
937.481	6962.75
937.712	7033.75
937.943	7002.75
938.175	6967.75
938.406	6983.75
938.637	7003.75
938.869	6887.75
939.1	6937.75
939.331	6858.75
939.562	6977.75
939.793	6815.75
940.024	6861.75
940.255	6804.75
940.486	6698.75
940.717	6766.75
940.948	6708.75
941.179	6658.75
941.409	6638.75
941.64	6596.75
941.871	6664.75
942.102	6608.75
942.332	6616.75
942.563	6573.75
942.793	6628.75
943.024	6538.75
943.254	6550.75
943.484	6554.75
943.715	6593.75
943.945	6576.75
944.175	6533.75
944.405	6483.75
944.636	6467.75
944.866	6509.75
945.096	6481.75
945.326	6425.75
945.556	6428.75
945.786	6467.75
946.016	6339.75
946.245	6290.75
946.475	6225.75
946.705	6211.75
946.935	6174.75
947.164	6186.75
947.394	6081.75
947.624	6129.75
947.853	6110.75
948.083	6031.75
948.312	5946.75
948.542	5913.75
948.771	5907.75
949	5878.75
949.23	5884.75
949.459	5897.75
949.688	5985.75
949.917	5886.75
950.146	5914.75
950.375	5914.75
950.604	5835.75
950.833	5959.75
951.062	5825.75
951.291	5813.75
951.52	5784.75
951.749	5768.75
951.978	5769.75
952.206	5742.75
952.435	5675.75
952.664	5713.75
952.892	5724.75
953.121	5637.75
953.349	5628.75
953.578	5650.75
953.806	5609.75
954.035	5462.75
954.263	5535.75
954.491	5506.75
954.719	5478.75
954.948	5423.75
955.176	5418.75
955.404	5317.75
955.632	5374.75
955.86	5362.75
956.088	5322.75
956.316	5298.75
956.544	5313.75
956.772	5226.75
956.999	5203.75
957.227	5272.75
957.455	5149.75
957.683	5111.75
957.91	5046.75
958.138	5033.75
958.365	5043.75
958.593	5024.75
958.82	4979.75
959.048	5002.75
959.275	4972.75
959.502	4920.75
959.73	4856.75
959.957	4931.75
960.184	4946.75
960.411	4860.75
960.638	4925.75
960.865	4890.75
961.092	4867.75
961.319	4767.75
961.546	4858.75
961.773	4896.75
962	4807.75
962.227	4818.75
962.454	4791.75
962.68	4723.75
962.907	4733.75
963.134	4679.75
963.36	4704.75
963.587	4683.75
963.813	4571.75
964.04	4654.75
964.266	4561.75
964.493	4623.75
964.719	4546.75
964.945	4572.75
965.171	4417.75
965.398	4491.75
965.624	4493.75
965.85	4411.75
966.076	4402.75
966.302	4401.75
966.528	4343.75
966.754	4361.75
966.98	4344.75
967.206	4282.75
967.431	4303.75
967.657	4309.75
967.883	4286.75
968.109	4297.75
968.334	4234.75
968.56	4183.75
968.785	4191.75
969.011	4123.75
969.236	4168.75
969.462	4136.75
969.687	4165.75
969.912	4152.75
970.138	4168.75
970.363	4088.75
970.588	4109.75
970.813	4057.75
971.038	4049.75
971.263	4061.75
971.488	4023.75
971.713	4070.75
971.938	4050.75
972.163	3931.75
972.388	3914.75
972.613	3892.75
972.838	3898.75
973.062	3924.75
973.287	3867.75
973.512	3793.75
973.736	3821.75
973.961	3808.75
974.185	3781.75
974.41	3760.75
974.634	3699.75
974.858	3679.75
975.083	3709.75
975.307	3716.75
975.531	3640.75
975.755	3587.75
975.98	3615.75
976.204	3562.75
976.428	3547.75
976.652	3519.75
976.876	3487.75
977.1	3469.75
977.324	3456.75
977.547	3465.75
977.771	3468.75
977.995	3421.75
978.219	3374.75
978.442	3449.75
978.666	3398.75
978.89	3404.75
979.113	3420.75
979.337	3394.75
979.56	3345.75
979.783	3413.75
980.007	3302.75
980.23	3293.75
980.453	3273.75
980.677	3324.75
980.9	3285.75
981.123	3182.75
981.346	3261.75
981.569	3241.75
981.792	3223.75
982.015	3176.75
982.238	3174.75
982.461	3165.75
982.684	3118.75
982.907	3078.75
983.129	3082.75
983.352	3129.75
983.575	3094.75
983.797	3108.75
984.02	3027.75
984.242	3021.75
984.465	3025.75
984.687	3027.75
984.91	3013.75
985.132	2987.75
985.354	2991.75
985.577	2966.75
985.799	2953.75
986.021	2841.75
986.243	2900.75
986.465	2888.75
986.687	2912.75
986.909	2959.75
987.131	2911.75
987.353	2860.75
987.575	2900.75
987.797	2808.75
988.019	2774.75
988.241	2814.75
988.462	2778.75
988.684	2818.75
988.906	2825.75
989.127	2848.75
989.349	2678.75
989.57	2734.75
989.792	2813.75
990.013	2783.75
990.234	2775.75
990.456	2789.75
990.677	2783.75
990.898	2723.75
991.119	2686.75
991.341	2717.75
991.562	2659.75
991.783	2635.75
992.004	2599.75
992.225	2551.75
992.446	2635.75
992.667	2508.75
992.887	2594.75
993.108	2461.75
993.329	2605.75
993.55	2522.75
993.77	2484.75
993.991	2475.75
994.212	2514.75
994.432	2457.75
994.653	2476.75
994.873	2454.75
995.093	2352.75
995.314	2386.75
995.534	2454.75
995.754	2445.75
995.975	2462.75
996.195	2347.75
996.415	2416.75
996.635	2417.75
996.855	2385.75
997.075	2367.75
997.295	2372.75
997.515	2297.75
997.735	2361.75
997.955	2363.75
998.174	2327.75
998.394	2300.75
998.614	2325.75
998.834	2289.75
999.053	2369.75
999.273	2324.75
999.492	2338.75
999.712	2281.75
999.931	2250.75
1000.151	2309.75
1000.37	2282.75
1000.589	2331.75
1000.809	2239.75
1001.028	2349.75
1001.247	2266.75
1001.466	2138.75
1001.685	2262.75
1001.904	2200.75
1002.123	2196.75
1002.342	2178.75
1002.561	2118.75
1002.78	2171.75
1002.999	2199.75
1003.218	2122.75
1003.436	2099.75
1003.655	2144.75
1003.874	2079.75
1004.092	2085.75
1004.311	2134.75
1004.53	2091.75
1004.748	2163.75
1004.966	2080.75
1005.185	2143.75
1005.403	2111.75
1005.622	2062.75
1005.84	2143.75
1006.058	2056.75
1006.276	2061.75
1006.494	2512.75
1006.712	2075.75
1006.931	2117.75
1007.149	2017.75
1007.367	2039.75
1007.584	2059.75
1007.802	2091.75
1008.02	2029.75
1008.238	2146.75
1008.456	2139.75
1008.673	1992.75
1008.891	2104.75
1009.109	2054.75
1009.326	2089.75
1009.544	2252.75
1009.761	2102.75
1009.979	2211.75
1010.196	2242.75
1010.413	2296.75
1010.631	2337.75
1010.848	2412.75
1011.065	2409.75
1011.282	2343.75
1011.5	2275.75
1011.717	2411.75
1011.934	2303.75
1012.151	2335.75
1012.368	2319.75
1012.585	2272.75
1012.801	2322.75
1013.018	2280.75
1013.235	2245.75
1013.452	2267.75
1013.669	2275.75
1013.885	2251.75
1014.102	2314.75
1014.318	2262.75
1014.535	2236.75
1014.751	2254.75
1014.968	2214.75
1015.184	2244.75
1015.401	2141.75
1015.617	2196.75
1015.833	2092.75
1016.049	2132.75
1016.266	2114.75
1016.482	2084.75
1016.698	1999.75
1016.914	2046.75
1017.13	1997.75
1017.346	1991.75
1017.562	2046.75
1017.778	1950.75
1017.993	1946.75
1018.209	1999.75
1018.425	1974.75
1018.641	1954.75
1018.856	1910.75
1019.072	1962.75
1019.288	1985.75
1019.503	1919.75
1019.719	1857.75
1019.934	1864.75
1020.149	1964.75
1020.365	1866.75
1020.58	1825.75
1020.795	1824.75
1021.011	1765.75
1021.226	1717.75
1021.441	1788.75
1021.656	1654.75
1021.871	1605.75
1022.086	1596.75
1022.301	1601.75
1022.516	1532.75
1022.731	1595.75
1022.946	1511.75
1023.16	1474.75
1023.375	1445.75
1023.59	1446.75
1023.804	1387.75
1024.019	1495.75
1024.234	1352.75
1024.448	1397.75
1024.663	1307.75
1024.877	1299.75
1025.092	1336.75
1025.306	1334.75
1025.52	1225.75
1025.734	1295.75
1025.949	1202.75
1026.163	1168.75
1026.377	1126.75
1026.591	1146.75
1026.805	1074.75
1027.019	1079.75
1027.233	1025.75
1027.447	984.75
1027.661	1081.75
1027.875	1011.75
1028.088	1003.75
1028.302	921.75
1028.516	916.75
1028.73	914.75
1028.943	889.75
1029.157	826.75
1029.37	801.75
1029.584	-0.25
1029.797	-0.25
1030.011	-4.25
1030.224	-2.25
