Data from QEP037381__143__15-47-19-883.txt Node

Date: Fri Dec 16 15:47:19 EST 2022
User: dcclab
Spectrometer: QEP03738
Trigger mode: 4
Integration Time (sec): 1.000000E1
Scans to average: 1
Electric dark correction enabled: true
Nonlinearity correction enabled: false
Boxcar width: 0
XAxis mode: Wavelengths
Number of Pixels in Spectrum: 1044
>>>>>Begin Spectral Data<<<<<
784.041	12.62
784.3	1.62
784.558	-1.38
784.817	-4.38
785.075	113628.62
785.334	19533.62
785.592	9129.62
785.851	6342.62
786.109	4750.62
786.368	3739.62
786.626	2999.62
786.884	2515.62
787.143	2122.62
787.401	1717.62
787.659	1552.62
787.917	1327.62
788.175	1223.62
788.433	1052.62
788.691	950.62
788.949	862.62
789.207	823.62
789.465	716.62
789.723	696.62
789.98	654.62
790.238	675.62
790.496	635.62
790.753	594.62
791.011	652.62
791.268	569.62
791.526	569.62
791.783	573.62
792.041	564.62
792.298	477.62
792.556	529.62
792.813	518.62
793.07	495.62
793.327	468.62
793.584	558.62
793.841	492.62
794.099	488.62
794.356	567.62
794.613	454.62
794.869	489.62
795.126	444.62
795.383	436.62
795.64	456.62
795.897	400.62
796.153	462.62
796.41	459.62
796.667	446.62
796.923	452.62
797.18	451.62
797.436	478.62
797.693	441.62
797.949	505.62
798.206	524.62
798.462	444.62
798.718	484.62
798.974	487.62
799.231	505.62
799.487	516.62
799.743	540.62
799.999	550.62
800.255	555.62
800.511	528.62
800.767	597.62
801.023	587.62
801.279	624.62
801.534	670.62
801.79	722.62
802.046	774.62
802.302	937.62
802.557	1089.62
802.813	1363.62
803.068	1704.62
803.324	2401.62
803.579	3310.62
803.835	4562.62
804.09	6282.62
804.345	8296.62
804.601	10491.62
804.856	12692.62
805.111	14697.62
805.366	16238.62
805.621	17371.62
805.876	18173.62
806.131	18723.62
806.386	19061.62
806.641	19333.62
806.896	19785.62
807.151	20093.62
807.406	20466.62
807.661	20756.62
807.915	21064.62
808.17	21458.62
808.425	21616.62
808.679	21864.62
808.934	22059.62
809.188	22097.62
809.443	22467.62
809.697	22690.62
809.951	22872.62
810.206	23002.62
810.46	23320.62
810.714	23448.62
810.968	23755.62
811.223	23808.62
811.477	23987.62
811.731	24237.62
811.985	24379.62
812.239	24392.62
812.493	24535.62
812.747	24615.62
813	24712.62
813.254	24792.62
813.508	24793.62
813.762	25054.62
814.015	25065.62
814.269	25232.62
814.522	25482.62
814.776	25749.62
815.03	26115.62
815.283	26401.62
815.536	26776.62
815.79	27244.62
816.043	27631.62
816.296	27869.62
816.55	28238.62
816.803	28523.62
817.056	28909.62
817.309	29005.62
817.562	29450.62
817.815	29699.62
818.068	29872.62
818.321	30163.62
818.574	30535.62
818.827	30833.62
819.079	31225.62
819.332	31684.62
819.585	32090.62
819.838	32555.62
820.09	32747.62
820.343	33049.62
820.595	33133.62
820.848	33316.62
821.1	33386.62
821.353	33577.62
821.605	33397.62
821.857	33460.62
822.11	33160.62
822.362	33174.62
822.614	32994.62
822.866	33179.62
823.118	33006.62
823.37	33053.62
823.622	33300.62
823.874	33296.62
824.126	33410.62
824.378	33408.62
824.63	33499.62
824.882	33634.62
825.134	33605.62
825.385	33517.62
825.637	33531.62
825.888	33272.62
826.14	33277.62
826.392	33211.62
826.643	33037.62
826.895	32912.62
827.146	32688.62
827.397	32573.62
827.649	32780.62
827.9	32666.62
828.151	32542.62
828.402	32727.62
828.653	32809.62
828.905	32928.62
829.156	33040.62
829.407	32760.62
829.658	32843.62
829.909	32920.62
830.159	32804.62
830.41	32863.62
830.661	32493.62
830.912	32286.62
831.162	32181.62
831.413	32056.62
831.664	32235.62
831.914	32059.62
832.165	32063.62
832.415	31947.62
832.666	31951.62
832.916	32040.62
833.167	31951.62
833.417	31894.62
833.667	31733.62
833.917	31670.62
834.168	31580.62
834.418	31598.62
834.668	31429.62
834.918	31196.62
835.168	31171.62
835.418	30980.62
835.668	30948.62
835.918	30801.62
836.167	30694.62
836.417	30532.62
836.667	30592.62
836.917	30596.62
837.166	30510.62
837.416	30489.62
837.666	30461.62
837.915	30438.62
838.165	30280.62
838.414	30288.62
838.663	30138.62
838.913	30165.62
839.162	30029.62
839.411	30027.62
839.661	29754.62
839.91	29731.62
840.159	29752.62
840.408	29733.62
840.657	29603.62
840.906	29735.62
841.155	29751.62
841.404	29543.62
841.653	29569.62
841.902	29549.62
842.15	29727.62
842.399	29765.62
842.648	29703.62
842.897	29550.62
843.145	29469.62
843.394	29140.62
843.642	29047.62
843.891	28845.62
844.139	28641.62
844.388	28529.62
844.636	28394.62
844.884	28343.62
845.133	28283.62
845.381	28241.62
845.629	28196.62
845.877	28190.62
846.125	28191.62
846.373	28137.62
846.621	27929.62
846.869	28000.62
847.117	27755.62
847.365	27547.62
847.613	27379.62
847.861	27255.62
848.108	27261.62
848.356	27224.62
848.604	27143.62
848.851	27144.62
849.099	27160.62
849.346	27313.62
849.594	27343.62
849.841	27446.62
850.089	27401.62
850.336	27425.62
850.583	27331.62
850.831	27179.62
851.078	27006.62
851.325	27073.62
851.572	27024.62
851.819	26757.62
852.066	26451.62
852.313	26144.62
852.56	25729.62
852.807	25747.62
853.054	25605.62
853.301	25581.62
853.548	25622.62
853.794	25776.62
854.041	25748.62
854.288	25898.62
854.534	26160.62
854.781	26039.62
855.028	25994.62
855.274	25878.62
855.52	25691.62
855.767	25628.62
856.013	25606.62
856.26	25872.62
856.506	25389.62
856.752	25423.62
856.998	25243.62
857.244	25342.62
857.49	25342.62
857.736	25503.62
857.982	25409.62
858.228	25403.62
858.474	25236.62
858.72	24944.62
858.966	24708.62
859.212	24560.62
859.458	24310.62
859.703	24086.62
859.949	23755.62
860.195	23681.62
860.44	23532.62
860.686	23400.62
860.931	23532.62
861.177	23152.62
861.422	23208.62
861.667	23099.62
861.913	23068.62
862.158	23194.62
862.403	23186.62
862.648	23298.62
862.893	23249.62
863.138	23266.62
863.384	23060.62
863.629	23003.62
863.873	23079.62
864.118	22892.62
864.363	22819.62
864.608	22750.62
864.853	22700.62
865.098	22679.62
865.342	22435.62
865.587	22424.62
865.832	22289.62
866.076	22239.62
866.321	22166.62
866.565	22092.62
866.81	21985.62
867.054	22000.62
867.298	21865.62
867.543	21876.62
867.787	21755.62
868.031	21697.62
868.275	21587.62
868.519	21671.62
868.764	21664.62
869.008	21495.62
869.252	21406.62
869.496	21313.62
869.739	21362.62
869.983	21381.62
870.227	21370.62
870.471	21189.62
870.715	21203.62
870.958	21428.62
871.202	21206.62
871.446	21394.62
871.689	21464.62
871.933	21338.62
872.176	21336.62
872.42	21261.62
872.663	21288.62
872.906	21277.62
873.15	21114.62
873.393	20998.62
873.636	20987.62
873.879	20772.62
874.122	20586.62
874.366	20314.62
874.609	20112.62
874.852	19929.62
875.095	19851.62
875.337	19753.62
875.58	19647.62
875.823	19563.62
876.066	19551.62
876.309	19508.62
876.551	19324.62
876.794	19314.62
877.037	19184.62
877.279	19123.62
877.522	19172.62
877.764	19186.62
878.007	19143.62
878.249	19150.62
878.491	19002.62
878.734	18916.62
878.976	18996.62
879.218	18878.62
879.46	18749.62
879.702	18641.62
879.945	18497.62
880.187	18318.62
880.429	18259.62
880.671	18157.62
880.912	18052.62
881.154	17982.62
881.396	17916.62
881.638	17854.62
881.88	17940.62
882.121	17773.62
882.363	17792.62
882.605	17823.62
882.846	17770.62
883.088	17719.62
883.329	17582.62
883.571	17564.62
883.812	17825.62
884.053	18046.62
884.295	18285.62
884.536	18424.62
884.777	18219.62
885.018	18249.62
885.259	18079.62
885.5	18001.62
885.742	18191.62
885.982	17857.62
886.223	17784.62
886.464	17702.62
886.705	17561.62
886.946	17362.62
887.187	17034.62
887.428	16930.62
887.668	16661.62
887.909	16467.62
888.15	16360.62
888.39	16293.62
888.631	16179.62
888.871	16102.62
889.111	15825.62
889.352	15787.62
889.592	15574.62
889.833	15402.62
890.073	15460.62
890.313	15478.62
890.553	15137.62
890.793	15121.62
891.033	15140.62
891.273	14985.62
891.513	14950.62
891.753	15002.62
891.993	14867.62
892.233	14897.62
892.473	15006.62
892.713	14917.62
892.952	14893.62
893.192	14874.62
893.432	14845.62
893.671	14895.62
893.911	14765.62
894.15	14681.62
894.39	14615.62
894.629	14481.62
894.869	14450.62
895.108	14303.62
895.347	14207.62
895.587	14207.62
895.826	14212.62
896.065	14192.62
896.304	14164.62
896.543	14122.62
896.782	14173.62
897.021	14069.62
897.26	13915.62
897.499	13953.62
897.738	13869.62
897.977	13838.62
898.216	13678.62
898.454	13476.62
898.693	13424.62
898.932	13498.62
899.17	13405.62
899.409	13405.62
899.647	13344.62
899.886	13184.62
900.124	13333.62
900.363	13197.62
900.601	13279.62
900.839	13226.62
901.078	13220.62
901.316	13214.62
901.554	13395.62
901.792	13347.62
902.03	13418.62
902.268	13263.62
902.506	13372.62
902.744	13284.62
902.982	13263.62
903.22	12936.62
903.458	12813.62
903.695	12600.62
903.933	12516.62
904.171	12259.62
904.409	12094.62
904.646	12026.62
904.884	11801.62
905.121	11790.62
905.359	11649.62
905.596	11494.62
905.833	11458.62
906.071	11328.62
906.308	11249.62
906.545	11278.62
906.783	11181.62
907.02	11167.62
907.257	11142.62
907.494	11114.62
907.731	11135.62
907.968	10981.62
908.205	10966.62
908.442	10899.62
908.679	10836.62
908.915	10750.62
909.152	10633.62
909.389	10503.62
909.626	10479.62
909.862	10309.62
910.099	10386.62
910.335	10355.62
910.572	10219.62
910.808	10225.62
911.045	10225.62
911.281	10089.62
911.518	10152.62
911.754	10040.62
911.99	10007.62
912.226	9913.62
912.463	9844.62
912.699	9767.62
912.935	9676.62
913.171	9661.62
913.407	9531.62
913.643	9462.62
913.879	9370.62
914.114	9350.62
914.35	9207.62
914.586	9129.62
914.822	9033.62
915.057	9060.62
915.293	8882.62
915.529	8920.62
915.764	8929.62
916	8903.62
916.235	8807.62
916.471	8827.62
916.706	8716.62
916.941	8714.62
917.177	8734.62
917.412	8738.62
917.647	8727.62
917.882	8654.62
918.117	8672.62
918.352	8630.62
918.588	8648.62
918.823	8512.62
919.057	8560.62
919.292	8315.62
919.527	8285.62
919.762	8149.62
919.997	8197.62
920.232	8015.62
920.466	8008.62
920.701	7876.62
920.935	7823.62
921.17	7805.62
921.405	7696.62
921.639	7841.62
921.873	7682.62
922.108	7667.62
922.342	7706.62
922.576	7594.62
922.811	7645.62
923.045	7565.62
923.279	7575.62
923.513	7416.62
923.747	7478.62
923.981	7397.62
924.215	7363.62
924.449	7267.62
924.683	7171.62
924.917	7162.62
925.151	7150.62
925.385	7166.62
925.618	7109.62
925.852	7125.62
926.086	7008.62
926.319	7051.62
926.553	7048.62
926.786	7027.62
927.02	6980.62
927.253	7010.62
927.486	6983.62
927.72	6958.62
927.953	6947.62
928.186	6923.62
928.42	6914.62
928.653	6806.62
928.886	6808.62
929.119	6799.62
929.352	6758.62
929.585	6741.62
929.818	6607.62
930.051	6606.62
930.284	6578.62
930.516	6444.62
930.749	6490.62
930.982	6455.62
931.215	6396.62
931.447	6293.62
931.68	6311.62
931.912	6311.62
932.145	6242.62
932.377	6309.62
932.61	6480.62
932.842	6234.62
933.074	6280.62
933.307	6177.62
933.539	6297.62
933.771	6226.62
934.003	6249.62
934.236	6305.62
934.468	6265.62
934.7	6180.62
934.932	6218.62
935.164	6086.62
935.395	6115.62
935.627	6147.62
935.859	6115.62
936.091	6076.62
936.323	6010.62
936.554	6007.62
936.786	5954.62
937.017	5921.62
937.249	5993.62
937.481	5878.62
937.712	5942.62
937.943	5907.62
938.175	5870.62
938.406	5872.62
938.637	5912.62
938.869	5801.62
939.1	5805.62
939.331	5836.62
939.562	5832.62
939.793	5789.62
940.024	5760.62
940.255	5764.62
940.486	5684.62
940.717	5689.62
940.948	5646.62
941.179	5566.62
941.409	5655.62
941.64	5541.62
941.871	5565.62
942.102	5585.62
942.332	5572.62
942.563	5598.62
942.793	5553.62
943.024	5484.62
943.254	5504.62
943.484	5575.62
943.715	5538.62
943.945	5507.62
944.175	5454.62
944.405	5415.62
944.636	5441.62
944.866	5500.62
945.096	5464.62
945.326	5391.62
945.556	5445.62
945.786	5432.62
946.016	5305.62
946.245	5244.62
946.475	5243.62
946.705	5218.62
946.935	5197.62
947.164	5197.62
947.394	5126.62
947.624	5099.62
947.853	5149.62
948.083	5107.62
948.312	5076.62
948.542	4996.62
948.771	4976.62
949	4961.62
949.23	4997.62
949.459	4945.62
949.688	5012.62
949.917	4980.62
950.146	4951.62
950.375	5036.62
950.604	4888.62
950.833	5012.62
951.062	4960.62
951.291	4901.62
951.52	4852.62
951.749	4894.62
951.978	4788.62
952.206	4830.62
952.435	4783.62
952.664	4796.62
952.892	4812.62
953.121	4751.62
953.349	4808.62
953.578	4729.62
953.806	4706.62
954.035	4694.62
954.263	4646.62
954.491	4580.62
954.719	4642.62
954.948	4581.62
955.176	4580.62
955.404	4492.62
955.632	4520.62
955.86	4546.62
956.088	4476.62
956.316	4522.62
956.544	4510.62
956.772	4412.62
956.999	4335.62
957.227	4405.62
957.455	4324.62
957.683	4299.62
957.91	4320.62
958.138	4242.62
958.365	4229.62
958.593	4189.62
958.82	4143.62
959.048	4236.62
959.275	4170.62
959.502	4168.62
959.73	4117.62
959.957	4171.62
960.184	4170.62
960.411	4127.62
960.638	4183.62
960.865	4087.62
961.092	4168.62
961.319	4034.62
961.546	4123.62
961.773	4114.62
962	4091.62
962.227	4140.62
962.454	4055.62
962.68	4070.62
962.907	4008.62
963.134	3985.62
963.36	3973.62
963.587	4008.62
963.813	3961.62
964.04	3925.62
964.266	3883.62
964.493	3906.62
964.719	3856.62
964.945	3869.62
965.171	3687.62
965.398	3777.62
965.624	3792.62
965.85	3727.62
966.076	3691.62
966.302	3721.62
966.528	3629.62
966.754	3747.62
966.98	3709.62
967.206	3691.62
967.431	3579.62
967.657	3657.62
967.883	3617.62
968.109	3646.62
968.334	3584.62
968.56	3534.62
968.785	3560.62
969.011	3523.62
969.236	3550.62
969.462	3522.62
969.687	3564.62
969.912	3530.62
970.138	3550.62
970.363	3491.62
970.588	3460.62
970.813	3444.62
971.038	3416.62
971.263	3428.62
971.488	3404.62
971.713	3458.62
971.938	3422.62
972.163	3334.62
972.388	3359.62
972.613	3330.62
972.838	3304.62
973.062	3287.62
973.287	3292.62
973.512	3233.62
973.736	3237.62
973.961	3235.62
974.185	3148.62
974.41	3236.62
974.634	3124.62
974.858	3141.62
975.083	3187.62
975.307	3150.62
975.531	3090.62
975.755	3007.62
975.98	3051.62
976.204	2992.62
976.428	2971.62
976.652	2992.62
976.876	2950.62
977.1	2996.62
977.324	2936.62
977.547	2987.62
977.771	2988.62
977.995	2968.62
978.219	2854.62
978.442	2961.62
978.666	2946.62
978.89	2937.62
979.113	2868.62
979.337	2851.62
979.56	2877.62
979.783	2928.62
980.007	2801.62
980.23	2839.62
980.453	2776.62
980.677	2821.62
980.9	2798.62
981.123	2731.62
981.346	2822.62
981.569	2772.62
981.792	2780.62
982.015	2696.62
982.238	2659.62
982.461	2686.62
982.684	2677.62
982.907	2650.62
983.129	2649.62
983.352	2700.62
983.575	2628.62
983.797	2636.62
984.02	2562.62
984.242	2574.62
984.465	2586.62
984.687	2564.62
984.91	2601.62
985.132	2546.62
985.354	2572.62
985.577	2506.62
985.799	2496.62
986.021	2442.62
986.243	2448.62
986.465	2487.62
986.687	2510.62
986.909	2531.62
987.131	2448.62
987.353	2416.62
987.575	2458.62
987.797	2401.62
988.019	2338.62
988.241	2414.62
988.462	2375.62
988.684	2424.62
988.906	2424.62
989.127	2438.62
989.349	2346.62
989.57	2384.62
989.792	2389.62
990.013	2422.62
990.234	2395.62
990.456	2442.62
990.677	2390.62
990.898	2330.62
991.119	2316.62
991.341	2360.62
991.562	2286.62
991.783	2328.62
992.004	2245.62
992.225	2236.62
992.446	2244.62
992.667	2151.62
992.887	2262.62
993.108	2165.62
993.329	2253.62
993.55	2196.62
993.77	2114.62
993.991	2128.62
994.212	2202.62
994.432	2144.62
994.653	2179.62
994.873	2141.62
995.093	2045.62
995.314	2087.62
995.534	2125.62
995.754	2111.62
995.975	2185.62
996.195	2062.62
996.415	2125.62
996.635	2094.62
996.855	2096.62
997.075	2048.62
997.295	2040.62
997.515	2030.62
997.735	2059.62
997.955	2032.62
998.174	2022.62
998.394	2001.62
998.614	2056.62
998.834	2013.62
999.053	2048.62
999.273	2021.62
999.492	2088.62
999.712	1993.62
999.931	1970.62
1000.151	2026.62
1000.37	1975.62
1000.589	2040.62
1000.809	1952.62
1001.028	2056.62
1001.247	1996.62
1001.466	1880.62
1001.685	1991.62
1001.904	1925.62
1002.123	1917.62
1002.342	1953.62
1002.561	1882.62
1002.78	1885.62
1002.999	1949.62
1003.218	1882.62
1003.436	1867.62
1003.655	1896.62
1003.874	1808.62
1004.092	1848.62
1004.311	1859.62
1004.53	1889.62
1004.748	1916.62
1004.966	1831.62
1005.185	1882.62
1005.403	1891.62
1005.622	1856.62
1005.84	1915.62
1006.058	1850.62
1006.276	1841.62
1006.494	2318.62
1006.712	1853.62
1006.931	1909.62
1007.149	1796.62
1007.367	1824.62
1007.584	1841.62
1007.802	1910.62
1008.02	1831.62
1008.238	1931.62
1008.456	1897.62
1008.673	1815.62
1008.891	1903.62
1009.109	1841.62
1009.326	1917.62
1009.544	2003.62
1009.761	1921.62
1009.979	2041.62
1010.196	2032.62
1010.413	2118.62
1010.631	2222.62
1010.848	2208.62
1011.065	2227.62
1011.282	2181.62
1011.5	2110.62
1011.717	2224.62
1011.934	2147.62
1012.151	2179.62
1012.368	2174.62
1012.585	2104.62
1012.801	2222.62
1013.018	2109.62
1013.235	2092.62
1013.452	2085.62
1013.669	2139.62
1013.885	2072.62
1014.102	2106.62
1014.318	2106.62
1014.535	2079.62
1014.751	2109.62
1014.968	2096.62
1015.184	2127.62
1015.401	2016.62
1015.617	2063.62
1015.833	1975.62
1016.049	1978.62
1016.266	1950.62
1016.482	1964.62
1016.698	1914.62
1016.914	1931.62
1017.13	1872.62
1017.346	1873.62
1017.562	1936.62
1017.778	1851.62
1017.993	1817.62
1018.209	1849.62
1018.425	1837.62
1018.641	1779.62
1018.856	1785.62
1019.072	1791.62
1019.288	1855.62
1019.503	1812.62
1019.719	1723.62
1019.934	1763.62
1020.149	1808.62
1020.365	1736.62
1020.58	1675.62
1020.795	1696.62
1021.011	1648.62
1021.226	1619.62
1021.441	1620.62
1021.656	1549.62
1021.871	1464.62
1022.086	1477.62
1022.301	1460.62
1022.516	1440.62
1022.731	1488.62
1022.946	1417.62
1023.16	1396.62
1023.375	1341.62
1023.59	1342.62
1023.804	1275.62
1024.019	1363.62
1024.234	1238.62
1024.448	1292.62
1024.663	1205.62
1024.877	1195.62
1025.092	1234.62
1025.306	1212.62
1025.52	1101.62
1025.734	1197.62
1025.949	1117.62
1026.163	1077.62
1026.377	1007.62
1026.591	1045.62
1026.805	979.62
1027.019	967.62
1027.233	946.62
1027.447	870.62
1027.661	978.62
1027.875	927.62
1028.088	951.62
1028.302	862.62
1028.516	839.62
1028.73	844.62
1028.943	815.62
1029.157	778.62
1029.37	722.62
1029.584	-2.38
1029.797	-2.38
1030.011	-2.38
1030.224	-1.38
