Data from QEP037381__181__15-53-39-888.txt Node

Date: Fri Dec 16 15:53:39 EST 2022
User: dcclab
Spectrometer: QEP03738
Trigger mode: 4
Integration Time (sec): 1.000000E1
Scans to average: 1
Electric dark correction enabled: true
Nonlinearity correction enabled: false
Boxcar width: 0
XAxis mode: Wavelengths
Number of Pixels in Spectrum: 1044
>>>>>Begin Spectral Data<<<<<
784.041	9.12
784.3	2.12
784.558	0.12
784.817	-5.88
785.075	114336.12
785.334	19673.12
785.592	9226.12
785.851	6334.12
786.109	4783.12
786.368	3722.12
786.626	2998.12
786.884	2487.12
787.143	2089.12
787.401	1703.12
787.659	1544.12
787.917	1331.12
788.175	1187.12
788.433	1026.12
788.691	958.12
788.949	847.12
789.207	814.12
789.465	722.12
789.723	704.12
789.98	612.12
790.238	652.12
790.496	603.12
790.753	600.12
791.011	627.12
791.268	559.12
791.526	543.12
791.783	562.12
792.041	541.12
792.298	467.12
792.556	527.12
792.813	491.12
793.07	460.12
793.327	458.12
793.584	546.12
793.841	461.12
794.099	484.12
794.356	531.12
794.613	431.12
794.869	501.12
795.126	441.12
795.383	411.12
795.64	447.12
795.897	390.12
796.153	451.12
796.41	434.12
796.667	417.12
796.923	433.12
797.18	421.12
797.436	456.12
797.693	411.12
797.949	474.12
798.206	506.12
798.462	415.12
798.718	479.12
798.974	456.12
799.231	481.12
799.487	480.12
799.743	488.12
799.999	515.12
800.255	508.12
800.511	491.12
800.767	537.12
801.023	520.12
801.279	564.12
801.534	600.12
801.79	649.12
802.046	658.12
802.302	785.12
802.557	899.12
802.813	1113.12
803.068	1352.12
803.324	1876.12
803.579	2552.12
803.835	3455.12
804.09	4747.12
804.345	6175.12
804.601	7758.12
804.856	9448.12
805.111	10883.12
805.366	12018.12
805.621	12747.12
805.876	13323.12
806.131	13665.12
806.386	13981.12
806.641	14106.12
806.896	14402.12
807.151	14677.12
807.406	14714.12
807.661	15111.12
807.915	15380.12
808.17	15564.12
808.425	15671.12
808.679	15718.12
808.934	16133.12
809.188	16160.12
809.443	16301.12
809.697	16473.12
809.951	16617.12
810.206	16698.12
810.46	16778.12
810.714	16987.12
810.968	17200.12
811.223	17275.12
811.477	17418.12
811.731	17543.12
811.985	17629.12
812.239	17627.12
812.493	17815.12
812.747	17715.12
813	17813.12
813.254	17924.12
813.508	18093.12
813.762	18047.12
814.015	18207.12
814.269	18159.12
814.522	18348.12
814.776	18595.12
815.03	18838.12
815.283	19090.12
815.536	19364.12
815.79	19660.12
816.043	19939.12
816.296	20191.12
816.55	20365.12
816.803	20574.12
817.056	20879.12
817.309	20945.12
817.562	21045.12
817.815	21316.12
818.068	21377.12
818.321	21643.12
818.574	21814.12
818.827	22217.12
819.079	22302.12
819.332	22860.12
819.585	23100.12
819.838	23350.12
820.09	23439.12
820.343	23628.12
820.595	23670.12
820.848	23784.12
821.1	23919.12
821.353	23929.12
821.605	23841.12
821.857	23852.12
822.11	23717.12
822.362	23707.12
822.614	23685.12
822.866	23664.12
823.118	23540.12
823.37	23872.12
823.622	23839.12
823.874	23878.12
824.126	24056.12
824.378	23970.12
824.63	24052.12
824.882	24015.12
825.134	24099.12
825.385	23956.12
825.637	23987.12
825.888	23798.12
826.14	23902.12
826.392	23717.12
826.643	23493.12
826.895	23534.12
827.146	23395.12
827.397	23265.12
827.649	23316.12
827.9	23244.12
828.151	23208.12
828.402	23362.12
828.653	23376.12
828.905	23531.12
829.156	23453.12
829.407	23426.12
829.658	23438.12
829.909	23519.12
830.159	23602.12
830.41	23480.12
830.661	23278.12
830.912	23077.12
831.162	23040.12
831.413	22966.12
831.664	23050.12
831.914	22936.12
832.165	22912.12
832.415	22944.12
832.666	22849.12
832.916	22973.12
833.167	22868.12
833.417	22878.12
833.667	22782.12
833.917	22633.12
834.168	22692.12
834.418	22693.12
834.668	22584.12
834.918	22462.12
835.168	22337.12
835.418	22166.12
835.668	22130.12
835.918	22067.12
836.167	21994.12
836.417	21899.12
836.667	21954.12
836.917	21847.12
837.166	21908.12
837.416	21892.12
837.666	21898.12
837.915	21853.12
838.165	21793.12
838.414	21744.12
838.663	21687.12
838.913	21702.12
839.162	21632.12
839.411	21634.12
839.661	21467.12
839.91	21449.12
840.159	21284.12
840.408	21365.12
840.657	21257.12
840.906	21365.12
841.155	21276.12
841.404	21341.12
841.653	21263.12
841.902	21315.12
842.15	21348.12
842.399	21464.12
842.648	21353.12
842.897	21248.12
843.145	21074.12
843.394	20980.12
843.642	20890.12
843.891	20755.12
844.139	20586.12
844.388	20467.12
844.636	20470.12
844.884	20440.12
845.133	20392.12
845.381	20318.12
845.629	20386.12
845.877	20278.12
846.125	20300.12
846.373	20317.12
846.621	20154.12
846.869	20155.12
847.117	19954.12
847.365	19889.12
847.613	19737.12
847.861	19760.12
848.108	19699.12
848.356	19674.12
848.604	19608.12
848.851	19614.12
849.099	19609.12
849.346	19697.12
849.594	19786.12
849.841	19712.12
850.089	19741.12
850.336	19813.12
850.583	19707.12
850.831	19658.12
851.078	19550.12
851.325	19525.12
851.572	19564.12
851.819	19454.12
852.066	19170.12
852.313	18797.12
852.56	18739.12
852.807	18634.12
853.054	18587.12
853.301	18564.12
853.548	18414.12
853.794	18625.12
854.041	18721.12
854.288	18669.12
854.534	18936.12
854.781	18866.12
855.028	18776.12
855.274	18845.12
855.52	18652.12
855.767	18669.12
856.013	18692.12
856.26	19020.12
856.506	18473.12
856.752	18410.12
856.998	18446.12
857.244	18456.12
857.49	18480.12
857.736	18597.12
857.982	18562.12
858.228	18453.12
858.474	18209.12
858.72	18240.12
858.966	18049.12
859.212	17833.12
859.458	17594.12
859.703	17491.12
859.949	17303.12
860.195	17204.12
860.44	17078.12
860.686	17021.12
860.931	17080.12
861.177	16925.12
861.422	16937.12
861.667	16843.12
861.913	16784.12
862.158	16746.12
862.403	16807.12
862.648	16869.12
862.893	16913.12
863.138	16871.12
863.384	16785.12
863.629	16737.12
863.873	16844.12
864.118	16725.12
864.363	16560.12
864.608	16547.12
864.853	16512.12
865.098	16362.12
865.342	16332.12
865.587	16243.12
865.832	16224.12
866.076	16220.12
866.321	16128.12
866.565	16166.12
866.81	15958.12
867.054	16023.12
867.298	16008.12
867.543	15810.12
867.787	15838.12
868.031	15782.12
868.275	15754.12
868.519	15734.12
868.764	15735.12
869.008	15639.12
869.252	15682.12
869.496	15554.12
869.739	15509.12
869.983	15588.12
870.227	15560.12
870.471	15452.12
870.715	15555.12
870.958	15696.12
871.202	15678.12
871.446	15760.12
871.689	15656.12
871.933	15589.12
872.176	15634.12
872.42	15550.12
872.663	15583.12
872.906	15631.12
873.15	15512.12
873.393	15493.12
873.636	15499.12
873.879	15401.12
874.122	15199.12
874.366	14903.12
874.609	14864.12
874.852	14536.12
875.095	14636.12
875.337	14439.12
875.58	14454.12
875.823	14336.12
876.066	14388.12
876.309	14346.12
876.551	14193.12
876.794	14106.12
877.037	14185.12
877.279	13948.12
877.522	14069.12
877.764	14090.12
878.007	14033.12
878.249	13956.12
878.491	13914.12
878.734	13920.12
878.976	13893.12
879.218	13816.12
879.46	13671.12
879.702	13646.12
879.945	13509.12
880.187	13318.12
880.429	13260.12
880.671	13220.12
880.912	13149.12
881.154	13166.12
881.396	13102.12
881.638	13131.12
881.88	13156.12
882.121	13089.12
882.363	13110.12
882.605	13012.12
882.846	13006.12
883.088	13047.12
883.329	12965.12
883.571	13015.12
883.812	13188.12
884.053	13440.12
884.295	13625.12
884.536	13894.12
884.777	13707.12
885.018	13643.12
885.259	13550.12
885.5	13437.12
885.742	13693.12
885.982	13355.12
886.223	13204.12
886.464	13185.12
886.705	13000.12
886.946	12904.12
887.187	12605.12
887.428	12543.12
887.668	12322.12
887.909	12038.12
888.15	11981.12
888.39	11914.12
888.631	11904.12
888.871	11689.12
889.111	11705.12
889.352	11620.12
889.592	11507.12
889.833	11387.12
890.073	11359.12
890.313	11339.12
890.553	11194.12
890.793	11140.12
891.033	10943.12
891.273	10968.12
891.513	10943.12
891.753	11040.12
891.993	10923.12
892.233	10979.12
892.473	11077.12
892.713	11016.12
892.952	10904.12
893.192	10972.12
893.432	10912.12
893.671	10915.12
893.911	10846.12
894.15	10816.12
894.39	10656.12
894.629	10667.12
894.869	10662.12
895.108	10639.12
895.347	10484.12
895.587	10453.12
895.826	10404.12
896.065	10393.12
896.304	10395.12
896.543	10465.12
896.782	10280.12
897.021	10289.12
897.26	10340.12
897.499	10330.12
897.738	10286.12
897.977	10190.12
898.216	10174.12
898.454	10041.12
898.693	9977.12
898.932	9978.12
899.17	9886.12
899.409	9852.12
899.647	9810.12
899.886	9811.12
900.124	9894.12
900.363	9789.12
900.601	9870.12
900.839	9886.12
901.078	9855.12
901.316	9847.12
901.554	9893.12
901.792	9972.12
902.03	9971.12
902.268	9944.12
902.506	9940.12
902.744	9877.12
902.982	9779.12
903.22	9704.12
903.458	9539.12
903.695	9401.12
903.933	9308.12
904.171	9104.12
904.409	8989.12
904.646	8883.12
904.884	8732.12
905.121	8738.12
905.359	8779.12
905.596	8549.12
905.833	8425.12
906.071	8416.12
906.308	8383.12
906.545	8364.12
906.783	8287.12
907.02	8307.12
907.257	8196.12
907.494	8240.12
907.731	8208.12
907.968	8201.12
908.205	8077.12
908.442	8047.12
908.679	8011.12
908.915	7936.12
909.152	7926.12
909.389	7805.12
909.626	7762.12
909.862	7720.12
910.099	7776.12
910.335	7664.12
910.572	7592.12
910.808	7617.12
911.045	7557.12
911.281	7482.12
911.518	7489.12
911.754	7429.12
911.99	7408.12
912.226	7394.12
912.463	7296.12
912.699	7278.12
912.935	7165.12
913.171	7131.12
913.407	7034.12
913.643	7061.12
913.879	6977.12
914.114	6939.12
914.35	6846.12
914.586	6786.12
914.822	6724.12
915.057	6718.12
915.293	6565.12
915.529	6555.12
915.764	6610.12
916	6648.12
916.235	6566.12
916.471	6584.12
916.706	6485.12
916.941	6484.12
917.177	6499.12
917.412	6486.12
917.647	6462.12
917.882	6463.12
918.117	6487.12
918.352	6430.12
918.588	6441.12
918.823	6338.12
919.057	6300.12
919.292	6178.12
919.527	6227.12
919.762	6102.12
919.997	6089.12
920.232	5935.12
920.466	6028.12
920.701	5821.12
920.935	5849.12
921.17	5841.12
921.405	5752.12
921.639	5809.12
921.873	5674.12
922.108	5720.12
922.342	5721.12
922.576	5613.12
922.811	5672.12
923.045	5653.12
923.279	5641.12
923.513	5486.12
923.747	5593.12
923.981	5500.12
924.215	5443.12
924.449	5461.12
924.683	5382.12
924.917	5382.12
925.151	5374.12
925.385	5409.12
925.618	5297.12
925.852	5341.12
926.086	5246.12
926.319	5296.12
926.553	5305.12
926.786	5271.12
927.02	5240.12
927.253	5292.12
927.486	5251.12
927.72	5208.12
927.953	5230.12
928.186	5189.12
928.42	5181.12
928.653	5180.12
928.886	5120.12
929.119	5132.12
929.352	5021.12
929.585	5047.12
929.818	5015.12
930.051	5026.12
930.284	4951.12
930.516	4858.12
930.749	4850.12
930.982	4869.12
931.215	4825.12
931.447	4775.12
931.68	4741.12
931.912	4750.12
932.145	4748.12
932.377	4763.12
932.61	4878.12
932.842	4685.12
933.074	4762.12
933.307	4690.12
933.539	4754.12
933.771	4760.12
934.003	4703.12
934.236	4767.12
934.468	4769.12
934.7	4684.12
934.932	4667.12
935.164	4633.12
935.395	4614.12
935.627	4599.12
935.859	4625.12
936.091	4564.12
936.323	4585.12
936.554	4569.12
936.786	4511.12
937.017	4442.12
937.249	4490.12
937.481	4446.12
937.712	4527.12
937.943	4475.12
938.175	4449.12
938.406	4487.12
938.637	4502.12
938.869	4391.12
939.1	4437.12
939.331	4332.12
939.562	4428.12
939.793	4399.12
940.024	4403.12
940.255	4410.12
940.486	4357.12
940.717	4284.12
940.948	4322.12
941.179	4204.12
941.409	4269.12
941.64	4200.12
941.871	4281.12
942.102	4233.12
942.332	4192.12
942.563	4253.12
942.793	4223.12
943.024	4177.12
943.254	4201.12
943.484	4204.12
943.715	4205.12
943.945	4192.12
944.175	4102.12
944.405	4146.12
944.636	4155.12
944.866	4116.12
945.096	4175.12
945.326	4095.12
945.556	4148.12
945.786	4157.12
946.016	4069.12
946.245	3977.12
946.475	3967.12
946.705	4012.12
946.935	3970.12
947.164	3960.12
947.394	3936.12
947.624	3920.12
947.853	3938.12
948.083	3892.12
948.312	3864.12
948.542	3812.12
948.771	3763.12
949	3799.12
949.23	3776.12
949.459	3811.12
949.688	3808.12
949.917	3770.12
950.146	3788.12
950.375	3823.12
950.604	3733.12
950.833	3842.12
951.062	3887.12
951.291	3750.12
951.52	3668.12
951.749	3701.12
951.978	3641.12
952.206	3676.12
952.435	3680.12
952.664	3697.12
952.892	3671.12
953.121	3638.12
953.349	3648.12
953.578	3632.12
953.806	3605.12
954.035	3517.12
954.263	3549.12
954.491	3540.12
954.719	3557.12
954.948	3525.12
955.176	3430.12
955.404	3418.12
955.632	3442.12
955.86	3449.12
956.088	3415.12
956.316	3447.12
956.544	3455.12
956.772	3371.12
956.999	3317.12
957.227	3379.12
957.455	3322.12
957.683	3334.12
957.91	3265.12
958.138	3283.12
958.365	3245.12
958.593	3252.12
958.82	3193.12
959.048	3259.12
959.275	3204.12
959.502	3227.12
959.73	3144.12
959.957	3177.12
960.184	3215.12
960.411	3164.12
960.638	3212.12
960.865	3176.12
961.092	3193.12
961.319	3060.12
961.546	3220.12
961.773	3156.12
962	3149.12
962.227	3196.12
962.454	3150.12
962.68	3108.12
962.907	3103.12
963.134	3061.12
963.36	3073.12
963.587	3106.12
963.813	3039.12
964.04	3003.12
964.266	2985.12
964.493	3037.12
964.719	2982.12
964.945	2973.12
965.171	2906.12
965.398	2950.12
965.624	2977.12
965.85	2878.12
966.076	2909.12
966.302	2903.12
966.528	2873.12
966.754	2886.12
966.98	2874.12
967.206	2830.12
967.431	2783.12
967.657	2874.12
967.883	2841.12
968.109	2815.12
968.334	2789.12
968.56	2759.12
968.785	2746.12
969.011	2710.12
969.236	2787.12
969.462	2713.12
969.687	2716.12
969.912	2782.12
970.138	2818.12
970.363	2700.12
970.588	2711.12
970.813	2697.12
971.038	2649.12
971.263	2713.12
971.488	2698.12
971.713	2716.12
971.938	2679.12
972.163	2577.12
972.388	2592.12
972.613	2563.12
972.838	2577.12
973.062	2577.12
973.287	2583.12
973.512	2515.12
973.736	2560.12
973.961	2531.12
974.185	2521.12
974.41	2515.12
974.634	2427.12
974.858	2472.12
975.083	2479.12
975.307	2494.12
975.531	2419.12
975.755	2361.12
975.98	2391.12
976.204	2322.12
976.428	2321.12
976.652	2302.12
976.876	2301.12
977.1	2365.12
977.324	2277.12
977.547	2343.12
977.771	2353.12
977.995	2292.12
978.219	2249.12
978.442	2391.12
978.666	2298.12
978.89	2305.12
979.113	2280.12
979.337	2277.12
979.56	2245.12
979.783	2322.12
980.007	2185.12
980.23	2203.12
980.453	2202.12
980.677	2206.12
980.9	2177.12
981.123	2113.12
981.346	2219.12
981.569	2202.12
981.792	2180.12
982.015	2162.12
982.238	2117.12
982.461	2107.12
982.684	2091.12
982.907	2063.12
983.129	2065.12
983.352	2118.12
983.575	2070.12
983.797	2122.12
984.02	2027.12
984.242	2069.12
984.465	2039.12
984.687	2050.12
984.91	2068.12
985.132	2088.12
985.354	2068.12
985.577	2016.12
985.799	2025.12
986.021	1928.12
986.243	1948.12
986.465	1983.12
986.687	2014.12
986.909	2051.12
987.131	1978.12
987.353	1957.12
987.575	1935.12
987.797	1934.12
988.019	1895.12
988.241	1939.12
988.462	1908.12
988.684	1960.12
988.906	1957.12
989.127	1998.12
989.349	1896.12
989.57	1919.12
989.792	1974.12
990.013	1971.12
990.234	1951.12
990.456	1992.12
990.677	1983.12
990.898	1883.12
991.119	1892.12
991.341	1895.12
991.562	1849.12
991.783	1865.12
992.004	1820.12
992.225	1813.12
992.446	1886.12
992.667	1765.12
992.887	1840.12
993.108	1723.12
993.329	1857.12
993.55	1784.12
993.77	1742.12
993.991	1752.12
994.212	1762.12
994.432	1741.12
994.653	1763.12
994.873	1768.12
995.093	1659.12
995.314	1676.12
995.534	1751.12
995.754	1757.12
995.975	1782.12
996.195	1658.12
996.415	1729.12
996.635	1709.12
996.855	1709.12
997.075	1709.12
997.295	1708.12
997.515	1686.12
997.735	1702.12
997.955	1692.12
998.174	1661.12
998.394	1668.12
998.614	1721.12
998.834	1625.12
999.053	1710.12
999.273	1700.12
999.492	1730.12
999.712	1661.12
999.931	1617.12
1000.151	1650.12
1000.37	1653.12
1000.589	1703.12
1000.809	1615.12
1001.028	1727.12
1001.247	1678.12
1001.466	1549.12
1001.685	1672.12
1001.904	1641.12
1002.123	1619.12
1002.342	1624.12
1002.561	1583.12
1002.78	1584.12
1002.999	1655.12
1003.218	1585.12
1003.436	1576.12
1003.655	1593.12
1003.874	1554.12
1004.092	1570.12
1004.311	1614.12
1004.53	1577.12
1004.748	1646.12
1004.966	1539.12
1005.185	1623.12
1005.403	1608.12
1005.622	1577.12
1005.84	1673.12
1006.058	1547.12
1006.276	1568.12
1006.494	2045.12
1006.712	1592.12
1006.931	1655.12
1007.149	1551.12
1007.367	1538.12
1007.584	1608.12
1007.802	1642.12
1008.02	1580.12
1008.238	1653.12
1008.456	1674.12
1008.673	1546.12
1008.891	1655.12
1009.109	1612.12
1009.326	1676.12
1009.544	1756.12
1009.761	1659.12
1009.979	1776.12
1010.196	1831.12
1010.413	1888.12
1010.631	1963.12
1010.848	1985.12
1011.065	1999.12
1011.282	1953.12
1011.5	1889.12
1011.717	2011.12
1011.934	1911.12
1012.151	1966.12
1012.368	1927.12
1012.585	1888.12
1012.801	1947.12
1013.018	1888.12
1013.235	1887.12
1013.452	1870.12
1013.669	1894.12
1013.885	1880.12
1014.102	1935.12
1014.318	1894.12
1014.535	1885.12
1014.751	1907.12
1014.968	1898.12
1015.184	1909.12
1015.401	1838.12
1015.617	1818.12
1015.833	1780.12
1016.049	1819.12
1016.266	1776.12
1016.482	1762.12
1016.698	1654.12
1016.914	1722.12
1017.13	1665.12
1017.346	1678.12
1017.562	1713.12
1017.778	1681.12
1017.993	1611.12
1018.209	1668.12
1018.425	1668.12
1018.641	1618.12
1018.856	1622.12
1019.072	1638.12
1019.288	1668.12
1019.503	1593.12
1019.719	1523.12
1019.934	1565.12
1020.149	1637.12
1020.365	1549.12
1020.58	1496.12
1020.795	1537.12
1021.011	1471.12
1021.226	1425.12
1021.441	1462.12
1021.656	1384.12
1021.871	1306.12
1022.086	1316.12
1022.301	1279.12
1022.516	1284.12
1022.731	1329.12
1022.946	1237.12
1023.16	1243.12
1023.375	1201.12
1023.59	1190.12
1023.804	1125.12
1024.019	1238.12
1024.234	1098.12
1024.448	1124.12
1024.663	1061.12
1024.877	1064.12
1025.092	1063.12
1025.306	1086.12
1025.52	976.12
1025.734	1057.12
1025.949	962.12
1026.163	977.12
1026.377	871.12
1026.591	935.12
1026.805	874.12
1027.019	846.12
1027.233	835.12
1027.447	778.12
1027.661	876.12
1027.875	814.12
1028.088	800.12
1028.302	738.12
1028.516	742.12
1028.73	730.12
1028.943	720.12
1029.157	688.12
1029.37	641.12
1029.584	0.12
1029.797	-2.88
1030.011	-2.88
1030.224	0.12
