Data from QEP037381__132__15-45-29-881.txt Node

Date: Fri Dec 16 15:45:29 EST 2022
User: dcclab
Spectrometer: QEP03738
Trigger mode: 4
Integration Time (sec): 1.000000E1
Scans to average: 1
Electric dark correction enabled: true
Nonlinearity correction enabled: false
Boxcar width: 0
XAxis mode: Wavelengths
Number of Pixels in Spectrum: 1044
>>>>>Begin Spectral Data<<<<<
784.041	11.88
784.3	-0.12
784.558	-5.12
784.817	-4.12
785.075	112132.88
785.334	19381.88
785.592	9104.88
785.851	6253.88
786.109	4708.88
786.368	3681.88
786.626	2930.88
786.884	2450.88
787.143	2079.88
787.401	1707.88
787.659	1532.88
787.917	1310.88
788.175	1206.88
788.433	1066.88
788.691	970.88
788.949	909.88
789.207	822.88
789.465	733.88
789.723	695.88
789.98	662.88
790.238	695.88
790.496	664.88
790.753	625.88
791.011	660.88
791.268	588.88
791.526	596.88
791.783	602.88
792.041	574.88
792.298	482.88
792.556	569.88
792.813	548.88
793.07	508.88
793.327	511.88
793.584	582.88
793.841	508.88
794.099	532.88
794.356	572.88
794.613	479.88
794.869	532.88
795.126	491.88
795.383	470.88
795.64	487.88
795.897	452.88
796.153	495.88
796.41	494.88
796.667	481.88
796.923	488.88
797.18	493.88
797.436	514.88
797.693	499.88
797.949	541.88
798.206	563.88
798.462	492.88
798.718	545.88
798.974	521.88
799.231	575.88
799.487	565.88
799.743	594.88
799.999	611.88
800.255	627.88
800.511	622.88
800.767	661.88
801.023	690.88
801.279	726.88
801.534	788.88
801.79	874.88
802.046	968.88
802.302	1152.88
802.557	1382.88
802.813	1785.88
803.068	2281.88
803.324	3259.88
803.579	4567.88
803.835	6391.88
804.09	8907.88
804.345	11760.88
804.601	14940.88
804.856	17948.88
805.111	20825.88
805.366	23042.88
805.621	24681.88
805.876	25858.88
806.131	26578.88
806.386	27128.88
806.641	27622.88
806.896	28018.88
807.151	28524.88
807.406	29001.88
807.661	29492.88
807.915	30084.88
808.17	30552.88
808.425	30838.88
808.679	31085.88
808.934	31382.88
809.188	31738.88
809.443	32085.88
809.697	32587.88
809.951	32666.88
810.206	32997.88
810.46	33345.88
810.714	33576.88
810.968	33996.88
811.223	34084.88
811.477	34408.88
811.731	34679.88
811.985	34932.88
812.239	34998.88
812.493	35312.88
812.747	35499.88
813	35366.88
813.254	35611.88
813.508	35901.88
813.762	35995.88
814.015	36035.88
814.269	36348.88
814.522	36651.88
814.776	37170.88
815.03	37516.88
815.283	38066.88
815.536	38774.88
815.79	39434.88
816.043	39929.88
816.296	40354.88
816.55	40754.88
816.803	41200.88
817.056	41757.88
817.309	42197.88
817.562	42551.88
817.815	42934.88
818.068	43378.88
818.321	43789.88
818.574	44323.88
818.827	44848.88
819.079	45307.88
819.332	46105.88
819.585	46779.88
819.838	47296.88
820.09	47732.88
820.343	47899.88
820.595	48169.88
820.848	48492.88
821.1	48764.88
821.353	48732.88
821.605	48557.88
821.857	48688.88
822.11	48556.88
822.362	48220.88
822.614	48227.88
822.866	48267.88
823.118	48273.88
823.37	48521.88
823.622	48592.88
823.874	48522.88
824.126	48834.88
824.378	48855.88
824.63	49146.88
824.882	49071.88
825.134	49261.88
825.385	49086.88
825.637	49143.88
825.888	48930.88
826.14	48699.88
826.392	48628.88
826.643	48286.88
826.895	48255.88
827.146	47993.88
827.397	47782.88
827.649	48094.88
827.9	47878.88
828.151	48097.88
828.402	48148.88
828.653	48174.88
828.905	48323.88
829.156	48417.88
829.407	48312.88
829.658	48286.88
829.909	48174.88
830.159	48202.88
830.41	47904.88
830.661	47719.88
830.912	47336.88
831.162	47250.88
831.413	47080.88
831.664	47095.88
831.914	47214.88
832.165	47016.88
832.415	47160.88
832.666	47046.88
832.916	47054.88
833.167	47071.88
833.417	47114.88
833.667	46892.88
833.917	46677.88
834.168	46602.88
834.418	46462.88
834.668	46175.88
834.918	45901.88
835.168	45812.88
835.418	45782.88
835.668	45700.88
835.918	45550.88
836.167	45496.88
836.417	45267.88
836.667	45319.88
836.917	45405.88
837.166	45036.88
837.416	45046.88
837.666	45025.88
837.915	44923.88
838.165	44858.88
838.414	44677.88
838.663	44508.88
838.913	44468.88
839.162	44346.88
839.411	44471.88
839.661	43970.88
839.91	44078.88
840.159	43828.88
840.408	43857.88
840.657	43858.88
840.906	43776.88
841.155	43701.88
841.404	43681.88
841.653	43791.88
841.902	43778.88
842.15	43906.88
842.399	43930.88
842.648	43628.88
842.897	43461.88
843.145	43412.88
843.394	43162.88
843.642	42900.88
843.891	42660.88
844.139	42515.88
844.388	42077.88
844.636	42039.88
844.884	42073.88
845.133	41791.88
845.381	41884.88
845.629	41790.88
845.877	41815.88
846.125	41695.88
846.373	41665.88
846.621	41597.88
846.869	41352.88
847.117	41119.88
847.365	40985.88
847.613	40748.88
847.861	40447.88
848.108	40399.88
848.356	40432.88
848.604	40241.88
848.851	40269.88
849.099	40151.88
849.346	40369.88
849.594	40601.88
849.841	40581.88
850.089	40763.88
850.336	40749.88
850.583	40560.88
850.831	40293.88
851.078	40199.88
851.325	40044.88
851.572	40075.88
851.819	39776.88
852.066	39073.88
852.313	38586.88
852.56	38387.88
852.807	38151.88
853.054	38046.88
853.301	38011.88
853.548	38055.88
853.794	38130.88
854.041	38308.88
854.288	38367.88
854.534	38746.88
854.781	38617.88
855.028	38472.88
855.274	38388.88
855.52	38152.88
855.767	37899.88
856.013	37750.88
856.26	38173.88
856.506	37406.88
856.752	37517.88
856.998	37496.88
857.244	37534.88
857.49	37709.88
857.736	37654.88
857.982	37731.88
858.228	37749.88
858.474	37371.88
858.72	37144.88
858.966	36926.88
859.212	36534.88
859.458	36221.88
859.703	35877.88
859.949	35448.88
860.195	35225.88
860.44	34891.88
860.686	34814.88
860.931	34705.88
861.177	34570.88
861.422	34476.88
861.667	34330.88
861.913	34390.88
862.158	34397.88
862.403	34470.88
862.648	34537.88
862.893	34566.88
863.138	34486.88
863.384	34404.88
863.629	34339.88
863.873	34411.88
864.118	34190.88
864.363	33957.88
864.608	34067.88
864.853	33778.88
865.098	33568.88
865.342	33457.88
865.587	33223.88
865.832	33377.88
866.076	33184.88
866.321	32979.88
866.565	32947.88
866.81	32691.88
867.054	32624.88
867.298	32540.88
867.543	32431.88
867.787	32438.88
868.031	32245.88
868.275	32141.88
868.519	32093.88
868.764	31992.88
869.008	31778.88
869.252	31804.88
869.496	31639.88
869.739	31619.88
869.983	31627.88
870.227	31538.88
870.471	31638.88
870.715	31483.88
870.958	31565.88
871.202	31428.88
871.446	31629.88
871.689	31484.88
871.933	31543.88
872.176	31465.88
872.42	31551.88
872.663	31415.88
872.906	31384.88
873.15	31091.88
873.393	30934.88
873.636	30760.88
873.879	30541.88
874.122	30134.88
874.366	29895.88
874.609	29636.88
874.852	29546.88
875.095	29411.88
875.337	29263.88
875.58	29031.88
875.823	29009.88
876.066	28826.88
876.309	28756.88
876.551	28639.88
876.794	28351.88
877.037	28472.88
877.279	28249.88
877.522	28356.88
877.764	28343.88
878.007	28396.88
878.249	28311.88
878.491	28245.88
878.734	28230.88
878.976	28143.88
879.218	27891.88
879.46	27832.88
879.702	27607.88
879.945	27514.88
880.187	27254.88
880.429	27048.88
880.671	26931.88
880.912	26852.88
881.154	26680.88
881.396	26637.88
881.638	26556.88
881.88	26543.88
882.121	26420.88
882.363	26510.88
882.605	26425.88
882.846	26248.88
883.088	26085.88
883.329	26051.88
883.571	26004.88
883.812	26043.88
884.053	26179.88
884.295	26553.88
884.536	26592.88
884.777	26351.88
885.018	26159.88
885.259	26199.88
885.5	26070.88
885.742	26302.88
885.982	25970.88
886.223	25822.88
886.464	25842.88
886.705	25573.88
886.946	25382.88
887.187	25037.88
887.428	24983.88
887.668	24698.88
887.909	24539.88
888.15	24142.88
888.39	24014.88
888.631	23989.88
888.871	23799.88
889.111	23550.88
889.352	23479.88
889.592	23230.88
889.833	23026.88
890.073	22985.88
890.313	22789.88
890.553	22621.88
890.793	22509.88
891.033	22413.88
891.273	22266.88
891.513	22214.88
891.753	22103.88
891.993	22157.88
892.233	21993.88
892.473	22128.88
892.713	22105.88
892.952	22077.88
893.192	22085.88
893.432	22109.88
893.671	22007.88
893.911	21779.88
894.15	21770.88
894.39	21650.88
894.629	21467.88
894.869	21319.88
895.108	21135.88
895.347	21100.88
895.587	21012.88
895.826	21045.88
896.065	20901.88
896.304	20907.88
896.543	20785.88
896.782	20664.88
897.021	20720.88
897.26	20518.88
897.499	20572.88
897.738	20464.88
897.977	20355.88
898.216	20095.88
898.454	19864.88
898.693	19795.88
898.932	19691.88
899.17	19679.88
899.409	19407.88
899.647	19482.88
899.886	19388.88
900.124	19468.88
900.363	19346.88
900.601	19334.88
900.839	19308.88
901.078	19323.88
901.316	19389.88
901.554	19396.88
901.792	19400.88
902.03	19280.88
902.268	19375.88
902.506	19412.88
902.744	19194.88
902.982	19079.88
903.22	18796.88
903.458	18763.88
903.695	18460.88
903.933	18369.88
904.171	18055.88
904.409	17727.88
904.646	17521.88
904.884	17366.88
905.121	17140.88
905.359	17082.88
905.596	16863.88
905.833	16697.88
906.071	16596.88
906.308	16669.88
906.545	16602.88
906.783	16459.88
907.02	16443.88
907.257	16454.88
907.494	16334.88
907.731	16261.88
907.968	16233.88
908.205	16048.88
908.442	15953.88
908.679	15894.88
908.915	15751.88
909.152	15684.88
909.389	15457.88
909.626	15420.88
909.862	15282.88
910.099	15190.88
910.335	15236.88
910.572	15029.88
910.808	15076.88
911.045	15002.88
911.281	14890.88
911.518	14936.88
911.754	14739.88
911.99	14714.88
912.226	14513.88
912.463	14427.88
912.699	14309.88
912.935	14225.88
913.171	14020.88
913.407	13927.88
913.643	14004.88
913.879	13658.88
914.114	13640.88
914.35	13508.88
914.586	13454.88
914.822	13260.88
915.057	13212.88
915.293	13062.88
915.529	12959.88
915.764	12973.88
916	12928.88
916.235	12848.88
916.471	12907.88
916.706	12734.88
916.941	12811.88
917.177	12764.88
917.412	12761.88
917.647	12727.88
917.882	12668.88
918.117	12741.88
918.352	12574.88
918.588	12698.88
918.823	12415.88
919.057	12251.88
919.292	12170.88
919.527	12121.88
919.762	11894.88
919.997	11809.88
920.232	11629.88
920.466	11666.88
920.701	11405.88
920.935	11381.88
921.17	11315.88
921.405	11253.88
921.639	11316.88
921.873	11158.88
922.108	11099.88
922.342	11155.88
922.576	11010.88
922.811	10938.88
923.045	10945.88
923.279	11007.88
923.513	10733.88
923.747	10840.88
923.981	10749.88
924.215	10653.88
924.449	10542.88
924.683	10433.88
924.917	10414.88
925.151	10303.88
925.385	10429.88
925.618	10256.88
925.852	10306.88
926.086	10167.88
926.319	10170.88
926.553	10168.88
926.786	10150.88
927.02	10153.88
927.253	10182.88
927.486	10182.88
927.72	10031.88
927.953	10078.88
928.186	9998.88
928.42	10027.88
928.653	9919.88
928.886	9877.88
929.119	9863.88
929.352	9868.88
929.585	9785.88
929.818	9651.88
930.051	9594.88
930.284	9476.88
930.516	9253.88
930.749	9317.88
930.982	9308.88
931.215	9233.88
931.447	9115.88
931.68	9098.88
931.912	9109.88
932.145	9051.88
932.377	9093.88
932.61	9133.88
932.842	9007.88
933.074	9010.88
933.307	8982.88
933.539	9036.88
933.771	9065.88
934.003	8966.88
934.236	9063.88
934.468	9063.88
934.7	8927.88
934.932	8972.88
935.164	8848.88
935.395	8803.88
935.627	8773.88
935.859	8821.88
936.091	8722.88
936.323	8690.88
936.554	8650.88
936.786	8604.88
937.017	8516.88
937.249	8573.88
937.481	8468.88
937.712	8530.88
937.943	8465.88
938.175	8416.88
938.406	8436.88
938.637	8479.88
938.869	8372.88
939.1	8399.88
939.331	8320.88
939.562	8282.88
939.793	8314.88
940.024	8260.88
940.255	8199.88
940.486	8164.88
940.717	8099.88
940.948	8036.88
941.179	8034.88
941.409	7990.88
941.64	7998.88
941.871	8002.88
942.102	7892.88
942.332	7875.88
942.563	7989.88
942.793	7954.88
943.024	7833.88
943.254	7942.88
943.484	7901.88
943.715	7884.88
943.945	7949.88
944.175	7793.88
944.405	7776.88
944.636	7788.88
944.866	7839.88
945.096	7821.88
945.326	7710.88
945.556	7724.88
945.786	7737.88
946.016	7638.88
946.245	7561.88
946.475	7465.88
946.705	7465.88
946.935	7441.88
947.164	7372.88
947.394	7288.88
947.624	7295.88
947.853	7316.88
948.083	7272.88
948.312	7186.88
948.542	7123.88
948.771	7078.88
949	7128.88
949.23	7137.88
949.459	7063.88
949.688	7177.88
949.917	7119.88
950.146	7103.88
950.375	7127.88
950.604	6986.88
950.833	7068.88
951.062	7028.88
951.291	6950.88
951.52	6954.88
951.749	6947.88
951.978	6886.88
952.206	6854.88
952.435	6822.88
952.664	6841.88
952.892	6815.88
953.121	6776.88
953.349	6754.88
953.578	6739.88
953.806	6652.88
954.035	6607.88
954.263	6616.88
954.491	6573.88
954.719	6558.88
954.948	6463.88
955.176	6444.88
955.404	6362.88
955.632	6368.88
955.86	6330.88
956.088	6338.88
956.316	6344.88
956.544	6349.88
956.772	6210.88
956.999	6191.88
957.227	6211.88
957.455	6118.88
957.683	6104.88
957.91	6007.88
958.138	6013.88
958.365	5994.88
958.593	5970.88
958.82	5904.88
959.048	5948.88
959.275	5903.88
959.502	5904.88
959.73	5839.88
959.957	5859.88
960.184	5847.88
960.411	5810.88
960.638	5872.88
960.865	5772.88
961.092	5834.88
961.319	5724.88
961.546	5813.88
961.773	5832.88
962	5756.88
962.227	5798.88
962.454	5699.88
962.68	5647.88
962.907	5711.88
963.134	5582.88
963.36	5613.88
963.587	5557.88
963.813	5471.88
964.04	5471.88
964.266	5409.88
964.493	5430.88
964.719	5373.88
964.945	5360.88
965.171	5260.88
965.398	5289.88
965.624	5261.88
965.85	5163.88
966.076	5209.88
966.302	5227.88
966.528	5130.88
966.754	5183.88
966.98	5117.88
967.206	5110.88
967.431	4947.88
967.657	5081.88
967.883	5099.88
968.109	5054.88
968.334	5024.88
968.56	4980.88
968.785	5004.88
969.011	4851.88
969.236	4950.88
969.462	4864.88
969.687	4868.88
969.912	4898.88
970.138	4940.88
970.363	4802.88
970.588	4836.88
970.813	4770.88
971.038	4761.88
971.263	4765.88
971.488	4763.88
971.713	4782.88
971.938	4743.88
972.163	4620.88
972.388	4653.88
972.613	4612.88
972.838	4684.88
973.062	4614.88
973.287	4531.88
973.512	4486.88
973.736	4526.88
973.961	4482.88
974.185	4409.88
974.41	4443.88
974.634	4355.88
974.858	4359.88
975.083	4370.88
975.307	4369.88
975.531	4286.88
975.755	4236.88
975.98	4238.88
976.204	4153.88
976.428	4058.88
976.652	4119.88
976.876	4101.88
977.1	4141.88
977.324	4078.88
977.547	4078.88
977.771	4126.88
977.995	4031.88
978.219	4010.88
978.442	4068.88
978.666	4038.88
978.89	4011.88
979.113	3981.88
979.337	3968.88
979.56	3896.88
979.783	3978.88
980.007	3881.88
980.23	3907.88
980.453	3889.88
980.677	3910.88
980.9	3822.88
981.123	3732.88
981.346	3843.88
981.569	3813.88
981.792	3746.88
982.015	3723.88
982.238	3691.88
982.461	3723.88
982.684	3660.88
982.907	3597.88
983.129	3563.88
983.352	3641.88
983.575	3573.88
983.797	3565.88
984.02	3506.88
984.242	3543.88
984.465	3506.88
984.687	3508.88
984.91	3539.88
985.132	3484.88
985.354	3486.88
985.577	3456.88
985.799	3422.88
986.021	3318.88
986.243	3367.88
986.465	3358.88
986.687	3404.88
986.909	3436.88
987.131	3345.88
987.353	3316.88
987.575	3339.88
987.797	3292.88
988.019	3225.88
988.241	3246.88
988.462	3210.88
988.684	3259.88
988.906	3279.88
989.127	3287.88
989.349	3142.88
989.57	3238.88
989.792	3245.88
990.013	3236.88
990.234	3235.88
990.456	3234.88
990.677	3186.88
990.898	3112.88
991.119	3112.88
991.341	3153.88
991.562	3064.88
991.783	3072.88
992.004	3024.88
992.225	2970.88
992.446	3015.88
992.667	2917.88
992.887	3005.88
993.108	2885.88
993.329	2988.88
993.55	2954.88
993.77	2868.88
993.991	2852.88
994.212	2876.88
994.432	2862.88
994.653	2846.88
994.873	2858.88
995.093	2671.88
995.314	2777.88
995.534	2810.88
995.754	2834.88
995.975	2786.88
996.195	2701.88
996.415	2767.88
996.635	2723.88
996.855	2694.88
997.075	2696.88
997.295	2699.88
997.515	2685.88
997.735	2728.88
997.955	2680.88
998.174	2649.88
998.394	2613.88
998.614	2716.88
998.834	2616.88
999.053	2678.88
999.273	2643.88
999.492	2697.88
999.712	2638.88
999.931	2572.88
1000.151	2616.88
1000.37	2590.88
1000.589	2623.88
1000.809	2528.88
1001.028	2650.88
1001.247	2548.88
1001.466	2471.88
1001.685	2565.88
1001.904	2489.88
1002.123	2482.88
1002.342	2443.88
1002.561	2425.88
1002.78	2461.88
1002.999	2487.88
1003.218	2415.88
1003.436	2365.88
1003.655	2458.88
1003.874	2356.88
1004.092	2373.88
1004.311	2400.88
1004.53	2404.88
1004.748	2403.88
1004.966	2372.88
1005.185	2383.88
1005.403	2348.88
1005.622	2328.88
1005.84	2411.88
1006.058	2294.88
1006.276	2315.88
1006.494	2855.88
1006.712	2298.88
1006.931	2386.88
1007.149	2258.88
1007.367	2269.88
1007.584	2315.88
1007.802	2352.88
1008.02	2278.88
1008.238	2352.88
1008.456	2353.88
1008.673	2192.88
1008.891	2300.88
1009.109	2268.88
1009.326	2350.88
1009.544	2421.88
1009.761	2339.88
1009.979	2424.88
1010.196	2408.88
1010.413	2496.88
1010.631	2602.88
1010.848	2606.88
1011.065	2615.88
1011.282	2552.88
1011.5	2491.88
1011.717	2593.88
1011.934	2551.88
1012.151	2563.88
1012.368	2508.88
1012.585	2438.88
1012.801	2522.88
1013.018	2476.88
1013.235	2433.88
1013.452	2482.88
1013.669	2518.88
1013.885	2461.88
1014.102	2476.88
1014.318	2454.88
1014.535	2425.88
1014.751	2461.88
1014.968	2436.88
1015.184	2470.88
1015.401	2349.88
1015.617	2354.88
1015.833	2275.88
1016.049	2312.88
1016.266	2262.88
1016.482	2275.88
1016.698	2171.88
1016.914	2203.88
1017.13	2177.88
1017.346	2175.88
1017.562	2200.88
1017.778	2145.88
1017.993	2104.88
1018.209	2161.88
1018.425	2141.88
1018.641	2107.88
1018.856	2066.88
1019.072	2091.88
1019.288	2154.88
1019.503	2100.88
1019.719	2008.88
1019.934	2027.88
1020.149	2070.88
1020.365	2028.88
1020.58	1935.88
1020.795	2003.88
1021.011	1913.88
1021.226	1895.88
1021.441	1915.88
1021.656	1831.88
1021.871	1771.88
1022.086	1739.88
1022.301	1728.88
1022.516	1712.88
1022.731	1746.88
1022.946	1645.88
1023.16	1633.88
1023.375	1580.88
1023.59	1581.88
1023.804	1541.88
1024.019	1610.88
1024.234	1455.88
1024.448	1516.88
1024.663	1422.88
1024.877	1439.88
1025.092	1438.88
1025.306	1437.88
1025.52	1334.88
1025.734	1405.88
1025.949	1301.88
1026.163	1258.88
1026.377	1215.88
1026.591	1250.88
1026.805	1192.88
1027.019	1171.88
1027.233	1110.88
1027.447	1073.88
1027.661	1173.88
1027.875	1109.88
1028.088	1117.88
1028.302	1005.88
1028.516	980.88
1028.73	977.88
1028.943	955.88
1029.157	923.88
1029.37	849.88
1029.584	0.88
1029.797	-0.12
1030.011	-1.12
1030.224	-2.12
