Data from QEP037381__159__15-49-59-885.txt Node

Date: Fri Dec 16 15:49:59 EST 2022
User: dcclab
Spectrometer: QEP03738
Trigger mode: 4
Integration Time (sec): 1.000000E1
Scans to average: 1
Electric dark correction enabled: true
Nonlinearity correction enabled: false
Boxcar width: 0
XAxis mode: Wavelengths
Number of Pixels in Spectrum: 1044
>>>>>Begin Spectral Data<<<<<
784.041	11.62
784.3	0.62
784.558	-0.38
784.817	-4.38
785.075	112308.62
785.334	19768.62
785.592	9370.62
785.851	6542.62
786.109	4883.62
786.368	3854.62
786.626	3073.62
786.884	2541.62
787.143	2138.62
787.401	1761.62
787.659	1566.62
787.917	1373.62
788.175	1213.62
788.433	1072.62
788.691	946.62
788.949	880.62
789.207	826.62
789.465	742.62
789.723	719.62
789.98	655.62
790.238	671.62
790.496	629.62
790.753	606.62
791.011	657.62
791.268	588.62
791.526	566.62
791.783	573.62
792.041	575.62
792.298	486.62
792.556	539.62
792.813	530.62
793.07	495.62
793.327	485.62
793.584	565.62
793.841	500.62
794.099	516.62
794.356	563.62
794.613	462.62
794.869	503.62
795.126	461.62
795.383	457.62
795.64	468.62
795.897	420.62
796.153	480.62
796.41	466.62
796.667	455.62
796.923	467.62
797.18	474.62
797.436	493.62
797.693	461.62
797.949	506.62
798.206	549.62
798.462	450.62
798.718	521.62
798.974	501.62
799.231	546.62
799.487	531.62
799.743	541.62
799.999	577.62
800.255	579.62
800.511	549.62
800.767	619.62
801.023	613.62
801.279	650.62
801.534	710.62
801.79	786.62
802.046	826.62
802.302	1001.62
802.557	1193.62
802.813	1511.62
803.068	1889.62
803.324	2647.62
803.579	3701.62
803.835	5153.62
804.09	7186.62
804.345	9413.62
804.601	11933.62
804.856	14548.62
805.111	16950.62
805.366	18666.62
805.621	20082.62
805.876	20961.62
806.131	21588.62
806.386	21896.62
806.641	22358.62
806.896	22731.62
807.151	23171.62
807.406	23543.62
807.661	23860.62
807.915	24266.62
808.17	24765.62
808.425	24915.62
808.679	25190.62
808.934	25524.62
809.188	25695.62
809.443	25979.62
809.697	26240.62
809.951	26437.62
810.206	26603.62
810.46	26879.62
810.714	27032.62
810.968	27406.62
811.223	27514.62
811.477	27858.62
811.731	28020.62
811.985	28262.62
812.239	28400.62
812.493	28512.62
812.747	28528.62
813	28627.62
813.254	28716.62
813.508	28888.62
813.762	29096.62
814.015	29068.62
814.269	29380.62
814.522	29675.62
814.776	29908.62
815.03	30432.62
815.283	30747.62
815.536	31250.62
815.79	31676.62
816.043	32134.62
816.296	32546.62
816.55	32951.62
816.803	33345.62
817.056	33747.62
817.309	34096.62
817.562	34301.62
817.815	34428.62
818.068	34887.62
818.321	35321.62
818.574	35602.62
818.827	36088.62
819.079	36492.62
819.332	37172.62
819.585	37597.62
819.838	37882.62
820.09	38036.62
820.343	38581.62
820.595	38713.62
820.848	38776.62
821.1	39074.62
821.353	39069.62
821.605	39056.62
821.857	39081.62
822.11	38819.62
822.362	38886.62
822.614	38640.62
822.866	38734.62
823.118	38652.62
823.37	38812.62
823.622	39007.62
823.874	39010.62
824.126	39135.62
824.378	39095.62
824.63	39359.62
824.882	39329.62
825.134	39368.62
825.385	39249.62
825.637	39220.62
825.888	39070.62
826.14	39028.62
826.392	39038.62
826.643	38757.62
826.895	38624.62
827.146	38529.62
827.397	38405.62
827.649	38387.62
827.9	38360.62
828.151	38375.62
828.402	38486.62
828.653	38686.62
828.905	38642.62
829.156	38726.62
829.407	38684.62
829.658	38660.62
829.909	38762.62
830.159	38656.62
830.41	38616.62
830.661	38364.62
830.912	37975.62
831.162	37801.62
831.413	37739.62
831.664	37838.62
831.914	37844.62
832.165	37712.62
832.415	37759.62
832.666	37798.62
832.916	37816.62
833.167	37870.62
833.417	37656.62
833.667	37665.62
833.917	37330.62
834.168	37406.62
834.418	37267.62
834.668	37119.62
834.918	36917.62
835.168	36936.62
835.418	36593.62
835.668	36386.62
835.918	36386.62
836.167	36450.62
836.417	36174.62
836.667	36187.62
836.917	36149.62
837.166	36033.62
837.416	36286.62
837.666	36165.62
837.915	36149.62
838.165	35906.62
838.414	35893.62
838.663	35830.62
838.913	35787.62
839.162	35542.62
839.411	35495.62
839.661	35396.62
839.91	35292.62
840.159	35285.62
840.408	35102.62
840.657	35424.62
840.906	35273.62
841.155	35273.62
841.404	35153.62
841.653	35241.62
841.902	35143.62
842.15	35275.62
842.399	35279.62
842.648	35182.62
842.897	35111.62
843.145	34955.62
843.394	34692.62
843.642	34569.62
843.891	34365.62
844.139	34152.62
844.388	34151.62
844.636	33890.62
844.884	33820.62
845.133	33733.62
845.381	33875.62
845.629	33734.62
845.877	33745.62
846.125	33524.62
846.373	33483.62
846.621	33494.62
846.869	33272.62
847.117	33155.62
847.365	32851.62
847.613	32843.62
847.861	32692.62
848.108	32576.62
848.356	32537.62
848.604	32389.62
848.851	32418.62
849.099	32482.62
849.346	32495.62
849.594	32640.62
849.841	32987.62
850.089	32835.62
850.336	32807.62
850.583	32796.62
850.831	32469.62
851.078	32451.62
851.325	32310.62
851.572	32345.62
851.819	32112.62
852.066	31610.62
852.313	31174.62
852.56	31015.62
852.807	30775.62
853.054	30726.62
853.301	30632.62
853.548	30685.62
853.794	30696.62
854.041	30824.62
854.288	31108.62
854.534	31113.62
854.781	31090.62
855.028	31102.62
855.274	31009.62
855.52	30929.62
855.767	30661.62
856.013	30643.62
856.26	30969.62
856.506	30343.62
856.752	30292.62
856.998	30240.62
857.244	30401.62
857.49	30605.62
857.736	30508.62
857.982	30559.62
858.228	30545.62
858.474	30302.62
858.72	30113.62
858.966	29829.62
859.212	29597.62
859.458	29344.62
859.703	28831.62
859.949	28537.62
860.195	28471.62
860.44	28300.62
860.686	28161.62
860.931	28180.62
861.177	27993.62
861.422	27900.62
861.667	27879.62
861.913	27895.62
862.158	27915.62
862.403	27855.62
862.648	28005.62
862.893	27965.62
863.138	28010.62
863.384	27900.62
863.629	27820.62
863.873	27801.62
864.118	27788.62
864.363	27657.62
864.608	27495.62
864.853	27341.62
865.098	27217.62
865.342	27159.62
865.587	27000.62
865.832	26930.62
866.076	26883.62
866.321	26773.62
866.565	26628.62
866.81	26526.62
867.054	26570.62
867.298	26406.62
867.543	26295.62
867.787	26305.62
868.031	26185.62
868.275	26215.62
868.519	26122.62
868.764	26095.62
869.008	25937.62
869.252	25898.62
869.496	25818.62
869.739	25734.62
869.983	25644.62
870.227	25626.62
870.471	25661.62
870.715	25724.62
870.958	25757.62
871.202	25721.62
871.446	25814.62
871.689	25820.62
871.933	25754.62
872.176	25827.62
872.42	25770.62
872.663	25689.62
872.906	25672.62
873.15	25407.62
873.393	25369.62
873.636	25313.62
873.879	25084.62
874.122	24931.62
874.366	24563.62
874.609	24366.62
874.852	24238.62
875.095	24037.62
875.337	23854.62
875.58	23706.62
875.823	23736.62
876.066	23701.62
876.309	23567.62
876.551	23395.62
876.794	23267.62
877.037	23253.62
877.279	23190.62
877.522	23255.62
877.764	23182.62
878.007	23126.62
878.249	23162.62
878.491	22989.62
878.734	23176.62
878.976	22921.62
879.218	22804.62
879.46	22738.62
879.702	22471.62
879.945	22401.62
880.187	22210.62
880.429	22120.62
880.671	21933.62
880.912	21904.62
881.154	21888.62
881.396	21729.62
881.638	21785.62
881.88	21733.62
882.121	21659.62
882.363	21650.62
882.605	21627.62
882.846	21537.62
883.088	21532.62
883.329	21412.62
883.571	21388.62
883.812	21512.62
884.053	21827.62
884.295	21969.62
884.536	22116.62
884.777	22006.62
885.018	21813.62
885.259	21838.62
885.5	21646.62
885.742	21838.62
885.982	21612.62
886.223	21519.62
886.464	21245.62
886.705	21184.62
886.946	21092.62
887.187	20690.62
887.428	20538.62
887.668	20384.62
887.909	20063.62
888.15	19862.62
888.39	19861.62
888.631	19608.62
888.871	19470.62
889.111	19366.62
889.352	19319.62
889.592	19146.62
889.833	18929.62
890.073	18750.62
890.313	18846.62
890.553	18636.62
890.793	18550.62
891.033	18444.62
891.273	18316.62
891.513	18225.62
891.753	18194.62
891.993	18117.62
892.233	18216.62
892.473	18359.62
892.713	18272.62
892.952	18173.62
893.192	18250.62
893.432	18129.62
893.671	18186.62
893.911	18005.62
894.15	17938.62
894.39	17846.62
894.629	17684.62
894.869	17620.62
895.108	17427.62
895.347	17358.62
895.587	17372.62
895.826	17238.62
896.065	17205.62
896.304	17220.62
896.543	17226.62
896.782	17095.62
897.021	17082.62
897.26	16964.62
897.499	17015.62
897.738	17013.62
897.977	16863.62
898.216	16654.62
898.454	16510.62
898.693	16438.62
898.932	16410.62
899.17	16286.62
899.409	16197.62
899.647	16168.62
899.886	16108.62
900.124	16150.62
900.363	16051.62
900.601	16077.62
900.839	16206.62
901.078	16145.62
901.316	16178.62
901.554	16275.62
901.792	16332.62
902.03	16264.62
902.268	16305.62
902.506	16248.62
902.744	16094.62
902.982	15997.62
903.22	15814.62
903.458	15739.62
903.695	15483.62
903.933	15212.62
904.171	15021.62
904.409	14775.62
904.646	14650.62
904.884	14435.62
905.121	14337.62
905.359	14182.62
905.596	14050.62
905.833	13874.62
906.071	13823.62
906.308	13885.62
906.545	13827.62
906.783	13772.62
907.02	13606.62
907.257	13631.62
907.494	13579.62
907.731	13575.62
907.968	13494.62
908.205	13412.62
908.442	13285.62
908.679	13216.62
908.915	13173.62
909.152	13111.62
909.389	12859.62
909.626	12831.62
909.862	12717.62
910.099	12727.62
910.335	12658.62
910.572	12584.62
910.808	12557.62
911.045	12518.62
911.281	12458.62
911.518	12509.62
911.754	12305.62
911.99	12245.62
912.226	12196.62
912.463	12081.62
912.699	12037.62
912.935	11880.62
913.171	11854.62
913.407	11725.62
913.643	11656.62
913.879	11542.62
914.114	11389.62
914.35	11373.62
914.586	11230.62
914.822	11106.62
915.057	11134.62
915.293	10863.62
915.529	10872.62
915.764	10918.62
916	10854.62
916.235	10802.62
916.471	10848.62
916.706	10671.62
916.941	10700.62
917.177	10664.62
917.412	10673.62
917.647	10626.62
917.882	10636.62
918.117	10708.62
918.352	10647.62
918.588	10591.62
918.823	10419.62
919.057	10364.62
919.292	10218.62
919.527	10256.62
919.762	10073.62
919.997	9948.62
920.232	9890.62
920.466	9887.62
920.701	9582.62
920.935	9671.62
921.17	9584.62
921.405	9459.62
921.639	9512.62
921.873	9443.62
922.108	9383.62
922.342	9284.62
922.576	9297.62
922.811	9230.62
923.045	9303.62
923.279	9269.62
923.513	9112.62
923.747	9148.62
923.981	9035.62
924.215	8989.62
924.449	8893.62
924.683	8869.62
924.917	8813.62
925.151	8710.62
925.385	8814.62
925.618	8767.62
925.852	8695.62
926.086	8613.62
926.319	8648.62
926.553	8622.62
926.786	8577.62
927.02	8646.62
927.253	8669.62
927.486	8638.62
927.72	8530.62
927.953	8606.62
928.186	8467.62
928.42	8477.62
928.653	8413.62
928.886	8351.62
929.119	8392.62
929.352	8289.62
929.585	8284.62
929.818	8138.62
930.051	8106.62
930.284	8148.62
930.516	7950.62
930.749	7870.62
930.982	7948.62
931.215	7887.62
931.447	7788.62
931.68	7767.62
931.912	7638.62
932.145	7738.62
932.377	7767.62
932.61	7903.62
932.842	7618.62
933.074	7708.62
933.307	7628.62
933.539	7712.62
933.771	7725.62
934.003	7653.62
934.236	7752.62
934.468	7716.62
934.7	7603.62
934.932	7616.62
935.164	7530.62
935.395	7470.62
935.627	7540.62
935.859	7535.62
936.091	7380.62
936.323	7408.62
936.554	7439.62
936.786	7326.62
937.017	7291.62
937.249	7340.62
937.481	7200.62
937.712	7285.62
937.943	7276.62
938.175	7131.62
938.406	7177.62
938.637	7223.62
938.869	7072.62
939.1	7121.62
939.331	7074.62
939.562	7170.62
939.793	7100.62
940.024	7083.62
940.255	7059.62
940.486	6889.62
940.717	6965.62
940.948	6935.62
941.179	6849.62
941.409	6858.62
941.64	6845.62
941.871	6926.62
942.102	6820.62
942.332	6780.62
942.563	6815.62
942.793	6804.62
943.024	6756.62
943.254	6792.62
943.484	6800.62
943.715	6834.62
943.945	6747.62
944.175	6668.62
944.405	6689.62
944.636	6649.62
944.866	6751.62
945.096	6764.62
945.326	6626.62
945.556	6713.62
945.786	6687.62
946.016	6496.62
946.245	6488.62
946.475	6483.62
946.705	6424.62
946.935	6341.62
947.164	6340.62
947.394	6262.62
947.624	6289.62
947.853	6321.62
948.083	6219.62
948.312	6242.62
948.542	6157.62
948.771	6092.62
949	6163.62
949.23	6121.62
949.459	6113.62
949.688	6181.62
949.917	6092.62
950.146	6064.62
950.375	6149.62
950.604	6006.62
950.833	6151.62
951.062	6076.62
951.291	6027.62
951.52	6008.62
951.749	5963.62
951.978	5968.62
952.206	5904.62
952.435	5895.62
952.664	5860.62
952.892	5873.62
953.121	5841.62
953.349	5852.62
953.578	5837.62
953.806	5768.62
954.035	5732.62
954.263	5706.62
954.491	5604.62
954.719	5738.62
954.948	5627.62
955.176	5547.62
955.404	5505.62
955.632	5524.62
955.86	5540.62
956.088	5476.62
956.316	5493.62
956.544	5492.62
956.772	5347.62
956.999	5379.62
957.227	5446.62
957.455	5334.62
957.683	5296.62
957.91	5236.62
958.138	5185.62
958.365	5173.62
958.593	5158.62
958.82	5090.62
959.048	5178.62
959.275	5172.62
959.502	5100.62
959.73	5042.62
959.957	5060.62
960.184	5098.62
960.411	5039.62
960.638	5088.62
960.865	5110.62
961.092	5043.62
961.319	4932.62
961.546	5060.62
961.773	5047.62
962	5021.62
962.227	5059.62
962.454	5005.62
962.68	4963.62
962.907	4938.62
963.134	4905.62
963.36	4871.62
963.587	4870.62
963.813	4807.62
964.04	4762.62
964.266	4715.62
964.493	4746.62
964.719	4751.62
964.945	4700.62
965.171	4605.62
965.398	4607.62
965.624	4646.62
965.85	4513.62
966.076	4586.62
966.302	4532.62
966.528	4509.62
966.754	4495.62
966.98	4487.62
967.206	4472.62
967.431	4390.62
967.657	4473.62
967.883	4399.62
968.109	4414.62
968.334	4364.62
968.56	4313.62
968.785	4352.62
969.011	4303.62
969.236	4361.62
969.462	4283.62
969.687	4248.62
969.912	4276.62
970.138	4289.62
970.363	4250.62
970.588	4251.62
970.813	4178.62
971.038	4153.62
971.263	4195.62
971.488	4175.62
971.713	4129.62
971.938	4156.62
972.163	4057.62
972.388	4037.62
972.613	4029.62
972.838	4042.62
973.062	4029.62
973.287	4008.62
973.512	3967.62
973.736	3969.62
973.961	3954.62
974.185	3902.62
974.41	3904.62
974.634	3779.62
974.858	3810.62
975.083	3847.62
975.307	3835.62
975.531	3780.62
975.755	3676.62
975.98	3743.62
976.204	3639.62
976.428	3621.62
976.652	3601.62
976.876	3620.62
977.1	3600.62
977.324	3595.62
977.547	3637.62
977.771	3601.62
977.995	3579.62
978.219	3475.62
978.442	3639.62
978.666	3510.62
978.89	3528.62
979.113	3542.62
979.337	3507.62
979.56	3464.62
979.783	3505.62
980.007	3446.62
980.23	3439.62
980.453	3391.62
980.677	3433.62
980.9	3395.62
981.123	3311.62
981.346	3412.62
981.569	3365.62
981.792	3339.62
982.015	3329.62
982.238	3254.62
982.461	3259.62
982.684	3243.62
982.907	3208.62
983.129	3186.62
983.352	3213.62
983.575	3137.62
983.797	3166.62
984.02	3116.62
984.242	3100.62
984.465	3095.62
984.687	3106.62
984.91	3132.62
985.132	3071.62
985.354	3103.62
985.577	3060.62
985.799	3046.62
986.021	2963.62
986.243	2957.62
986.465	2971.62
986.687	3019.62
986.909	3059.62
987.131	2977.62
987.353	2952.62
987.575	2968.62
987.797	2939.62
988.019	2848.62
988.241	2876.62
988.462	2852.62
988.684	2936.62
988.906	2941.62
989.127	2961.62
989.349	2813.62
989.57	2837.62
989.792	2875.62
990.013	2897.62
990.234	2899.62
990.456	2889.62
990.677	2841.62
990.898	2789.62
991.119	2727.62
991.341	2814.62
991.562	2773.62
991.783	2755.62
992.004	2678.62
992.225	2672.62
992.446	2711.62
992.667	2586.62
992.887	2693.62
993.108	2572.62
993.329	2690.62
993.55	2650.62
993.77	2556.62
993.991	2578.62
994.212	2577.62
994.432	2539.62
994.653	2577.62
994.873	2566.62
995.093	2461.62
995.314	2449.62
995.534	2546.62
995.754	2552.62
995.975	2549.62
996.195	2418.62
996.415	2510.62
996.635	2475.62
996.855	2435.62
997.075	2406.62
997.295	2429.62
997.515	2394.62
997.735	2413.62
997.955	2433.62
998.174	2437.62
998.394	2389.62
998.614	2410.62
998.834	2361.62
999.053	2414.62
999.273	2360.62
999.492	2439.62
999.712	2372.62
999.931	2311.62
1000.151	2346.62
1000.37	2309.62
1000.589	2383.62
1000.809	2314.62
1001.028	2367.62
1001.247	2307.62
1001.466	2186.62
1001.685	2354.62
1001.904	2260.62
1002.123	2259.62
1002.342	2269.62
1002.561	2180.62
1002.78	2207.62
1002.999	2245.62
1003.218	2222.62
1003.436	2174.62
1003.655	2210.62
1003.874	2157.62
1004.092	2152.62
1004.311	2231.62
1004.53	2168.62
1004.748	2222.62
1004.966	2145.62
1005.185	2192.62
1005.403	2149.62
1005.622	2159.62
1005.84	2213.62
1006.058	2082.62
1006.276	2132.62
1006.494	2647.62
1006.712	2130.62
1006.931	2172.62
1007.149	2068.62
1007.367	2072.62
1007.584	2112.62
1007.802	2147.62
1008.02	2076.62
1008.238	2169.62
1008.456	2186.62
1008.673	2062.62
1008.891	2165.62
1009.109	2153.62
1009.326	2182.62
1009.544	2280.62
1009.761	2193.62
1009.979	2287.62
1010.196	2269.62
1010.413	2383.62
1010.631	2434.62
1010.848	2455.62
1011.065	2490.62
1011.282	2426.62
1011.5	2345.62
1011.717	2474.62
1011.934	2425.62
1012.151	2444.62
1012.368	2372.62
1012.585	2369.62
1012.801	2407.62
1013.018	2339.62
1013.235	2364.62
1013.452	2344.62
1013.669	2358.62
1013.885	2342.62
1014.102	2395.62
1014.318	2330.62
1014.535	2281.62
1014.751	2323.62
1014.968	2298.62
1015.184	2337.62
1015.401	2259.62
1015.617	2297.62
1015.833	2202.62
1016.049	2159.62
1016.266	2188.62
1016.482	2157.62
1016.698	2105.62
1016.914	2102.62
1017.13	2076.62
1017.346	2063.62
1017.562	2113.62
1017.778	2011.62
1017.993	1992.62
1018.209	2081.62
1018.425	2011.62
1018.641	2032.62
1018.856	1992.62
1019.072	2013.62
1019.288	2045.62
1019.503	1996.62
1019.719	1893.62
1019.934	1887.62
1020.149	1987.62
1020.365	1896.62
1020.58	1886.62
1020.795	1886.62
1021.011	1812.62
1021.226	1814.62
1021.441	1802.62
1021.656	1723.62
1021.871	1654.62
1022.086	1647.62
1022.301	1632.62
1022.516	1609.62
1022.731	1685.62
1022.946	1542.62
1023.16	1555.62
1023.375	1525.62
1023.59	1472.62
1023.804	1441.62
1024.019	1531.62
1024.234	1413.62
1024.448	1428.62
1024.663	1370.62
1024.877	1354.62
1025.092	1357.62
1025.306	1356.62
1025.52	1255.62
1025.734	1354.62
1025.949	1238.62
1026.163	1201.62
1026.377	1146.62
1026.591	1193.62
1026.805	1104.62
1027.019	1089.62
1027.233	1050.62
1027.447	991.62
1027.661	1106.62
1027.875	1030.62
1028.088	1027.62
1028.302	934.62
1028.516	949.62
1028.73	928.62
1028.943	905.62
1029.157	849.62
1029.37	812.62
1029.584	-4.38
1029.797	-1.38
1030.011	-2.38
1030.224	0.62
