Data from QEP037381__156__15-49-29-885.txt Node

Date: Fri Dec 16 15:49:29 EST 2022
User: dcclab
Spectrometer: QEP03738
Trigger mode: 4
Integration Time (sec): 1.000000E1
Scans to average: 1
Electric dark correction enabled: true
Nonlinearity correction enabled: false
Boxcar width: 0
XAxis mode: Wavelengths
Number of Pixels in Spectrum: 1044
>>>>>Begin Spectral Data<<<<<
784.041	11.12
784.3	3.12
784.558	-0.88
784.817	-1.88
785.075	110238.12
785.334	19410.12
785.592	9190.12
785.851	6399.12
786.109	4807.12
786.368	3731.12
786.626	3001.12
786.884	2492.12
787.143	2094.12
787.401	1713.12
787.659	1570.12
787.917	1340.12
788.175	1214.12
788.433	1065.12
788.691	949.12
788.949	877.12
789.207	837.12
789.465	736.12
789.723	701.12
789.98	656.12
790.238	687.12
790.496	642.12
790.753	596.12
791.011	665.12
791.268	585.12
791.526	567.12
791.783	594.12
792.041	565.12
792.298	472.12
792.556	561.12
792.813	530.12
793.07	516.12
793.327	492.12
793.584	580.12
793.841	511.12
794.099	520.12
794.356	545.12
794.613	467.12
794.869	524.12
795.126	472.12
795.383	452.12
795.64	473.12
795.897	437.12
796.153	494.12
796.41	467.12
796.667	462.12
796.923	475.12
797.18	478.12
797.436	517.12
797.693	466.12
797.949	511.12
798.206	545.12
798.462	467.12
798.718	537.12
798.974	507.12
799.231	548.12
799.487	560.12
799.743	540.12
799.999	597.12
800.255	596.12
800.511	601.12
800.767	644.12
801.023	646.12
801.279	688.12
801.534	752.12
801.79	829.12
802.046	894.12
802.302	1095.12
802.557	1288.12
802.813	1652.12
803.068	2056.12
803.324	2956.12
803.579	4084.12
803.835	5734.12
804.09	7971.12
804.345	10588.12
804.601	13396.12
804.856	16235.12
805.111	18763.12
805.366	20871.12
805.621	22184.12
805.876	23336.12
806.131	23960.12
806.386	24435.12
806.641	24960.12
806.896	25343.12
807.151	25894.12
807.406	26145.12
807.661	26623.12
807.915	27126.12
808.17	27637.12
808.425	27916.12
808.679	28144.12
808.934	28618.12
809.188	28773.12
809.443	29094.12
809.697	29371.12
809.951	29377.12
810.206	29798.12
810.46	30139.12
810.714	30363.12
810.968	30665.12
811.223	30848.12
811.477	31109.12
811.731	31417.12
811.985	31551.12
812.239	31791.12
812.493	31937.12
812.747	32015.12
813	32077.12
813.254	32188.12
813.508	32440.12
813.762	32408.12
814.015	32619.12
814.269	32917.12
814.522	33278.12
814.776	33552.12
815.03	33958.12
815.283	34488.12
815.536	34984.12
815.79	35591.12
816.043	35961.12
816.296	36525.12
816.55	36990.12
816.803	37370.12
817.056	37871.12
817.309	38139.12
817.562	38386.12
817.815	38844.12
818.068	39229.12
818.321	39587.12
818.574	39980.12
818.827	40620.12
819.079	41162.12
819.332	41887.12
819.585	42233.12
819.838	42656.12
820.09	42880.12
820.343	43322.12
820.595	43564.12
820.848	43903.12
821.1	43908.12
821.353	43992.12
821.605	44011.12
821.857	43948.12
822.11	43861.12
822.362	43574.12
822.614	43575.12
822.866	43610.12
823.118	43665.12
823.37	43641.12
823.622	43726.12
823.874	43910.12
824.126	44066.12
824.378	44032.12
824.63	44136.12
824.882	44303.12
825.134	44265.12
825.385	44251.12
825.637	44125.12
825.888	44138.12
826.14	43931.12
826.392	43748.12
826.643	43672.12
826.895	43350.12
827.146	43202.12
827.397	43359.12
827.649	43232.12
827.9	43048.12
828.151	43321.12
828.402	43406.12
828.653	43390.12
828.905	43429.12
829.156	43409.12
829.407	43516.12
829.658	43621.12
829.909	43514.12
830.159	43530.12
830.41	43323.12
830.661	43074.12
830.912	42653.12
831.162	42625.12
831.413	42506.12
831.664	42562.12
831.914	42447.12
832.165	42375.12
832.415	42311.12
832.666	42360.12
832.916	42469.12
833.167	42328.12
833.417	42174.12
833.667	42008.12
833.917	41998.12
834.168	41799.12
834.418	41682.12
834.668	41599.12
834.918	41312.12
835.168	41320.12
835.418	41182.12
835.668	41070.12
835.918	40832.12
836.167	40845.12
836.417	40779.12
836.667	40642.12
836.917	40693.12
837.166	40498.12
837.416	40605.12
837.666	40353.12
837.915	40406.12
838.165	40212.12
838.414	40168.12
838.663	40070.12
838.913	39872.12
839.162	39774.12
839.411	39796.12
839.661	39634.12
839.91	39465.12
840.159	39416.12
840.408	39408.12
840.657	39421.12
840.906	39309.12
841.155	39494.12
841.404	39361.12
841.653	39275.12
841.902	39287.12
842.15	39387.12
842.399	39560.12
842.648	39342.12
842.897	39108.12
843.145	38903.12
843.394	38594.12
843.642	38669.12
843.891	38315.12
844.139	38191.12
844.388	37931.12
844.636	37760.12
844.884	37675.12
845.133	37791.12
845.381	37551.12
845.629	37493.12
845.877	37472.12
846.125	37356.12
846.373	37338.12
846.621	37216.12
846.869	37092.12
847.117	36806.12
847.365	36713.12
847.613	36543.12
847.861	36416.12
848.108	36375.12
848.356	36244.12
848.604	36214.12
848.851	36088.12
849.099	36195.12
849.346	36323.12
849.594	36361.12
849.841	36494.12
850.089	36531.12
850.336	36547.12
850.583	36440.12
850.831	36099.12
851.078	35965.12
851.325	35889.12
851.572	35886.12
851.819	35546.12
852.066	34980.12
852.313	34553.12
852.56	34435.12
852.807	34205.12
853.054	34177.12
853.301	34009.12
853.548	34034.12
853.794	34104.12
854.041	34235.12
854.288	34412.12
854.534	34707.12
854.781	34699.12
855.028	34419.12
855.274	34328.12
855.52	34164.12
855.767	34014.12
856.013	33909.12
856.26	34070.12
856.506	33581.12
856.752	33535.12
856.998	33592.12
857.244	33495.12
857.49	33785.12
857.736	33815.12
857.982	33706.12
858.228	33747.12
858.474	33470.12
858.72	33269.12
858.966	32910.12
859.212	32776.12
859.458	32314.12
859.703	32003.12
859.949	31671.12
860.195	31475.12
860.44	31313.12
860.686	31181.12
860.931	31276.12
861.177	30810.12
861.422	30914.12
861.667	30754.12
861.913	30667.12
862.158	30777.12
862.403	30718.12
862.648	30847.12
862.893	30854.12
863.138	30836.12
863.384	30781.12
863.629	30707.12
863.873	30678.12
864.118	30602.12
864.363	30398.12
864.608	30350.12
864.853	30256.12
865.098	30010.12
865.342	29862.12
865.587	29743.12
865.832	29663.12
866.076	29672.12
866.321	29452.12
866.565	29440.12
866.81	29266.12
867.054	29148.12
867.298	29131.12
867.543	28956.12
867.787	28939.12
868.031	28786.12
868.275	28770.12
868.519	28720.12
868.764	28607.12
869.008	28591.12
869.252	28539.12
869.496	28425.12
869.739	28257.12
869.983	28225.12
870.227	28171.12
870.471	28137.12
870.715	28172.12
870.958	28161.12
871.202	28218.12
871.446	28262.12
871.689	28143.12
871.933	28246.12
872.176	28244.12
872.42	28099.12
872.663	28019.12
872.906	27950.12
873.15	27802.12
873.393	27698.12
873.636	27555.12
873.879	27302.12
874.122	27027.12
874.366	26690.12
874.609	26535.12
874.852	26316.12
875.095	26209.12
875.337	26103.12
875.58	25878.12
875.823	25880.12
876.066	25864.12
876.309	25691.12
876.551	25468.12
876.794	25380.12
877.037	25368.12
877.279	25275.12
877.522	25382.12
877.764	25402.12
878.007	25358.12
878.249	25304.12
878.491	25095.12
878.734	25126.12
878.976	25057.12
879.218	24912.12
879.46	24828.12
879.702	24702.12
879.945	24478.12
880.187	24273.12
880.429	24057.12
880.671	23903.12
880.912	23934.12
881.154	23750.12
881.396	23740.12
881.638	23769.12
881.88	23695.12
882.121	23631.12
882.363	23511.12
882.605	23523.12
882.846	23459.12
883.088	23448.12
883.329	23150.12
883.571	23195.12
883.812	23257.12
884.053	23391.12
884.295	23705.12
884.536	23857.12
884.777	23775.12
885.018	23537.12
885.259	23439.12
885.5	23351.12
885.742	23577.12
885.982	23213.12
886.223	23058.12
886.464	22967.12
886.705	22852.12
886.946	22732.12
887.187	22377.12
887.428	22330.12
887.668	21972.12
887.909	21705.12
888.15	21564.12
888.39	21416.12
888.631	21321.12
888.871	21126.12
889.111	21052.12
889.352	20958.12
889.592	20651.12
889.833	20453.12
890.073	20362.12
890.313	20357.12
890.553	20015.12
890.793	20004.12
891.033	19957.12
891.273	19836.12
891.513	19765.12
891.753	19845.12
891.993	19757.12
892.233	19711.12
892.473	19813.12
892.713	19803.12
892.952	19669.12
893.192	19681.12
893.432	19638.12
893.671	19638.12
893.911	19463.12
894.15	19390.12
894.39	19199.12
894.629	19070.12
894.869	19080.12
895.108	18863.12
895.347	18658.12
895.587	18755.12
895.826	18639.12
896.065	18579.12
896.304	18632.12
896.543	18578.12
896.782	18484.12
897.021	18472.12
897.26	18246.12
897.499	18347.12
897.738	18297.12
897.977	18106.12
898.216	17987.12
898.454	17829.12
898.693	17672.12
898.932	17713.12
899.17	17486.12
899.409	17452.12
899.647	17456.12
899.886	17439.12
900.124	17318.12
900.363	17250.12
900.601	17342.12
900.839	17302.12
901.078	17271.12
901.316	17295.12
901.554	17392.12
901.792	17348.12
902.03	17353.12
902.268	17337.12
902.506	17255.12
902.744	17172.12
902.982	17173.12
903.22	16793.12
903.458	16723.12
903.695	16529.12
903.933	16342.12
904.171	16117.12
904.409	15923.12
904.646	15665.12
904.884	15476.12
905.121	15315.12
905.359	15153.12
905.596	15041.12
905.833	14861.12
906.071	14897.12
906.308	14841.12
906.545	14721.12
906.783	14670.12
907.02	14643.12
907.257	14640.12
907.494	14610.12
907.731	14540.12
907.968	14548.12
908.205	14327.12
908.442	14340.12
908.679	14256.12
908.915	14116.12
909.152	14087.12
909.389	13820.12
909.626	13739.12
909.862	13570.12
910.099	13690.12
910.335	13641.12
910.572	13433.12
910.808	13462.12
911.045	13362.12
911.281	13284.12
911.518	13405.12
911.754	13197.12
911.99	13172.12
912.226	13008.12
912.463	12945.12
912.699	12849.12
912.935	12689.12
913.171	12626.12
913.407	12483.12
913.643	12451.12
913.879	12351.12
914.114	12190.12
914.35	12039.12
914.586	11941.12
914.822	11835.12
915.057	11805.12
915.293	11651.12
915.529	11570.12
915.764	11655.12
916	11629.12
916.235	11500.12
916.471	11508.12
916.706	11451.12
916.941	11422.12
917.177	11388.12
917.412	11453.12
917.647	11362.12
917.882	11298.12
918.117	11328.12
918.352	11326.12
918.588	11197.12
918.823	11111.12
919.057	11021.12
919.292	10854.12
919.527	10840.12
919.762	10579.12
919.997	10598.12
920.232	10430.12
920.466	10421.12
920.701	10251.12
920.935	10196.12
921.17	10185.12
921.405	10103.12
921.639	10084.12
921.873	9997.12
922.108	10048.12
922.342	9937.12
922.576	9894.12
922.811	9865.12
923.045	9873.12
923.279	9846.12
923.513	9673.12
923.747	9659.12
923.981	9594.12
924.215	9522.12
924.449	9422.12
924.683	9286.12
924.917	9337.12
925.151	9283.12
925.385	9327.12
925.618	9270.12
925.852	9170.12
926.086	9138.12
926.319	9160.12
926.553	9074.12
926.786	9097.12
927.02	9083.12
927.253	9119.12
927.486	9074.12
927.72	9009.12
927.953	9032.12
928.186	8935.12
928.42	8978.12
928.653	8898.12
928.886	8820.12
929.119	8804.12
929.352	8766.12
929.585	8719.12
929.818	8600.12
930.051	8592.12
930.284	8496.12
930.516	8397.12
930.749	8358.12
930.982	8389.12
931.215	8242.12
931.447	8210.12
931.68	8171.12
931.912	8163.12
932.145	8127.12
932.377	8162.12
932.61	8205.12
932.842	8065.12
933.074	8117.12
933.307	8052.12
933.539	8158.12
933.771	8154.12
934.003	8036.12
934.236	8172.12
934.468	8099.12
934.7	7986.12
934.932	7964.12
935.164	7939.12
935.395	7855.12
935.627	7895.12
935.859	7857.12
936.091	7802.12
936.323	7874.12
936.554	7833.12
936.786	7773.12
937.017	7686.12
937.249	7710.12
937.481	7606.12
937.712	7625.12
937.943	7645.12
938.175	7550.12
938.406	7551.12
938.637	7579.12
938.869	7497.12
939.1	7516.12
939.331	7489.12
939.562	7511.12
939.793	7410.12
940.024	7489.12
940.255	7447.12
940.486	7314.12
940.717	7299.12
940.948	7266.12
941.179	7171.12
941.409	7229.12
941.64	7175.12
941.871	7184.12
942.102	7139.12
942.332	7098.12
942.563	7154.12
942.793	7141.12
943.024	7107.12
943.254	7121.12
943.484	7155.12
943.715	7173.12
943.945	7082.12
944.175	7044.12
944.405	6970.12
944.636	7046.12
944.866	7070.12
945.096	6995.12
945.326	6975.12
945.556	6982.12
945.786	6963.12
946.016	6835.12
946.245	6777.12
946.475	6777.12
946.705	6757.12
946.935	6683.12
947.164	6631.12
947.394	6579.12
947.624	6548.12
947.853	6607.12
948.083	6522.12
948.312	6451.12
948.542	6394.12
948.771	6408.12
949	6370.12
949.23	6380.12
949.459	6421.12
949.688	6406.12
949.917	6320.12
950.146	6383.12
950.375	6418.12
950.604	6289.12
950.833	6352.12
951.062	6346.12
951.291	6240.12
951.52	6249.12
951.749	6282.12
951.978	6211.12
952.206	6148.12
952.435	6138.12
952.664	6168.12
952.892	6120.12
953.121	6060.12
953.349	6097.12
953.578	6103.12
953.806	6004.12
954.035	5928.12
954.263	5962.12
954.491	5926.12
954.719	5924.12
954.948	5849.12
955.176	5843.12
955.404	5727.12
955.632	5780.12
955.86	5715.12
956.088	5752.12
956.316	5752.12
956.544	5710.12
956.772	5586.12
956.999	5620.12
957.227	5697.12
957.455	5472.12
957.683	5526.12
957.91	5463.12
958.138	5385.12
958.365	5417.12
958.593	5378.12
958.82	5360.12
959.048	5378.12
959.275	5337.12
959.502	5290.12
959.73	5232.12
959.957	5342.12
960.184	5343.12
960.411	5213.12
960.638	5294.12
960.865	5200.12
961.092	5217.12
961.319	5138.12
961.546	5234.12
961.773	5188.12
962	5217.12
962.227	5210.12
962.454	5120.12
962.68	5115.12
962.907	5118.12
963.134	5025.12
963.36	5082.12
963.587	5057.12
963.813	4958.12
964.04	4977.12
964.266	4894.12
964.493	4936.12
964.719	4871.12
964.945	4872.12
965.171	4728.12
965.398	4778.12
965.624	4812.12
965.85	4684.12
966.076	4731.12
966.302	4707.12
966.528	4677.12
966.754	4668.12
966.98	4672.12
967.206	4649.12
967.431	4568.12
967.657	4608.12
967.883	4679.12
968.109	4595.12
968.334	4521.12
968.56	4473.12
968.785	4538.12
969.011	4452.12
969.236	4480.12
969.462	4439.12
969.687	4439.12
969.912	4473.12
970.138	4430.12
970.363	4425.12
970.588	4394.12
970.813	4300.12
971.038	4328.12
971.263	4322.12
971.488	4342.12
971.713	4280.12
971.938	4308.12
972.163	4198.12
972.388	4199.12
972.613	4211.12
972.838	4187.12
973.062	4146.12
973.287	4099.12
973.512	4057.12
973.736	4115.12
973.961	4038.12
974.185	3990.12
974.41	4041.12
974.634	3953.12
974.858	3937.12
975.083	3940.12
975.307	3948.12
975.531	3863.12
975.755	3834.12
975.98	3828.12
976.204	3745.12
976.428	3718.12
976.652	3724.12
976.876	3691.12
977.1	3751.12
977.324	3674.12
977.547	3743.12
977.771	3732.12
977.995	3687.12
978.219	3610.12
978.442	3722.12
978.666	3654.12
978.89	3655.12
979.113	3612.12
979.337	3571.12
979.56	3537.12
979.783	3645.12
980.007	3520.12
980.23	3571.12
980.453	3498.12
980.677	3531.12
980.9	3502.12
981.123	3397.12
981.346	3461.12
981.569	3444.12
981.792	3450.12
982.015	3381.12
982.238	3346.12
982.461	3372.12
982.684	3316.12
982.907	3289.12
983.129	3272.12
983.352	3321.12
983.575	3268.12
983.797	3272.12
984.02	3191.12
984.242	3202.12
984.465	3185.12
984.687	3229.12
984.91	3233.12
985.132	3191.12
985.354	3184.12
985.577	3152.12
985.799	3103.12
986.021	3068.12
986.243	3050.12
986.465	3065.12
986.687	3134.12
986.909	3120.12
987.131	3035.12
987.353	3034.12
987.575	3063.12
987.797	3048.12
988.019	2958.12
988.241	3001.12
988.462	2924.12
988.684	3016.12
988.906	2990.12
989.127	3016.12
989.349	2897.12
989.57	2937.12
989.792	2963.12
990.013	2978.12
990.234	2966.12
990.456	2978.12
990.677	2927.12
990.898	2868.12
991.119	2844.12
991.341	2876.12
991.562	2793.12
991.783	2840.12
992.004	2758.12
992.225	2725.12
992.446	2750.12
992.667	2689.12
992.887	2758.12
993.108	2599.12
993.329	2771.12
993.55	2716.12
993.77	2641.12
993.991	2628.12
994.212	2640.12
994.432	2612.12
994.653	2603.12
994.873	2607.12
995.093	2475.12
995.314	2514.12
995.534	2610.12
995.754	2592.12
995.975	2611.12
996.195	2501.12
996.415	2573.12
996.635	2486.12
996.855	2562.12
997.075	2481.12
997.295	2468.12
997.515	2474.12
997.735	2519.12
997.955	2500.12
998.174	2465.12
998.394	2408.12
998.614	2472.12
998.834	2423.12
999.053	2496.12
999.273	2463.12
999.492	2492.12
999.712	2422.12
999.931	2358.12
1000.151	2396.12
1000.37	2373.12
1000.589	2435.12
1000.809	2352.12
1001.028	2412.12
1001.247	2367.12
1001.466	2253.12
1001.685	2389.12
1001.904	2314.12
1002.123	2300.12
1002.342	2296.12
1002.561	2246.12
1002.78	2269.12
1002.999	2296.12
1003.218	2230.12
1003.436	2207.12
1003.655	2262.12
1003.874	2197.12
1004.092	2185.12
1004.311	2251.12
1004.53	2167.12
1004.748	2253.12
1004.966	2170.12
1005.185	2238.12
1005.403	2234.12
1005.622	2180.12
1005.84	2270.12
1006.058	2152.12
1006.276	2190.12
1006.494	2674.12
1006.712	2147.12
1006.931	2173.12
1007.149	2115.12
1007.367	2129.12
1007.584	2166.12
1007.802	2197.12
1008.02	2150.12
1008.238	2271.12
1008.456	2209.12
1008.673	2081.12
1008.891	2197.12
1009.109	2167.12
1009.326	2183.12
1009.544	2277.12
1009.761	2184.12
1009.979	2272.12
1010.196	2292.12
1010.413	2391.12
1010.631	2456.12
1010.848	2472.12
1011.065	2540.12
1011.282	2447.12
1011.5	2396.12
1011.717	2471.12
1011.934	2425.12
1012.151	2405.12
1012.368	2397.12
1012.585	2363.12
1012.801	2391.12
1013.018	2355.12
1013.235	2329.12
1013.452	2331.12
1013.669	2352.12
1013.885	2351.12
1014.102	2386.12
1014.318	2305.12
1014.535	2308.12
1014.751	2307.12
1014.968	2285.12
1015.184	2313.12
1015.401	2256.12
1015.617	2256.12
1015.833	2171.12
1016.049	2139.12
1016.266	2132.12
1016.482	2158.12
1016.698	2086.12
1016.914	2112.12
1017.13	2040.12
1017.346	2062.12
1017.562	2095.12
1017.778	2041.12
1017.993	2003.12
1018.209	2045.12
1018.425	2026.12
1018.641	2009.12
1018.856	1965.12
1019.072	1988.12
1019.288	2063.12
1019.503	2022.12
1019.719	1930.12
1019.934	1891.12
1020.149	1997.12
1020.365	1912.12
1020.58	1856.12
1020.795	1890.12
1021.011	1820.12
1021.226	1782.12
1021.441	1843.12
1021.656	1702.12
1021.871	1646.12
1022.086	1643.12
1022.301	1663.12
1022.516	1649.12
1022.731	1630.12
1022.946	1587.12
1023.16	1550.12
1023.375	1528.12
1023.59	1478.12
1023.804	1439.12
1024.019	1549.12
1024.234	1415.12
1024.448	1421.12
1024.663	1325.12
1024.877	1361.12
1025.092	1372.12
1025.306	1374.12
1025.52	1277.12
1025.734	1358.12
1025.949	1251.12
1026.163	1218.12
1026.377	1147.12
1026.591	1205.12
1026.805	1103.12
1027.019	1102.12
1027.233	1057.12
1027.447	1015.12
1027.661	1101.12
1027.875	1043.12
1028.088	1062.12
1028.302	962.12
1028.516	941.12
1028.73	935.12
1028.943	900.12
1029.157	866.12
1029.37	797.12
1029.584	-2.88
1029.797	-2.88
1030.011	-3.88
1030.224	-1.88
