Data from QEP037381__191__15-55-19-889.txt Node

Date: Fri Dec 16 15:55:19 EST 2022
User: dcclab
Spectrometer: QEP03738
Trigger mode: 4
Integration Time (sec): 1.000000E1
Scans to average: 1
Electric dark correction enabled: true
Nonlinearity correction enabled: false
Boxcar width: 0
XAxis mode: Wavelengths
Number of Pixels in Spectrum: 1044
>>>>>Begin Spectral Data<<<<<
784.041	11.12
784.3	-2.88
784.558	-1.88
784.817	0.12
785.075	110806.12
785.334	19576.12
785.592	9272.12
785.851	6462.12
786.109	4864.12
786.368	3794.12
786.626	3058.12
786.884	2489.12
787.143	2127.12
787.401	1734.12
787.659	1577.12
787.917	1361.12
788.175	1224.12
788.433	1073.12
788.691	956.12
788.949	874.12
789.207	827.12
789.465	723.12
789.723	709.12
789.98	634.12
790.238	685.12
790.496	631.12
790.753	583.12
791.011	635.12
791.268	576.12
791.526	560.12
791.783	567.12
792.041	561.12
792.298	489.12
792.556	544.12
792.813	507.12
793.07	486.12
793.327	474.12
793.584	557.12
793.841	479.12
794.099	499.12
794.356	553.12
794.613	451.12
794.869	486.12
795.126	460.12
795.383	435.12
795.64	455.12
795.897	404.12
796.153	482.12
796.41	473.12
796.667	435.12
796.923	433.12
797.18	452.12
797.436	476.12
797.693	432.12
797.949	502.12
798.206	524.12
798.462	435.12
798.718	497.12
798.974	486.12
799.231	516.12
799.487	508.12
799.743	512.12
799.999	552.12
800.255	531.12
800.511	517.12
800.767	578.12
801.023	583.12
801.279	626.12
801.534	655.12
801.79	711.12
802.046	754.12
802.302	918.12
802.557	1040.12
802.813	1308.12
803.068	1619.12
803.324	2282.12
803.579	3080.12
803.835	4311.12
804.09	5944.12
804.345	7844.12
804.601	9870.12
804.856	11998.12
805.111	13851.12
805.366	15441.12
805.621	16477.12
805.876	17149.12
806.131	17630.12
806.386	17942.12
806.641	18297.12
806.896	18547.12
807.151	18920.12
807.406	19195.12
807.661	19559.12
807.915	19899.12
808.17	20109.12
808.425	20376.12
808.679	20516.12
808.934	20818.12
809.188	21022.12
809.443	21219.12
809.697	21402.12
809.951	21629.12
810.206	21696.12
810.46	21997.12
810.714	22050.12
810.968	22290.12
811.223	22468.12
811.477	22672.12
811.731	22894.12
811.985	22979.12
812.239	23146.12
812.493	23203.12
812.747	23310.12
813	23197.12
813.254	23463.12
813.508	23598.12
813.762	23623.12
814.015	23695.12
814.269	23887.12
814.522	24062.12
814.776	24276.12
815.03	24690.12
815.283	25062.12
815.536	25375.12
815.79	25870.12
816.043	26112.12
816.296	26426.12
816.55	26701.12
816.803	27134.12
817.056	27484.12
817.309	27713.12
817.562	27902.12
817.815	28211.12
818.068	28228.12
818.321	28638.12
818.574	28923.12
818.827	29294.12
819.079	29581.12
819.332	30194.12
819.585	30466.12
819.838	30880.12
820.09	30974.12
820.343	31241.12
820.595	31449.12
820.848	31598.12
821.1	31721.12
821.353	31714.12
821.605	31775.12
821.857	31739.12
822.11	31432.12
822.362	31404.12
822.614	31364.12
822.866	31404.12
823.118	31434.12
823.37	31470.12
823.622	31523.12
823.874	31587.12
824.126	31882.12
824.378	31824.12
824.63	31823.12
824.882	31920.12
825.134	31888.12
825.385	31847.12
825.637	31925.12
825.888	31685.12
826.14	31693.12
826.392	31437.12
826.643	31292.12
826.895	31130.12
827.146	31080.12
827.397	30809.12
827.649	31079.12
827.9	31017.12
828.151	30971.12
828.402	31089.12
828.653	31247.12
828.905	31223.12
829.156	31299.12
829.407	31192.12
829.658	31187.12
829.909	31295.12
830.159	31200.12
830.41	31040.12
830.661	30837.12
830.912	30587.12
831.162	30511.12
831.413	30438.12
831.664	30461.12
831.914	30467.12
832.165	30384.12
832.415	30374.12
832.666	30498.12
832.916	30445.12
833.167	30297.12
833.417	30266.12
833.667	30367.12
833.917	30054.12
834.168	30076.12
834.418	29958.12
834.668	29880.12
834.918	29491.12
835.168	29655.12
835.418	29365.12
835.668	29481.12
835.918	29229.12
836.167	29299.12
836.417	29130.12
836.667	29114.12
836.917	29103.12
837.166	29045.12
837.416	29085.12
837.666	28980.12
837.915	28853.12
838.165	28801.12
838.414	28744.12
838.663	28697.12
838.913	28682.12
839.162	28627.12
839.411	28575.12
839.661	28351.12
839.91	28356.12
840.159	28289.12
840.408	28252.12
840.657	28373.12
840.906	28243.12
841.155	28253.12
841.404	28183.12
841.653	28232.12
841.902	28173.12
842.15	28300.12
842.399	28167.12
842.648	28121.12
842.897	28155.12
843.145	27896.12
843.394	27732.12
843.642	27606.12
843.891	27527.12
844.139	27249.12
844.388	27128.12
844.636	27036.12
844.884	26971.12
845.133	26956.12
845.381	26986.12
845.629	27051.12
845.877	26921.12
846.125	26804.12
846.373	26799.12
846.621	26657.12
846.869	26485.12
847.117	26410.12
847.365	26196.12
847.613	26223.12
847.861	26120.12
848.108	26015.12
848.356	25995.12
848.604	25836.12
848.851	25867.12
849.099	25819.12
849.346	25946.12
849.594	26053.12
849.841	26255.12
850.089	26197.12
850.336	26124.12
850.583	26154.12
850.831	25953.12
851.078	25739.12
851.325	25692.12
851.572	25774.12
851.819	25532.12
852.066	25114.12
852.313	24818.12
852.56	24624.12
852.807	24586.12
853.054	24507.12
853.301	24455.12
853.548	24376.12
853.794	24507.12
854.041	24588.12
854.288	24555.12
854.534	24866.12
854.781	24894.12
855.028	24706.12
855.274	24703.12
855.52	24544.12
855.767	24414.12
856.013	24414.12
856.26	24743.12
856.506	24172.12
856.752	24071.12
856.998	24192.12
857.244	24219.12
857.49	24211.12
857.736	24301.12
857.982	24446.12
858.228	24230.12
858.474	24007.12
858.72	23793.12
858.966	23656.12
859.212	23377.12
859.458	23177.12
859.703	22982.12
859.949	22748.12
860.195	22525.12
860.44	22565.12
860.686	22461.12
860.931	22428.12
861.177	22232.12
861.422	22134.12
861.667	22083.12
861.913	22036.12
862.158	22067.12
862.403	22230.12
862.648	22158.12
862.893	22220.12
863.138	22110.12
863.384	22011.12
863.629	22199.12
863.873	22033.12
864.118	22007.12
864.363	21732.12
864.608	21751.12
864.853	21643.12
865.098	21618.12
865.342	21499.12
865.587	21356.12
865.832	21323.12
866.076	21206.12
866.321	21192.12
866.565	21129.12
866.81	21012.12
867.054	20893.12
867.298	20870.12
867.543	20689.12
867.787	20765.12
868.031	20631.12
868.275	20613.12
868.519	20641.12
868.764	20489.12
869.008	20519.12
869.252	20451.12
869.496	20366.12
869.739	20396.12
869.983	20368.12
870.227	20261.12
870.471	20276.12
870.715	20331.12
870.958	20350.12
871.202	20397.12
871.446	20334.12
871.689	20464.12
871.933	20355.12
872.176	20359.12
872.42	20323.12
872.663	20253.12
872.906	20261.12
873.15	20186.12
873.393	20037.12
873.636	20022.12
873.879	19878.12
874.122	19582.12
874.366	19351.12
874.609	19195.12
874.852	19085.12
875.095	18933.12
875.337	18890.12
875.58	18736.12
875.823	18685.12
876.066	18697.12
876.309	18666.12
876.551	18409.12
876.794	18388.12
877.037	18464.12
877.279	18273.12
877.522	18249.12
877.764	18376.12
878.007	18226.12
878.249	18232.12
878.491	18129.12
878.734	18184.12
878.976	18051.12
879.218	17904.12
879.46	17871.12
879.702	17721.12
879.945	17597.12
880.187	17417.12
880.429	17266.12
880.671	17314.12
880.912	17249.12
881.154	17166.12
881.396	16951.12
881.638	17078.12
881.88	17057.12
882.121	16960.12
882.363	16899.12
882.605	16904.12
882.846	16901.12
883.088	16832.12
883.329	16840.12
883.571	16811.12
883.812	16939.12
884.053	17138.12
884.295	17403.12
884.536	17549.12
884.777	17421.12
885.018	17318.12
885.259	17232.12
885.5	17109.12
885.742	17212.12
885.982	17047.12
886.223	16885.12
886.464	16802.12
886.705	16646.12
886.946	16532.12
887.187	16327.12
887.428	16176.12
887.668	15950.12
887.909	15630.12
888.15	15589.12
888.39	15481.12
888.631	15429.12
888.871	15234.12
889.111	15092.12
889.352	15021.12
889.592	14994.12
889.833	14741.12
890.073	14746.12
890.313	14770.12
890.553	14468.12
890.793	14549.12
891.033	14389.12
891.273	14354.12
891.513	14221.12
891.753	14254.12
891.993	14175.12
892.233	14255.12
892.473	14257.12
892.713	14252.12
892.952	14200.12
893.192	14210.12
893.432	14172.12
893.671	14253.12
893.911	14198.12
894.15	14046.12
894.39	13839.12
894.629	13812.12
894.869	13797.12
895.108	13664.12
895.347	13544.12
895.587	13606.12
895.826	13538.12
896.065	13484.12
896.304	13486.12
896.543	13450.12
896.782	13316.12
897.021	13370.12
897.26	13289.12
897.499	13324.12
897.738	13300.12
897.977	13158.12
898.216	13024.12
898.454	12920.12
898.693	12848.12
898.932	12849.12
899.17	12709.12
899.409	12649.12
899.647	12734.12
899.886	12516.12
900.124	12664.12
900.363	12524.12
900.601	12617.12
900.839	12526.12
901.078	12534.12
901.316	12616.12
901.554	12659.12
901.792	12716.12
902.03	12704.12
902.268	12695.12
902.506	12742.12
902.744	12606.12
902.982	12478.12
903.22	12271.12
903.458	12195.12
903.695	12114.12
903.933	11869.12
904.171	11688.12
904.409	11536.12
904.646	11449.12
904.884	11205.12
905.121	11235.12
905.359	11035.12
905.596	10993.12
905.833	10823.12
906.071	10813.12
906.308	10787.12
906.545	10837.12
906.783	10673.12
907.02	10732.12
907.257	10648.12
907.494	10542.12
907.731	10608.12
907.968	10536.12
908.205	10402.12
908.442	10362.12
908.679	10353.12
908.915	10181.12
909.152	10166.12
909.389	10042.12
909.626	9883.12
909.862	9927.12
910.099	9917.12
910.335	9879.12
910.572	9791.12
910.808	9801.12
911.045	9695.12
911.281	9735.12
911.518	9704.12
911.754	9498.12
911.99	9511.12
912.226	9393.12
912.463	9376.12
912.699	9217.12
912.935	9249.12
913.171	9189.12
913.407	9040.12
913.643	9054.12
913.879	8978.12
914.114	8806.12
914.35	8766.12
914.586	8771.12
914.822	8616.12
915.057	8666.12
915.293	8456.12
915.529	8357.12
915.764	8491.12
916	8432.12
916.235	8424.12
916.471	8346.12
916.706	8275.12
916.941	8359.12
917.177	8284.12
917.412	8367.12
917.647	8337.12
917.882	8242.12
918.117	8292.12
918.352	8234.12
918.588	8244.12
918.823	8129.12
919.057	8035.12
919.292	7880.12
919.527	7948.12
919.762	7774.12
919.997	7708.12
920.232	7686.12
920.466	7582.12
920.701	7380.12
920.935	7441.12
921.17	7438.12
921.405	7325.12
921.639	7398.12
921.873	7328.12
922.108	7310.12
922.342	7337.12
922.576	7221.12
922.811	7178.12
923.045	7260.12
923.279	7196.12
923.513	7048.12
923.747	7099.12
923.981	7035.12
924.215	6989.12
924.449	6992.12
924.683	6807.12
924.917	6804.12
925.151	6837.12
925.385	6855.12
925.618	6821.12
925.852	6733.12
926.086	6660.12
926.319	6726.12
926.553	6669.12
926.786	6685.12
927.02	6691.12
927.253	6674.12
927.486	6688.12
927.72	6625.12
927.953	6660.12
928.186	6630.12
928.42	6556.12
928.653	6517.12
928.886	6448.12
929.119	6438.12
929.352	6443.12
929.585	6445.12
929.818	6414.12
930.051	6321.12
930.284	6284.12
930.516	6138.12
930.749	6118.12
930.982	6077.12
931.215	6158.12
931.447	6007.12
931.68	6050.12
931.912	5986.12
932.145	5943.12
932.377	6005.12
932.61	6133.12
932.842	5890.12
933.074	5964.12
933.307	5961.12
933.539	6072.12
933.771	6016.12
934.003	5896.12
934.236	6028.12
934.468	5999.12
934.7	5888.12
934.932	5956.12
935.164	5876.12
935.395	5855.12
935.627	5857.12
935.859	5818.12
936.091	5779.12
936.323	5751.12
936.554	5770.12
936.786	5754.12
937.017	5638.12
937.249	5703.12
937.481	5545.12
937.712	5676.12
937.943	5661.12
938.175	5565.12
938.406	5649.12
938.637	5644.12
938.869	5490.12
939.1	5574.12
939.331	5548.12
939.562	5500.12
939.793	5529.12
940.024	5512.12
940.255	5481.12
940.486	5393.12
940.717	5432.12
940.948	5350.12
941.179	5344.12
941.409	5372.12
941.64	5311.12
941.871	5302.12
942.102	5295.12
942.332	5278.12
942.563	5352.12
942.793	5310.12
943.024	5274.12
943.254	5319.12
943.484	5356.12
943.715	5347.12
943.945	5293.12
944.175	5167.12
944.405	5138.12
944.636	5217.12
944.866	5254.12
945.096	5238.12
945.326	5144.12
945.556	5226.12
945.786	5181.12
946.016	5099.12
946.245	5062.12
946.475	5004.12
946.705	5029.12
946.935	5016.12
947.164	4939.12
947.394	4881.12
947.624	4932.12
947.853	4946.12
948.083	4869.12
948.312	4832.12
948.542	4797.12
948.771	4708.12
949	4771.12
949.23	4762.12
949.459	4774.12
949.688	4828.12
949.917	4704.12
950.146	4790.12
950.375	4799.12
950.604	4676.12
950.833	4759.12
951.062	4785.12
951.291	4641.12
951.52	4668.12
951.749	4670.12
951.978	4603.12
952.206	4596.12
952.435	4616.12
952.664	4614.12
952.892	4589.12
953.121	4521.12
953.349	4584.12
953.578	4550.12
953.806	4484.12
954.035	4495.12
954.263	4475.12
954.491	4396.12
954.719	4415.12
954.948	4372.12
955.176	4361.12
955.404	4268.12
955.632	4296.12
955.86	4353.12
956.088	4280.12
956.316	4318.12
956.544	4328.12
956.772	4211.12
956.999	4128.12
957.227	4273.12
957.455	4163.12
957.683	4162.12
957.91	4111.12
958.138	4065.12
958.365	4036.12
958.593	4053.12
958.82	4010.12
959.048	4078.12
959.275	4011.12
959.502	3975.12
959.73	3926.12
959.957	4013.12
960.184	4021.12
960.411	3920.12
960.638	3987.12
960.865	3979.12
961.092	3953.12
961.319	3862.12
961.546	3961.12
961.773	3957.12
962	3908.12
962.227	3924.12
962.454	3869.12
962.68	3858.12
962.907	3872.12
963.134	3803.12
963.36	3833.12
963.587	3792.12
963.813	3742.12
964.04	3763.12
964.266	3710.12
964.493	3750.12
964.719	3741.12
964.945	3660.12
965.171	3595.12
965.398	3639.12
965.624	3641.12
965.85	3540.12
966.076	3581.12
966.302	3611.12
966.528	3523.12
966.754	3563.12
966.98	3552.12
967.206	3534.12
967.431	3432.12
967.657	3501.12
967.883	3483.12
968.109	3510.12
968.334	3400.12
968.56	3394.12
968.785	3383.12
969.011	3378.12
969.236	3414.12
969.462	3383.12
969.687	3398.12
969.912	3392.12
970.138	3424.12
970.363	3299.12
970.588	3334.12
970.813	3327.12
971.038	3276.12
971.263	3301.12
971.488	3315.12
971.713	3329.12
971.938	3308.12
972.163	3178.12
972.388	3219.12
972.613	3224.12
972.838	3187.12
973.062	3164.12
973.287	3137.12
973.512	3085.12
973.736	3150.12
973.961	3141.12
974.185	3077.12
974.41	3080.12
974.634	2980.12
974.858	2985.12
975.083	3058.12
975.307	3039.12
975.531	2958.12
975.755	2920.12
975.98	2899.12
976.204	2825.12
976.428	2849.12
976.652	2844.12
976.876	2804.12
977.1	2853.12
977.324	2801.12
977.547	2835.12
977.771	2877.12
977.995	2819.12
978.219	2793.12
978.442	2857.12
978.666	2808.12
978.89	2790.12
979.113	2808.12
979.337	2747.12
979.56	2762.12
979.783	2823.12
980.007	2675.12
980.23	2737.12
980.453	2697.12
980.677	2707.12
980.9	2707.12
981.123	2602.12
981.346	2693.12
981.569	2663.12
981.792	2663.12
982.015	2612.12
982.238	2578.12
982.461	2620.12
982.684	2561.12
982.907	2523.12
983.129	2505.12
983.352	2573.12
983.575	2533.12
983.797	2517.12
984.02	2457.12
984.242	2497.12
984.465	2461.12
984.687	2460.12
984.91	2534.12
985.132	2444.12
985.354	2477.12
985.577	2419.12
985.799	2450.12
986.021	2347.12
986.243	2383.12
986.465	2401.12
986.687	2426.12
986.909	2444.12
987.131	2400.12
987.353	2334.12
987.575	2395.12
987.797	2332.12
988.019	2312.12
988.241	2337.12
988.462	2292.12
988.684	2372.12
988.906	2405.12
989.127	2381.12
989.349	2284.12
989.57	2286.12
989.792	2308.12
990.013	2286.12
990.234	2322.12
990.456	2336.12
990.677	2306.12
990.898	2250.12
991.119	2253.12
991.341	2267.12
991.562	2217.12
991.783	2245.12
992.004	2186.12
992.225	2143.12
992.446	2222.12
992.667	2111.12
992.887	2173.12
993.108	2049.12
993.329	2191.12
993.55	2116.12
993.77	2066.12
993.991	2083.12
994.212	2086.12
994.432	2068.12
994.653	2095.12
994.873	2065.12
995.093	1951.12
995.314	2008.12
995.534	2057.12
995.754	2061.12
995.975	2100.12
996.195	1967.12
996.415	2055.12
996.635	2020.12
996.855	2028.12
997.075	1991.12
997.295	2011.12
997.515	1981.12
997.735	2026.12
997.955	1989.12
998.174	1944.12
998.394	1895.12
998.614	1994.12
998.834	1929.12
999.053	2002.12
999.273	1972.12
999.492	2020.12
999.712	1958.12
999.931	1903.12
1000.151	1978.12
1000.37	1905.12
1000.589	1959.12
1000.809	1879.12
1001.028	1985.12
1001.247	1942.12
1001.466	1817.12
1001.685	1948.12
1001.904	1876.12
1002.123	1866.12
1002.342	1853.12
1002.561	1831.12
1002.78	1837.12
1002.999	1926.12
1003.218	1819.12
1003.436	1828.12
1003.655	1865.12
1003.874	1774.12
1004.092	1823.12
1004.311	1841.12
1004.53	1800.12
1004.748	1874.12
1004.966	1764.12
1005.185	1841.12
1005.403	1817.12
1005.622	1799.12
1005.84	1874.12
1006.058	1758.12
1006.276	1804.12
1006.494	2278.12
1006.712	1812.12
1006.931	1860.12
1007.149	1762.12
1007.367	1753.12
1007.584	1812.12
1007.802	1833.12
1008.02	1778.12
1008.238	1864.12
1008.456	1839.12
1008.673	1729.12
1008.891	1839.12
1009.109	1785.12
1009.326	1866.12
1009.544	1925.12
1009.761	1866.12
1009.979	1953.12
1010.196	1959.12
1010.413	2041.12
1010.631	2129.12
1010.848	2166.12
1011.065	2177.12
1011.282	2093.12
1011.5	2039.12
1011.717	2136.12
1011.934	2077.12
1012.151	2116.12
1012.368	2126.12
1012.585	2047.12
1012.801	2065.12
1013.018	2051.12
1013.235	2008.12
1013.452	2061.12
1013.669	2068.12
1013.885	2040.12
1014.102	2054.12
1014.318	2036.12
1014.535	1998.12
1014.751	2024.12
1014.968	2009.12
1015.184	2023.12
1015.401	1915.12
1015.617	1970.12
1015.833	1925.12
1016.049	1927.12
1016.266	1906.12
1016.482	1880.12
1016.698	1818.12
1016.914	1833.12
1017.13	1808.12
1017.346	1800.12
1017.562	1870.12
1017.778	1803.12
1017.993	1780.12
1018.209	1788.12
1018.425	1772.12
1018.641	1759.12
1018.856	1720.12
1019.072	1781.12
1019.288	1804.12
1019.503	1760.12
1019.719	1649.12
1019.934	1665.12
1020.149	1753.12
1020.365	1701.12
1020.58	1601.12
1020.795	1661.12
1021.011	1583.12
1021.226	1549.12
1021.441	1563.12
1021.656	1505.12
1021.871	1424.12
1022.086	1430.12
1022.301	1433.12
1022.516	1386.12
1022.731	1437.12
1022.946	1387.12
1023.16	1346.12
1023.375	1321.12
1023.59	1284.12
1023.804	1257.12
1024.019	1347.12
1024.234	1224.12
1024.448	1239.12
1024.663	1167.12
1024.877	1172.12
1025.092	1181.12
1025.306	1180.12
1025.52	1098.12
1025.734	1178.12
1025.949	1083.12
1026.163	1037.12
1026.377	989.12
1026.591	1037.12
1026.805	966.12
1027.019	951.12
1027.233	928.12
1027.447	854.12
1027.661	938.12
1027.875	903.12
1028.088	890.12
1028.302	835.12
1028.516	804.12
1028.73	802.12
1028.943	804.12
1029.157	734.12
1029.37	704.12
1029.584	-3.88
1029.797	-1.88
1030.011	-1.88
1030.224	1.12
