Data from QEP037381__127__15-44-39-881.txt Node

Date: Fri Dec 16 15:44:39 EST 2022
User: dcclab
Spectrometer: QEP03738
Trigger mode: 4
Integration Time (sec): 1.000000E1
Scans to average: 1
Electric dark correction enabled: true
Nonlinearity correction enabled: false
Boxcar width: 0
XAxis mode: Wavelengths
Number of Pixels in Spectrum: 1044
>>>>>Begin Spectral Data<<<<<
784.041	9.75
784.3	1.75
784.558	-2.25
784.817	-8.25
785.075	111218.75
785.334	19405.75
785.592	9125.75
785.851	6296.75
786.109	4722.75
786.368	3684.75
786.626	2982.75
786.884	2436.75
787.143	2052.75
787.401	1700.75
787.659	1552.75
787.917	1321.75
788.175	1215.75
788.433	1052.75
788.691	951.75
788.949	907.75
789.207	834.75
789.465	727.75
789.723	703.75
789.98	654.75
790.238	678.75
790.496	660.75
790.753	632.75
791.011	648.75
791.268	595.75
791.526	570.75
791.783	583.75
792.041	556.75
792.298	484.75
792.556	561.75
792.813	529.75
793.07	499.75
793.327	496.75
793.584	562.75
793.841	495.75
794.099	531.75
794.356	576.75
794.613	490.75
794.869	510.75
795.126	457.75
795.383	464.75
795.64	485.75
795.897	432.75
796.153	511.75
796.41	473.75
796.667	471.75
796.923	483.75
797.18	478.75
797.436	499.75
797.693	482.75
797.949	521.75
798.206	553.75
798.462	467.75
798.718	529.75
798.974	511.75
799.231	556.75
799.487	549.75
799.743	560.75
799.999	604.75
800.255	605.75
800.511	580.75
800.767	640.75
801.023	644.75
801.279	693.75
801.534	745.75
801.79	829.75
802.046	877.75
802.302	1089.75
802.557	1296.75
802.813	1613.75
803.068	2084.75
803.324	2974.75
803.579	4106.75
803.835	5789.75
804.09	7978.75
804.345	10672.75
804.601	13595.75
804.856	16597.75
805.111	19222.75
805.366	21238.75
805.621	22769.75
805.876	23717.75
806.131	24451.75
806.386	25021.75
806.641	25590.75
806.896	25948.75
807.151	26399.75
807.406	26776.75
807.661	27288.75
807.915	27796.75
808.17	28099.75
808.425	28525.75
808.679	28669.75
808.934	29194.75
809.188	29331.75
809.443	29594.75
809.697	29945.75
809.951	30134.75
810.206	30354.75
810.46	30697.75
810.714	30838.75
810.968	31191.75
811.223	31513.75
811.477	31641.75
811.731	32027.75
811.985	32057.75
812.239	32259.75
812.493	32424.75
812.747	32461.75
813	32624.75
813.254	32843.75
813.508	33055.75
813.762	33050.75
814.015	33184.75
814.269	33485.75
814.522	33586.75
814.776	34046.75
815.03	34597.75
815.283	35018.75
815.536	35617.75
815.79	36245.75
816.043	36551.75
816.296	37159.75
816.55	37525.75
816.803	37843.75
817.056	38400.75
817.309	38603.75
817.562	39011.75
817.815	39563.75
818.068	39764.75
818.321	40183.75
818.574	40659.75
818.827	41217.75
819.079	41612.75
819.332	42265.75
819.585	42889.75
819.838	43246.75
820.09	43542.75
820.343	43944.75
820.595	44124.75
820.848	44332.75
821.1	44466.75
821.353	44504.75
821.605	44355.75
821.857	44400.75
822.11	44305.75
822.362	44112.75
822.614	44030.75
822.866	43969.75
823.118	43835.75
823.37	44105.75
823.622	44162.75
823.874	44098.75
824.126	44474.75
824.378	44464.75
824.63	44421.75
824.882	44643.75
825.134	44604.75
825.385	44663.75
825.637	44511.75
825.888	44397.75
826.14	44278.75
826.392	44110.75
826.643	43700.75
826.895	43719.75
827.146	43518.75
827.397	43396.75
827.649	43328.75
827.9	43386.75
828.151	43443.75
828.402	43364.75
828.653	43527.75
828.905	43641.75
829.156	43637.75
829.407	43745.75
829.658	43581.75
829.909	43588.75
830.159	43461.75
830.41	43325.75
830.661	43042.75
830.912	42744.75
831.162	42484.75
831.413	42502.75
831.664	42481.75
831.914	42393.75
832.165	42331.75
832.415	42294.75
832.666	42316.75
832.916	42377.75
833.167	42263.75
833.417	42249.75
833.667	42147.75
833.917	41989.75
834.168	41893.75
834.418	41720.75
834.668	41440.75
834.918	41329.75
835.168	41317.75
835.418	40869.75
835.668	40699.75
835.918	40746.75
836.167	40565.75
836.417	40404.75
836.667	40489.75
836.917	40330.75
837.166	40441.75
837.416	40295.75
837.666	40206.75
837.915	40331.75
838.165	40114.75
838.414	39902.75
838.663	39822.75
838.913	39884.75
839.162	39529.75
839.411	39529.75
839.661	39248.75
839.91	39110.75
840.159	39130.75
840.408	39102.75
840.657	39029.75
840.906	38970.75
841.155	39185.75
841.404	38951.75
841.653	39051.75
841.902	39024.75
842.15	39068.75
842.399	38830.75
842.648	38991.75
842.897	38851.75
843.145	38601.75
843.394	38253.75
843.642	38047.75
843.891	37790.75
844.139	37755.75
844.388	37532.75
844.636	37225.75
844.884	37257.75
845.133	37209.75
845.381	37085.75
845.629	37200.75
845.877	37169.75
846.125	37012.75
846.373	36906.75
846.621	36710.75
846.869	36727.75
847.117	36402.75
847.365	36244.75
847.613	36007.75
847.861	35866.75
848.108	35813.75
848.356	35739.75
848.604	35594.75
848.851	35473.75
849.099	35637.75
849.346	35545.75
849.594	35844.75
849.841	35867.75
850.089	35933.75
850.336	35893.75
850.583	35857.75
850.831	35613.75
851.078	35444.75
851.325	35213.75
851.572	35334.75
851.819	34897.75
852.066	34463.75
852.313	34070.75
852.56	33797.75
852.807	33513.75
853.054	33502.75
853.301	33466.75
853.548	33396.75
853.794	33575.75
854.041	33681.75
854.288	33771.75
854.534	34148.75
854.781	33786.75
855.028	33849.75
855.274	33779.75
855.52	33577.75
855.767	33289.75
856.013	33280.75
856.26	33530.75
856.506	32873.75
856.752	32970.75
856.998	32970.75
857.244	32921.75
857.49	33099.75
857.736	33078.75
857.982	33000.75
858.228	33053.75
858.474	32757.75
858.72	32467.75
858.966	32137.75
859.212	32014.75
859.458	31625.75
859.703	31419.75
859.949	30955.75
860.195	30726.75
860.44	30663.75
860.686	30440.75
860.931	30389.75
861.177	30273.75
861.422	30103.75
861.667	29905.75
861.913	30019.75
862.158	29940.75
862.403	30087.75
862.648	30101.75
862.893	30208.75
863.138	30229.75
863.384	30015.75
863.629	29980.75
863.873	30088.75
864.118	29866.75
864.363	29635.75
864.608	29525.75
864.853	29488.75
865.098	29288.75
865.342	29088.75
865.587	29080.75
865.832	29066.75
866.076	28816.75
866.321	28704.75
866.565	28835.75
866.81	28509.75
867.054	28542.75
867.298	28437.75
867.543	28267.75
867.787	28173.75
868.031	28063.75
868.275	27962.75
868.519	27934.75
868.764	27953.75
869.008	27846.75
869.252	27858.75
869.496	27522.75
869.739	27551.75
869.983	27540.75
870.227	27429.75
870.471	27435.75
870.715	27497.75
870.958	27614.75
871.202	27533.75
871.446	27596.75
871.689	27577.75
871.933	27531.75
872.176	27551.75
872.42	27449.75
872.663	27335.75
872.906	27164.75
873.15	27070.75
873.393	26962.75
873.636	26807.75
873.879	26778.75
874.122	26359.75
874.366	26146.75
874.609	25814.75
874.852	25622.75
875.095	25581.75
875.337	25401.75
875.58	25265.75
875.823	25088.75
876.066	25154.75
876.309	25087.75
876.551	24890.75
876.794	24793.75
877.037	24752.75
877.279	24675.75
877.522	24566.75
877.764	24745.75
878.007	24674.75
878.249	24537.75
878.491	24440.75
878.734	24501.75
878.976	24375.75
879.218	24283.75
879.46	24125.75
879.702	23991.75
879.945	23854.75
880.187	23485.75
880.429	23415.75
880.671	23226.75
880.912	23271.75
881.154	23120.75
881.396	22971.75
881.638	23029.75
881.88	22878.75
882.121	22888.75
882.363	22777.75
882.605	22794.75
882.846	22771.75
883.088	22786.75
883.329	22553.75
883.571	22666.75
883.812	22646.75
884.053	22762.75
884.295	23125.75
884.536	23360.75
884.777	23079.75
885.018	22984.75
885.259	22930.75
885.5	22714.75
885.742	23143.75
885.982	22696.75
886.223	22558.75
886.464	22346.75
886.705	22219.75
886.946	22118.75
887.187	21873.75
887.428	21585.75
887.668	21324.75
887.909	21102.75
888.15	21006.75
888.39	20839.75
888.631	20712.75
888.871	20511.75
889.111	20346.75
889.352	20162.75
889.592	20061.75
889.833	19753.75
890.073	19757.75
890.313	19592.75
890.553	19556.75
890.793	19372.75
891.033	19300.75
891.273	19224.75
891.513	19226.75
891.753	19153.75
891.993	19058.75
892.233	19251.75
892.473	19165.75
892.713	19148.75
892.952	19076.75
893.192	19179.75
893.432	19103.75
893.671	19119.75
893.911	18860.75
894.15	18761.75
894.39	18682.75
894.629	18572.75
894.869	18439.75
895.108	18344.75
895.347	18172.75
895.587	18174.75
895.826	18057.75
896.065	18080.75
896.304	18109.75
896.543	17873.75
896.782	17802.75
897.021	17869.75
897.26	17809.75
897.499	17802.75
897.738	17696.75
897.977	17552.75
898.216	17405.75
898.454	17299.75
898.693	17148.75
898.932	17183.75
899.17	17022.75
899.409	16972.75
899.647	16776.75
899.886	16713.75
900.124	16872.75
900.363	16759.75
900.601	16753.75
900.839	16830.75
901.078	16821.75
901.316	16820.75
901.554	16864.75
901.792	16967.75
902.03	16887.75
902.268	16876.75
902.506	16848.75
902.744	16798.75
902.982	16592.75
903.22	16372.75
903.458	16191.75
903.695	16081.75
903.933	15918.75
904.171	15598.75
904.409	15449.75
904.646	15274.75
904.884	14979.75
905.121	14811.75
905.359	14690.75
905.596	14600.75
905.833	14465.75
906.071	14304.75
906.308	14345.75
906.545	14360.75
906.783	14271.75
907.02	14196.75
907.257	14126.75
907.494	14153.75
907.731	14093.75
907.968	13996.75
908.205	13861.75
908.442	13736.75
908.679	13676.75
908.915	13643.75
909.152	13452.75
909.389	13328.75
909.626	13243.75
909.862	13220.75
910.099	13119.75
910.335	13091.75
910.572	12929.75
910.808	12881.75
911.045	12911.75
911.281	12850.75
911.518	12891.75
911.754	12758.75
911.99	12684.75
912.226	12584.75
912.463	12421.75
912.699	12315.75
912.935	12273.75
913.171	12145.75
913.407	11980.75
913.643	11971.75
913.879	11873.75
914.114	11723.75
914.35	11633.75
914.586	11488.75
914.822	11369.75
915.057	11479.75
915.293	11205.75
915.529	11198.75
915.764	11221.75
916	11116.75
916.235	11206.75
916.471	11090.75
916.706	11046.75
916.941	11023.75
917.177	11066.75
917.412	11050.75
917.647	10972.75
917.882	10947.75
918.117	10920.75
918.352	10929.75
918.588	10848.75
918.823	10694.75
919.057	10633.75
919.292	10507.75
919.527	10453.75
919.762	10292.75
919.997	10269.75
920.232	10022.75
920.466	10068.75
920.701	9928.75
920.935	9939.75
921.17	9799.75
921.405	9749.75
921.639	9762.75
921.873	9676.75
922.108	9653.75
922.342	9618.75
922.576	9514.75
922.811	9438.75
923.045	9435.75
923.279	9502.75
923.513	9275.75
923.747	9348.75
923.981	9242.75
924.215	9214.75
924.449	9062.75
924.683	9034.75
924.917	8956.75
925.151	8955.75
925.385	8977.75
925.618	8898.75
925.852	8838.75
926.086	8795.75
926.319	8828.75
926.553	8758.75
926.786	8782.75
927.02	8722.75
927.253	8776.75
927.486	8802.75
927.72	8643.75
927.953	8722.75
928.186	8624.75
928.42	8693.75
928.653	8567.75
928.886	8528.75
929.119	8499.75
929.352	8520.75
929.585	8412.75
929.818	8304.75
930.051	8319.75
930.284	8198.75
930.516	7968.75
930.749	8013.75
930.982	8051.75
931.215	8002.75
931.447	7888.75
931.68	7907.75
931.912	7858.75
932.145	7820.75
932.377	7871.75
932.61	7949.75
932.842	7740.75
933.074	7829.75
933.307	7781.75
933.539	7931.75
933.771	7810.75
934.003	7744.75
934.236	7857.75
934.468	7864.75
934.7	7737.75
934.932	7713.75
935.164	7659.75
935.395	7640.75
935.627	7631.75
935.859	7570.75
936.091	7553.75
936.323	7587.75
936.554	7573.75
936.786	7475.75
937.017	7368.75
937.249	7417.75
937.481	7278.75
937.712	7351.75
937.943	7332.75
938.175	7331.75
938.406	7302.75
938.637	7323.75
938.869	7181.75
939.1	7358.75
939.331	7228.75
939.562	7252.75
939.793	7161.75
940.024	7147.75
940.255	7198.75
940.486	7083.75
940.717	7080.75
940.948	6981.75
941.179	6951.75
941.409	6974.75
941.64	6916.75
941.871	6925.75
942.102	6927.75
942.332	6921.75
942.563	6972.75
942.793	6966.75
943.024	6873.75
943.254	6862.75
943.484	6882.75
943.715	6915.75
943.945	6884.75
944.175	6762.75
944.405	6745.75
944.636	6742.75
944.866	6785.75
945.096	6831.75
945.326	6713.75
945.556	6710.75
945.786	6682.75
946.016	6667.75
946.245	6542.75
946.475	6498.75
946.705	6470.75
946.935	6440.75
947.164	6355.75
947.394	6382.75
947.624	6321.75
947.853	6395.75
948.083	6343.75
948.312	6252.75
948.542	6167.75
948.771	6116.75
949	6132.75
949.23	6157.75
949.459	6166.75
949.688	6223.75
949.917	6168.75
950.146	6174.75
950.375	6198.75
950.604	6044.75
950.833	6170.75
951.062	6102.75
951.291	6007.75
951.52	6000.75
951.749	5979.75
951.978	5986.75
952.206	5908.75
952.435	5906.75
952.664	5932.75
952.892	5915.75
953.121	5858.75
953.349	5848.75
953.578	5849.75
953.806	5761.75
954.035	5746.75
954.263	5743.75
954.491	5682.75
954.719	5670.75
954.948	5644.75
955.176	5635.75
955.404	5549.75
955.632	5612.75
955.86	5585.75
956.088	5513.75
956.316	5487.75
956.544	5478.75
956.772	5434.75
956.999	5396.75
957.227	5476.75
957.455	5312.75
957.683	5311.75
957.91	5280.75
958.138	5209.75
958.365	5223.75
958.593	5208.75
958.82	5165.75
959.048	5136.75
959.275	5129.75
959.502	5149.75
959.73	5049.75
959.957	5116.75
960.184	5106.75
960.411	5022.75
960.638	5121.75
960.865	5019.75
961.092	5079.75
961.319	4940.75
961.546	5040.75
961.773	5087.75
962	4997.75
962.227	4994.75
962.454	4971.75
962.68	4895.75
962.907	4890.75
963.134	4892.75
963.36	4848.75
963.587	4846.75
963.813	4746.75
964.04	4815.75
964.266	4665.75
964.493	4737.75
964.719	4748.75
964.945	4705.75
965.171	4547.75
965.398	4593.75
965.624	4657.75
965.85	4537.75
966.076	4555.75
966.302	4508.75
966.528	4536.75
966.754	4504.75
966.98	4489.75
967.206	4457.75
967.431	4384.75
967.657	4475.75
967.883	4401.75
968.109	4397.75
968.334	4324.75
968.56	4317.75
968.785	4352.75
969.011	4307.75
969.236	4361.75
969.462	4253.75
969.687	4284.75
969.912	4324.75
970.138	4355.75
970.363	4235.75
970.588	4257.75
970.813	4175.75
971.038	4098.75
971.263	4168.75
971.488	4161.75
971.713	4150.75
971.938	4138.75
972.163	4043.75
972.388	4053.75
972.613	3981.75
972.838	4082.75
973.062	3990.75
973.287	4019.75
973.512	3897.75
973.736	3916.75
973.961	3895.75
974.185	3885.75
974.41	3884.75
974.634	3775.75
974.858	3828.75
975.083	3820.75
975.307	3823.75
975.531	3771.75
975.755	3686.75
975.98	3638.75
976.204	3595.75
976.428	3564.75
976.652	3591.75
976.876	3557.75
977.1	3596.75
977.324	3548.75
977.547	3606.75
977.771	3573.75
977.995	3568.75
978.219	3473.75
978.442	3581.75
978.666	3572.75
978.89	3524.75
979.113	3507.75
979.337	3444.75
979.56	3392.75
979.783	3491.75
980.007	3417.75
980.23	3447.75
980.453	3382.75
980.677	3434.75
980.9	3372.75
981.123	3254.75
981.346	3353.75
981.569	3332.75
981.792	3351.75
982.015	3273.75
982.238	3227.75
982.461	3269.75
982.684	3233.75
982.907	3174.75
983.129	3204.75
983.352	3180.75
983.575	3209.75
983.797	3172.75
984.02	3110.75
984.242	3116.75
984.465	3103.75
984.687	3053.75
984.91	3137.75
985.132	3061.75
985.354	3074.75
985.577	3049.75
985.799	3009.75
986.021	2966.75
986.243	2932.75
986.465	3009.75
986.687	3007.75
986.909	3024.75
987.131	2981.75
987.353	2919.75
987.575	2896.75
987.797	2860.75
988.019	2851.75
988.241	2911.75
988.462	2822.75
988.684	2884.75
988.906	2872.75
989.127	2922.75
989.349	2800.75
989.57	2843.75
989.792	2849.75
990.013	2862.75
990.234	2864.75
990.456	2844.75
990.677	2827.75
990.898	2775.75
991.119	2753.75
991.341	2759.75
991.562	2691.75
991.783	2746.75
992.004	2668.75
992.225	2642.75
992.446	2710.75
992.667	2606.75
992.887	2684.75
993.108	2567.75
993.329	2632.75
993.55	2647.75
993.77	2517.75
993.991	2553.75
994.212	2588.75
994.432	2550.75
994.653	2543.75
994.873	2511.75
995.093	2414.75
995.314	2438.75
995.534	2529.75
995.754	2527.75
995.975	2509.75
996.195	2405.75
996.415	2469.75
996.635	2454.75
996.855	2440.75
997.075	2409.75
997.295	2434.75
997.515	2395.75
997.735	2427.75
997.955	2388.75
998.174	2376.75
998.394	2334.75
998.614	2405.75
998.834	2374.75
999.053	2420.75
999.273	2344.75
999.492	2411.75
999.712	2355.75
999.931	2284.75
1000.151	2381.75
1000.37	2290.75
1000.589	2363.75
1000.809	2276.75
1001.028	2366.75
1001.247	2326.75
1001.466	2159.75
1001.685	2329.75
1001.904	2273.75
1002.123	2283.75
1002.342	2208.75
1002.561	2162.75
1002.78	2175.75
1002.999	2223.75
1003.218	2224.75
1003.436	2133.75
1003.655	2199.75
1003.874	2142.75
1004.092	2177.75
1004.311	2192.75
1004.53	2125.75
1004.748	2209.75
1004.966	2102.75
1005.185	2187.75
1005.403	2149.75
1005.622	2117.75
1005.84	2205.75
1006.058	2081.75
1006.276	2117.75
1006.494	2587.75
1006.712	2097.75
1006.931	2184.75
1007.149	2080.75
1007.367	2090.75
1007.584	2114.75
1007.802	2131.75
1008.02	2104.75
1008.238	2192.75
1008.456	2184.75
1008.673	2074.75
1008.891	2150.75
1009.109	2095.75
1009.326	2153.75
1009.544	2227.75
1009.761	2158.75
1009.979	2263.75
1010.196	2272.75
1010.413	2372.75
1010.631	2434.75
1010.848	2471.75
1011.065	2513.75
1011.282	2439.75
1011.5	2383.75
1011.717	2492.75
1011.934	2420.75
1012.151	2398.75
1012.368	2416.75
1012.585	2348.75
1012.801	2400.75
1013.018	2341.75
1013.235	2327.75
1013.452	2369.75
1013.669	2370.75
1013.885	2313.75
1014.102	2384.75
1014.318	2348.75
1014.535	2330.75
1014.751	2335.75
1014.968	2318.75
1015.184	2365.75
1015.401	2254.75
1015.617	2285.75
1015.833	2248.75
1016.049	2223.75
1016.266	2201.75
1016.482	2187.75
1016.698	2107.75
1016.914	2160.75
1017.13	2075.75
1017.346	2092.75
1017.562	2127.75
1017.778	2060.75
1017.993	2020.75
1018.209	2115.75
1018.425	2081.75
1018.641	2015.75
1018.856	2018.75
1019.072	2044.75
1019.288	2048.75
1019.503	2039.75
1019.719	1921.75
1019.934	1939.75
1020.149	1998.75
1020.365	1955.75
1020.58	1876.75
1020.795	1934.75
1021.011	1875.75
1021.226	1811.75
1021.441	1830.75
1021.656	1742.75
1021.871	1678.75
1022.086	1656.75
1022.301	1657.75
1022.516	1632.75
1022.731	1659.75
1022.946	1580.75
1023.16	1540.75
1023.375	1558.75
1023.59	1510.75
1023.804	1439.75
1024.019	1549.75
1024.234	1417.75
1024.448	1430.75
1024.663	1353.75
1024.877	1355.75
1025.092	1341.75
1025.306	1360.75
1025.52	1262.75
1025.734	1336.75
1025.949	1249.75
1026.163	1219.75
1026.377	1153.75
1026.591	1201.75
1026.805	1132.75
1027.019	1110.75
1027.233	1068.75
1027.447	988.75
1027.661	1093.75
1027.875	1032.75
1028.088	1039.75
1028.302	963.75
1028.516	938.75
1028.73	926.75
1028.943	921.75
1029.157	847.75
1029.37	815.75
1029.584	0.75
1029.797	-0.25
1030.011	-1.25
1030.224	-0.25
