Data from QEP037381__235__16-02-39-896.txt Node

Date: Fri Dec 16 16:02:39 EST 2022
User: dcclab
Spectrometer: QEP03738
Trigger mode: 4
Integration Time (sec): 1.000000E1
Scans to average: 1
Electric dark correction enabled: true
Nonlinearity correction enabled: false
Boxcar width: 0
XAxis mode: Wavelengths
Number of Pixels in Spectrum: 1044
>>>>>Begin Spectral Data<<<<<
784.041	11.88
784.3	1.88
784.558	-0.12
784.817	-5.12
785.075	118204.88
785.334	19973.88
785.592	9251.88
785.851	6428.88
786.109	4753.88
786.368	3717.88
786.626	2993.88
786.884	2436.88
787.143	2095.88
787.401	1716.88
787.659	1571.88
787.917	1296.88
788.175	1195.88
788.433	1047.88
788.691	947.88
788.949	874.88
789.207	819.88
789.465	720.88
789.723	688.88
789.98	641.88
790.238	670.88
790.496	654.88
790.753	610.88
791.011	655.88
791.268	594.88
791.526	566.88
791.783	577.88
792.041	559.88
792.298	469.88
792.556	546.88
792.813	518.88
793.07	507.88
793.327	485.88
793.584	576.88
793.841	485.88
794.099	502.88
794.356	565.88
794.613	459.88
794.869	514.88
795.126	460.88
795.383	450.88
795.64	476.88
795.897	416.88
796.153	486.88
796.41	482.88
796.667	464.88
796.923	466.88
797.18	474.88
797.436	497.88
797.693	450.88
797.949	515.88
798.206	542.88
798.462	458.88
798.718	532.88
798.974	506.88
799.231	548.88
799.487	535.88
799.743	562.88
799.999	592.88
800.255	580.88
800.511	591.88
800.767	641.88
801.023	626.88
801.279	694.88
801.534	741.88
801.79	820.88
802.046	867.88
802.302	1062.88
802.557	1243.88
802.813	1599.88
803.068	2067.88
803.324	2896.88
803.579	4106.88
803.835	5744.88
804.09	7996.88
804.345	10546.88
804.601	13338.88
804.856	16155.88
805.111	18627.88
805.366	20431.88
805.621	21711.88
805.876	22675.88
806.131	23347.88
806.386	23795.88
806.641	24152.88
806.896	24455.88
807.151	25118.88
807.406	25352.88
807.661	25807.88
807.915	26318.88
808.17	26675.88
808.425	26988.88
808.679	27199.88
808.934	27711.88
809.188	27931.88
809.443	28218.88
809.697	28505.88
809.951	28696.88
810.206	28923.88
810.46	29163.88
810.714	29493.88
810.968	29765.88
811.223	29884.88
811.477	30045.88
811.731	30491.88
811.985	30617.88
812.239	30709.88
812.493	30757.88
812.747	30922.88
813	31096.88
813.254	31171.88
813.508	31296.88
813.762	31462.88
814.015	31433.88
814.269	31835.88
814.522	32018.88
814.776	32423.88
815.03	32882.88
815.283	33232.88
815.536	33776.88
815.79	34374.88
816.043	34836.88
816.296	35316.88
816.55	35619.88
816.803	36035.88
817.056	36546.88
817.309	36844.88
817.562	37084.88
817.815	37632.88
818.068	37684.88
818.321	38272.88
818.574	38673.88
818.827	39188.88
819.079	39613.88
819.332	40466.88
819.585	40828.88
819.838	41311.88
820.09	41595.88
820.343	41869.88
820.595	42077.88
820.848	42379.88
821.1	42403.88
821.353	42534.88
821.605	42378.88
821.857	42446.88
822.11	42313.88
822.362	42175.88
822.614	41936.88
822.866	42075.88
823.118	42185.88
823.37	42127.88
823.622	42214.88
823.874	42471.88
824.126	42516.88
824.378	42695.88
824.63	42806.88
824.882	42755.88
825.134	42779.88
825.385	42709.88
825.637	42573.88
825.888	42402.88
826.14	42326.88
826.392	42323.88
826.643	41964.88
826.895	41755.88
827.146	41751.88
827.397	41489.88
827.649	41555.88
827.9	41655.88
828.151	41630.88
828.402	41713.88
828.653	41835.88
828.905	41757.88
829.156	41887.88
829.407	41770.88
829.658	41795.88
829.909	41776.88
830.159	41663.88
830.41	41581.88
830.661	41203.88
830.912	40903.88
831.162	40822.88
831.413	40690.88
831.664	40742.88
831.914	40654.88
832.165	40553.88
832.415	40517.88
832.666	40620.88
832.916	40547.88
833.167	40458.88
833.417	40546.88
833.667	40309.88
833.917	40226.88
834.168	40051.88
834.418	39957.88
834.668	39861.88
834.918	39558.88
835.168	39348.88
835.418	39260.88
835.668	39208.88
835.918	39112.88
836.167	39014.88
836.417	38987.88
836.667	38789.88
836.917	38730.88
837.166	38630.88
837.416	38610.88
837.666	38499.88
837.915	38484.88
838.165	38434.88
838.414	38314.88
838.663	38086.88
838.913	38076.88
839.162	38088.88
839.411	37951.88
839.661	37511.88
839.91	37662.88
840.159	37597.88
840.408	37573.88
840.657	37538.88
840.906	37563.88
841.155	37451.88
841.404	37313.88
841.653	37387.88
841.902	37347.88
842.15	37547.88
842.399	37324.88
842.648	37330.88
842.897	37300.88
843.145	36892.88
843.394	36809.88
843.642	36616.88
843.891	36409.88
844.139	36167.88
844.388	35954.88
844.636	35593.88
844.884	35728.88
845.133	35641.88
845.381	35564.88
845.629	35705.88
845.877	35686.88
846.125	35538.88
846.373	35474.88
846.621	35338.88
846.869	35180.88
847.117	34955.88
847.365	34793.88
847.613	34510.88
847.861	34374.88
848.108	34516.88
848.356	34351.88
848.604	34195.88
848.851	34102.88
849.099	34244.88
849.346	34384.88
849.594	34417.88
849.841	34629.88
850.089	34587.88
850.336	34494.88
850.583	34594.88
850.831	34298.88
851.078	34053.88
851.325	33958.88
851.572	34022.88
851.819	33651.88
852.066	33191.88
852.313	32699.88
852.56	32576.88
852.807	32505.88
853.054	32183.88
853.301	32180.88
853.548	32126.88
853.794	32335.88
854.041	32444.88
854.288	32549.88
854.534	32689.88
854.781	32649.88
855.028	32538.88
855.274	32596.88
855.52	32316.88
855.767	32063.88
856.013	32067.88
856.26	32206.88
856.506	31644.88
856.752	31639.88
856.998	31729.88
857.244	31751.88
857.49	31830.88
857.736	31876.88
857.982	31853.88
858.228	31778.88
858.474	31604.88
858.72	31344.88
858.966	31081.88
859.212	30897.88
859.458	30497.88
859.703	30260.88
859.949	29834.88
860.195	29664.88
860.44	29505.88
860.686	29383.88
860.931	29288.88
861.177	29186.88
861.422	29083.88
861.667	28986.88
861.913	28885.88
862.158	28983.88
862.403	29118.88
862.648	29119.88
862.893	29115.88
863.138	29116.88
863.384	29050.88
863.629	28948.88
863.873	28989.88
864.118	28809.88
864.363	28764.88
864.608	28585.88
864.853	28397.88
865.098	28269.88
865.342	28161.88
865.587	28072.88
865.832	28045.88
866.076	27907.88
866.321	27743.88
866.565	27652.88
866.81	27418.88
867.054	27396.88
867.298	27340.88
867.543	27237.88
867.787	27239.88
868.031	27167.88
868.275	27101.88
868.519	27072.88
868.764	26918.88
869.008	26834.88
869.252	26893.88
869.496	26772.88
869.739	26699.88
869.983	26639.88
870.227	26485.88
870.471	26412.88
870.715	26531.88
870.958	26532.88
871.202	26493.88
871.446	26552.88
871.689	26524.88
871.933	26594.88
872.176	26523.88
872.42	26427.88
872.663	26367.88
872.906	26348.88
873.15	26254.88
873.393	26044.88
873.636	26003.88
873.879	25682.88
874.122	25504.88
874.366	25084.88
874.609	24983.88
874.852	24783.88
875.095	24710.88
875.337	24563.88
875.58	24347.88
875.823	24332.88
876.066	24337.88
876.309	24292.88
876.551	23923.88
876.794	23853.88
877.037	23876.88
877.279	23704.88
877.522	23935.88
877.764	23880.88
878.007	23773.88
878.249	23781.88
878.491	23724.88
878.734	23656.88
878.976	23508.88
879.218	23499.88
879.46	23278.88
879.702	23148.88
879.945	22874.88
880.187	22771.88
880.429	22625.88
880.671	22457.88
880.912	22365.88
881.154	22239.88
881.396	22184.88
881.638	22208.88
881.88	22232.88
882.121	22113.88
882.363	22042.88
882.605	22088.88
882.846	22022.88
883.088	21925.88
883.329	21819.88
883.571	21796.88
883.812	21865.88
884.053	22036.88
884.295	22283.88
884.536	22417.88
884.777	22443.88
885.018	22139.88
885.259	22130.88
885.5	21905.88
885.742	22119.88
885.982	21890.88
886.223	21689.88
886.464	21667.88
886.705	21493.88
886.946	21385.88
887.187	21065.88
887.428	20956.88
887.668	20527.88
887.909	20403.88
888.15	20225.88
888.39	20205.88
888.631	19980.88
888.871	19809.88
889.111	19601.88
889.352	19512.88
889.592	19439.88
889.833	19245.88
890.073	19123.88
890.313	19005.88
890.553	18839.88
890.793	18731.88
891.033	18791.88
891.273	18590.88
891.513	18528.88
891.753	18445.88
891.993	18405.88
892.233	18439.88
892.473	18522.88
892.713	18514.88
892.952	18470.88
893.192	18567.88
893.432	18326.88
893.671	18389.88
893.911	18306.88
894.15	18178.88
894.39	17954.88
894.629	17887.88
894.869	17871.88
895.108	17645.88
895.347	17466.88
895.587	17547.88
895.826	17444.88
896.065	17375.88
896.304	17373.88
896.543	17365.88
896.782	17268.88
897.021	17199.88
897.26	17114.88
897.499	17156.88
897.738	17040.88
897.977	16964.88
898.216	16827.88
898.454	16621.88
898.693	16531.88
898.932	16508.88
899.17	16331.88
899.409	16332.88
899.647	16340.88
899.886	16212.88
900.124	16240.88
900.363	16217.88
900.601	16127.88
900.839	16155.88
901.078	16167.88
901.316	16160.88
901.554	16256.88
901.792	16253.88
902.03	16199.88
902.268	16197.88
902.506	16166.88
902.744	16150.88
902.982	15986.88
903.22	15850.88
903.458	15553.88
903.695	15476.88
903.933	15338.88
904.171	14972.88
904.409	14838.88
904.646	14692.88
904.884	14379.88
905.121	14413.88
905.359	14120.88
905.596	13997.88
905.833	13867.88
906.071	13798.88
906.308	13831.88
906.545	13852.88
906.783	13735.88
907.02	13656.88
907.257	13540.88
907.494	13670.88
907.731	13541.88
907.968	13520.88
908.205	13399.88
908.442	13320.88
908.679	13255.88
908.915	13148.88
909.152	13039.88
909.389	12838.88
909.626	12824.88
909.862	12721.88
910.099	12698.88
910.335	12699.88
910.572	12549.88
910.808	12525.88
911.045	12481.88
911.281	12397.88
911.518	12469.88
911.754	12330.88
911.99	12244.88
912.226	12084.88
912.463	12019.88
912.699	11901.88
912.935	11809.88
913.171	11639.88
913.407	11615.88
913.643	11583.88
913.879	11385.88
914.114	11343.88
914.35	11218.88
914.586	11146.88
914.822	10956.88
915.057	11017.88
915.293	10765.88
915.529	10769.88
915.764	10832.88
916	10709.88
916.235	10670.88
916.471	10695.88
916.706	10666.88
916.941	10634.88
917.177	10617.88
917.412	10674.88
917.647	10614.88
917.882	10525.88
918.117	10490.88
918.352	10486.88
918.588	10487.88
918.823	10370.88
919.057	10271.88
919.292	10044.88
919.527	10081.88
919.762	9988.88
919.997	9869.88
920.232	9701.88
920.466	9638.88
920.701	9475.88
920.935	9501.88
921.17	9403.88
921.405	9367.88
921.639	9369.88
921.873	9252.88
922.108	9288.88
922.342	9252.88
922.576	9208.88
922.811	9067.88
923.045	9120.88
923.279	9115.88
923.513	8929.88
923.747	8989.88
923.981	8920.88
924.215	8874.88
924.449	8784.88
924.683	8703.88
924.917	8721.88
925.151	8688.88
925.385	8679.88
925.618	8593.88
925.852	8536.88
926.086	8485.88
926.319	8537.88
926.553	8454.88
926.786	8508.88
927.02	8508.88
927.253	8446.88
927.486	8445.88
927.72	8427.88
927.953	8381.88
928.186	8327.88
928.42	8320.88
928.653	8300.88
928.886	8191.88
929.119	8236.88
929.352	8159.88
929.585	8098.88
929.818	8023.88
930.051	7899.88
930.284	7909.88
930.516	7777.88
930.749	7756.88
930.982	7764.88
931.215	7728.88
931.447	7577.88
931.68	7616.88
931.912	7539.88
932.145	7580.88
932.377	7571.88
932.61	7696.88
932.842	7508.88
933.074	7514.88
933.307	7531.88
933.539	7626.88
933.771	7559.88
934.003	7502.88
934.236	7589.88
934.468	7517.88
934.7	7494.88
934.932	7493.88
935.164	7367.88
935.395	7337.88
935.627	7329.88
935.859	7335.88
936.091	7205.88
936.323	7236.88
936.554	7259.88
936.786	7185.88
937.017	7124.88
937.249	7101.88
937.481	7070.88
937.712	7126.88
937.943	7123.88
938.175	7064.88
938.406	7019.88
938.637	7089.88
938.869	6938.88
939.1	7013.88
939.331	6983.88
939.562	6919.88
939.793	6945.88
940.024	6963.88
940.255	6905.88
940.486	6869.88
940.717	6814.88
940.948	6771.88
941.179	6669.88
941.409	6714.88
941.64	6684.88
941.871	6742.88
942.102	6699.88
942.332	6636.88
942.563	6707.88
942.793	6659.88
943.024	6609.88
943.254	6653.88
943.484	6685.88
943.715	6681.88
943.945	6661.88
944.175	6560.88
944.405	6510.88
944.636	6567.88
944.866	6575.88
945.096	6539.88
945.326	6450.88
945.556	6549.88
945.786	6488.88
946.016	6428.88
946.245	6302.88
946.475	6289.88
946.705	6268.88
946.935	6253.88
947.164	6252.88
947.394	6121.88
947.624	6152.88
947.853	6123.88
948.083	6061.88
948.312	6006.88
948.542	6024.88
948.771	5943.88
949	5991.88
949.23	5965.88
949.459	5941.88
949.688	5988.88
949.917	5982.88
950.146	5973.88
950.375	6015.88
950.604	5890.88
950.833	5986.88
951.062	5874.88
951.291	5884.88
951.52	5821.88
951.749	5827.88
951.978	5783.88
952.206	5759.88
952.435	5747.88
952.664	5787.88
952.892	5772.88
953.121	5724.88
953.349	5707.88
953.578	5666.88
953.806	5560.88
954.035	5552.88
954.263	5536.88
954.491	5466.88
954.719	5559.88
954.948	5462.88
955.176	5475.88
955.404	5374.88
955.632	5362.88
955.86	5387.88
956.088	5349.88
956.316	5371.88
956.544	5364.88
956.772	5243.88
956.999	5210.88
957.227	5244.88
957.455	5179.88
957.683	5130.88
957.91	5074.88
958.138	5095.88
958.365	5033.88
958.593	5035.88
958.82	4963.88
959.048	5043.88
959.275	4975.88
959.502	4981.88
959.73	4965.88
959.957	4938.88
960.184	4975.88
960.411	4888.88
960.638	4989.88
960.865	4829.88
961.092	4899.88
961.319	4817.88
961.546	4889.88
961.773	4896.88
962	4835.88
962.227	4917.88
962.454	4818.88
962.68	4738.88
962.907	4836.88
963.134	4692.88
963.36	4699.88
963.587	4721.88
963.813	4587.88
964.04	4641.88
964.266	4557.88
964.493	4618.88
964.719	4584.88
964.945	4553.88
965.171	4419.88
965.398	4518.88
965.624	4431.88
965.85	4402.88
966.076	4404.88
966.302	4381.88
966.528	4335.88
966.754	4369.88
966.98	4387.88
967.206	4356.88
967.431	4244.88
967.657	4305.88
967.883	4332.88
968.109	4300.88
968.334	4237.88
968.56	4244.88
968.785	4218.88
969.011	4157.88
969.236	4195.88
969.462	4138.88
969.687	4161.88
969.912	4174.88
970.138	4212.88
970.363	4128.88
970.588	4102.88
970.813	4057.88
971.038	4051.88
971.263	4067.88
971.488	4061.88
971.713	4062.88
971.938	4042.88
972.163	3917.88
972.388	3930.88
972.613	3935.88
972.838	3936.88
973.062	3881.88
973.287	3868.88
973.512	3819.88
973.736	3849.88
973.961	3833.88
974.185	3785.88
974.41	3783.88
974.634	3653.88
974.858	3711.88
975.083	3716.88
975.307	3681.88
975.531	3647.88
975.755	3608.88
975.98	3622.88
976.204	3511.88
976.428	3492.88
976.652	3500.88
976.876	3480.88
977.1	3498.88
977.324	3449.88
977.547	3492.88
977.771	3494.88
977.995	3461.88
978.219	3358.88
978.442	3542.88
978.666	3444.88
978.89	3432.88
979.113	3391.88
979.337	3387.88
979.56	3316.88
979.783	3415.88
980.007	3292.88
980.23	3331.88
980.453	3295.88
980.677	3324.88
980.9	3303.88
981.123	3179.88
981.346	3268.88
981.569	3247.88
981.792	3279.88
982.015	3213.88
982.238	3149.88
982.461	3163.88
982.684	3129.88
982.907	3069.88
983.129	3059.88
983.352	3148.88
983.575	3100.88
983.797	3069.88
984.02	3018.88
984.242	3025.88
984.465	2983.88
984.687	3020.88
984.91	3047.88
985.132	2990.88
985.354	3008.88
985.577	2976.88
985.799	2935.88
986.021	2864.88
986.243	2899.88
986.465	2917.88
986.687	2915.88
986.909	2961.88
987.131	2876.88
987.353	2849.88
987.575	2909.88
987.797	2835.88
988.019	2763.88
988.241	2808.88
988.462	2773.88
988.684	2809.88
988.906	2831.88
989.127	2833.88
989.349	2733.88
989.57	2775.88
989.792	2785.88
990.013	2759.88
990.234	2759.88
990.456	2823.88
990.677	2739.88
990.898	2732.88
991.119	2711.88
991.341	2675.88
991.562	2635.88
991.783	2715.88
992.004	2606.88
992.225	2598.88
992.446	2646.88
992.667	2503.88
992.887	2573.88
993.108	2477.88
993.329	2569.88
993.55	2559.88
993.77	2477.88
993.991	2467.88
994.212	2496.88
994.432	2508.88
994.653	2510.88
994.873	2483.88
995.093	2344.88
995.314	2384.88
995.534	2479.88
995.754	2474.88
995.975	2488.88
996.195	2384.88
996.415	2443.88
996.635	2370.88
996.855	2396.88
997.075	2373.88
997.295	2352.88
997.515	2349.88
997.735	2367.88
997.955	2339.88
998.174	2368.88
998.394	2321.88
998.614	2335.88
998.834	2280.88
999.053	2343.88
999.273	2299.88
999.492	2398.88
999.712	2262.88
999.931	2274.88
1000.151	2316.88
1000.37	2259.88
1000.589	2337.88
1000.809	2255.88
1001.028	2337.88
1001.247	2287.88
1001.466	2144.88
1001.685	2266.88
1001.904	2212.88
1002.123	2174.88
1002.342	2175.88
1002.561	2119.88
1002.78	2135.88
1002.999	2224.88
1003.218	2114.88
1003.436	2104.88
1003.655	2162.88
1003.874	2084.88
1004.092	2071.88
1004.311	2119.88
1004.53	2094.88
1004.748	2154.88
1004.966	2052.88
1005.185	2145.88
1005.403	2129.88
1005.622	2092.88
1005.84	2167.88
1006.058	2027.88
1006.276	2095.88
1006.494	2592.88
1006.712	2053.88
1006.931	2110.88
1007.149	2011.88
1007.367	2033.88
1007.584	2071.88
1007.802	2068.88
1008.02	2071.88
1008.238	2133.88
1008.456	2105.88
1008.673	2003.88
1008.891	2092.88
1009.109	2075.88
1009.326	2092.88
1009.544	2211.88
1009.761	2101.88
1009.979	2212.88
1010.196	2200.88
1010.413	2327.88
1010.631	2357.88
1010.848	2450.88
1011.065	2446.88
1011.282	2388.88
1011.5	2328.88
1011.717	2438.88
1011.934	2344.88
1012.151	2385.88
1012.368	2363.88
1012.585	2313.88
1012.801	2356.88
1013.018	2320.88
1013.235	2264.88
1013.452	2296.88
1013.669	2307.88
1013.885	2275.88
1014.102	2335.88
1014.318	2308.88
1014.535	2274.88
1014.751	2299.88
1014.968	2311.88
1015.184	2316.88
1015.401	2198.88
1015.617	2195.88
1015.833	2175.88
1016.049	2169.88
1016.266	2126.88
1016.482	2133.88
1016.698	2032.88
1016.914	2080.88
1017.13	2022.88
1017.346	2034.88
1017.562	2086.88
1017.778	1996.88
1017.993	1976.88
1018.209	2031.88
1018.425	2010.88
1018.641	1950.88
1018.856	1934.88
1019.072	1977.88
1019.288	2019.88
1019.503	1961.88
1019.719	1889.88
1019.934	1896.88
1020.149	1964.88
1020.365	1914.88
1020.58	1821.88
1020.795	1851.88
1021.011	1790.88
1021.226	1767.88
1021.441	1759.88
1021.656	1648.88
1021.871	1627.88
1022.086	1631.88
1022.301	1569.88
1022.516	1568.88
1022.731	1635.88
1022.946	1539.88
1023.16	1501.88
1023.375	1474.88
1023.59	1428.88
1023.804	1392.88
1024.019	1505.88
1024.234	1367.88
1024.448	1408.88
1024.663	1321.88
1024.877	1304.88
1025.092	1325.88
1025.306	1328.88
1025.52	1233.88
1025.734	1332.88
1025.949	1198.88
1026.163	1163.88
1026.377	1071.88
1026.591	1156.88
1026.805	1055.88
1027.019	1048.88
1027.233	1028.88
1027.447	965.88
1027.661	1054.88
1027.875	1006.88
1028.088	986.88
1028.302	936.88
1028.516	921.88
1028.73	914.88
1028.943	879.88
1029.157	813.88
1029.37	756.88
1029.584	-2.12
1029.797	-1.12
1030.011	-3.12
1030.224	-2.12
