Data from QEP037381__193__15-55-39-890.txt Node

Date: Fri Dec 16 15:55:39 EST 2022
User: dcclab
Spectrometer: QEP03738
Trigger mode: 4
Integration Time (sec): 1.000000E1
Scans to average: 1
Electric dark correction enabled: true
Nonlinearity correction enabled: false
Boxcar width: 0
XAxis mode: Wavelengths
Number of Pixels in Spectrum: 1044
>>>>>Begin Spectral Data<<<<<
784.041	14.5
784.3	0.5
784.558	-5.5
784.817	-2.5
785.075	114060.5
785.334	20051.5
785.592	9432.5
785.851	6470.5
786.109	4908.5
786.368	3819.5
786.626	3060.5
786.884	2520.5
787.143	2081.5
787.401	1714.5
787.659	1551.5
787.917	1323.5
788.175	1197.5
788.433	1046.5
788.691	937.5
788.949	866.5
789.207	844.5
789.465	731.5
789.723	685.5
789.98	654.5
790.238	668.5
790.496	626.5
790.753	600.5
791.011	642.5
791.268	586.5
791.526	545.5
791.783	556.5
792.041	561.5
792.298	466.5
792.556	540.5
792.813	507.5
793.07	499.5
793.327	482.5
793.584	573.5
793.841	490.5
794.099	496.5
794.356	554.5
794.613	455.5
794.869	482.5
795.126	451.5
795.383	428.5
795.64	463.5
795.897	412.5
796.153	458.5
796.41	455.5
796.667	458.5
796.923	448.5
797.18	443.5
797.436	474.5
797.693	449.5
797.949	487.5
798.206	528.5
798.462	435.5
798.718	481.5
798.974	468.5
799.231	515.5
799.487	505.5
799.743	521.5
799.999	536.5
800.255	553.5
800.511	544.5
800.767	590.5
801.023	576.5
801.279	609.5
801.534	644.5
801.79	698.5
802.046	752.5
802.302	937.5
802.557	1051.5
802.813	1315.5
803.068	1664.5
803.324	2307.5
803.579	3111.5
803.835	4405.5
804.09	6059.5
804.345	7880.5
804.601	10011.5
804.856	12118.5
805.111	13971.5
805.366	15404.5
805.621	16408.5
805.876	17240.5
806.131	17746.5
806.386	18000.5
806.641	18448.5
806.896	18514.5
807.151	18975.5
807.406	19266.5
807.661	19674.5
807.915	19997.5
808.17	20214.5
808.425	20511.5
808.679	20656.5
808.934	20814.5
809.188	21036.5
809.443	21272.5
809.697	21426.5
809.951	21553.5
810.206	21758.5
810.46	22070.5
810.714	22255.5
810.968	22410.5
811.223	22644.5
811.477	22736.5
811.731	23045.5
811.985	23143.5
812.239	23186.5
812.493	23324.5
812.747	23422.5
813	23442.5
813.254	23453.5
813.508	23681.5
813.762	23821.5
814.015	23936.5
814.269	24035.5
814.522	24217.5
814.776	24398.5
815.03	24825.5
815.283	25124.5
815.536	25455.5
815.79	25989.5
816.043	26167.5
816.296	26553.5
816.55	26833.5
816.803	27170.5
817.056	27451.5
817.309	27827.5
817.562	28048.5
817.815	28359.5
818.068	28510.5
818.321	28787.5
818.574	29138.5
818.827	29460.5
819.079	29701.5
819.332	30333.5
819.585	30666.5
819.838	31021.5
820.09	31163.5
820.343	31452.5
820.595	31543.5
820.848	31842.5
821.1	31846.5
821.353	31851.5
821.605	31926.5
821.857	31859.5
822.11	31730.5
822.362	31787.5
822.614	31607.5
822.866	31693.5
823.118	31535.5
823.37	31638.5
823.622	31738.5
823.874	31811.5
824.126	32016.5
824.378	32096.5
824.63	32102.5
824.882	32397.5
825.134	32161.5
825.385	32141.5
825.637	32062.5
825.888	31986.5
826.14	31974.5
826.392	31686.5
826.643	31611.5
826.895	31374.5
827.146	31312.5
827.397	31315.5
827.649	31347.5
827.9	31312.5
828.151	31374.5
828.402	31361.5
828.653	31529.5
828.905	31570.5
829.156	31694.5
829.407	31573.5
829.658	31548.5
829.909	31638.5
830.159	31514.5
830.41	31486.5
830.661	31287.5
830.912	31083.5
831.162	30903.5
831.413	30773.5
831.664	30936.5
831.914	30802.5
832.165	30792.5
832.415	30765.5
832.666	30840.5
832.916	30826.5
833.167	30743.5
833.417	30829.5
833.667	30666.5
833.917	30549.5
834.168	30558.5
834.418	30488.5
834.668	30333.5
834.918	30201.5
835.168	30098.5
835.418	29820.5
835.668	29731.5
835.918	29791.5
836.167	29669.5
836.417	29539.5
836.667	29577.5
836.917	29481.5
837.166	29427.5
837.416	29579.5
837.666	29436.5
837.915	29382.5
838.165	29415.5
838.414	29267.5
838.663	29226.5
838.913	29196.5
839.162	29059.5
839.411	28967.5
839.661	28859.5
839.91	28815.5
840.159	28845.5
840.408	28766.5
840.657	28741.5
840.906	28741.5
841.155	28811.5
841.404	28716.5
841.653	28711.5
841.902	28725.5
842.15	28712.5
842.399	28807.5
842.648	28807.5
842.897	28639.5
843.145	28483.5
843.394	28465.5
843.642	28164.5
843.891	27935.5
844.139	27882.5
844.388	27710.5
844.636	27557.5
844.884	27684.5
845.133	27451.5
845.381	27600.5
845.629	27565.5
845.877	27511.5
846.125	27427.5
846.373	27364.5
846.621	27330.5
846.869	27269.5
847.117	27046.5
847.365	26794.5
847.613	26837.5
847.861	26727.5
848.108	26631.5
848.356	26612.5
848.604	26421.5
848.851	26557.5
849.099	26517.5
849.346	26726.5
849.594	26625.5
849.841	26756.5
850.089	26720.5
850.336	26830.5
850.583	26693.5
850.831	26631.5
851.078	26486.5
851.325	26537.5
851.572	26471.5
851.819	26277.5
852.066	25893.5
852.313	25631.5
852.56	25332.5
852.807	25123.5
853.054	25181.5
853.301	25134.5
853.548	25079.5
853.794	25217.5
854.041	25303.5
854.288	25321.5
854.534	25498.5
854.781	25498.5
855.028	25423.5
855.274	25355.5
855.52	25247.5
855.767	25121.5
856.013	25031.5
856.26	25353.5
856.506	24918.5
856.752	24727.5
856.998	24773.5
857.244	24893.5
857.49	25021.5
857.736	24908.5
857.982	25016.5
858.228	24939.5
858.474	24771.5
858.72	24559.5
858.966	24276.5
859.212	24130.5
859.458	23887.5
859.703	23704.5
859.949	23431.5
860.195	23369.5
860.44	23335.5
860.686	23098.5
860.931	23070.5
861.177	22893.5
861.422	22992.5
861.667	22758.5
861.913	22816.5
862.158	22842.5
862.403	22996.5
862.648	22872.5
862.893	22972.5
863.138	22933.5
863.384	22836.5
863.629	22875.5
863.873	22762.5
864.118	22727.5
864.363	22522.5
864.608	22603.5
864.853	22542.5
865.098	22380.5
865.342	22375.5
865.587	22124.5
865.832	22189.5
866.076	22084.5
866.321	21946.5
866.565	21885.5
866.81	21737.5
867.054	21829.5
867.298	21664.5
867.543	21516.5
867.787	21562.5
868.031	21500.5
868.275	21547.5
868.519	21413.5
868.764	21488.5
869.008	21313.5
869.252	21164.5
869.496	21127.5
869.739	21257.5
869.983	21154.5
870.227	21157.5
870.471	21081.5
870.715	21112.5
870.958	21267.5
871.202	21102.5
871.446	21267.5
871.689	21235.5
871.933	21308.5
872.176	21098.5
872.42	21088.5
872.663	21145.5
872.906	21067.5
873.15	21031.5
873.393	20951.5
873.636	20785.5
873.879	20550.5
874.122	20472.5
874.366	20101.5
874.609	20026.5
874.852	19915.5
875.095	19820.5
875.337	19658.5
875.58	19545.5
875.823	19527.5
876.066	19516.5
876.309	19459.5
876.551	19348.5
876.794	19161.5
877.037	19228.5
877.279	19089.5
877.522	19081.5
877.764	19173.5
878.007	19113.5
878.249	19037.5
878.491	19043.5
878.734	18970.5
878.976	18937.5
879.218	18807.5
879.46	18715.5
879.702	18634.5
879.945	18474.5
880.187	18350.5
880.429	18184.5
880.671	18049.5
880.912	18076.5
881.154	18059.5
881.396	17980.5
881.638	17903.5
881.88	17917.5
882.121	17870.5
882.363	17899.5
882.605	17812.5
882.846	17729.5
883.088	17777.5
883.329	17683.5
883.571	17711.5
883.812	17714.5
884.053	17972.5
884.295	18163.5
884.536	18413.5
884.777	18256.5
885.018	18136.5
885.259	18170.5
885.5	17858.5
885.742	18238.5
885.982	17973.5
886.223	17705.5
886.464	17658.5
886.705	17523.5
886.946	17328.5
887.187	17158.5
887.428	17026.5
887.668	16824.5
887.909	16620.5
888.15	16428.5
888.39	16388.5
888.631	16218.5
888.871	16167.5
889.111	15989.5
889.352	15878.5
889.592	15821.5
889.833	15644.5
890.073	15556.5
890.313	15441.5
890.553	15376.5
890.793	15284.5
891.033	15204.5
891.273	15059.5
891.513	15099.5
891.753	15047.5
891.993	15045.5
892.233	15004.5
892.473	15107.5
892.713	15186.5
892.952	15061.5
893.192	15065.5
893.432	14984.5
893.671	15090.5
893.911	14994.5
894.15	14894.5
894.39	14808.5
894.629	14598.5
894.869	14652.5
895.108	14531.5
895.347	14389.5
895.587	14358.5
895.826	14328.5
896.065	14291.5
896.304	14359.5
896.543	14347.5
896.782	14165.5
897.021	14166.5
897.26	14157.5
897.499	14129.5
897.738	13975.5
897.977	13903.5
898.216	13826.5
898.454	13725.5
898.693	13611.5
898.932	13634.5
899.17	13577.5
899.409	13457.5
899.647	13486.5
899.886	13459.5
900.124	13420.5
900.363	13332.5
900.601	13374.5
900.839	13357.5
901.078	13364.5
901.316	13454.5
901.554	13455.5
901.792	13505.5
902.03	13455.5
902.268	13442.5
902.506	13513.5
902.744	13365.5
902.982	13257.5
903.22	13097.5
903.458	13063.5
903.695	12895.5
903.933	12635.5
904.171	12430.5
904.409	12315.5
904.646	12203.5
904.884	11996.5
905.121	11897.5
905.359	11833.5
905.596	11712.5
905.833	11533.5
906.071	11540.5
906.308	11454.5
906.545	11433.5
906.783	11368.5
907.02	11413.5
907.257	11299.5
907.494	11354.5
907.731	11268.5
907.968	11279.5
908.205	11151.5
908.442	11084.5
908.679	10962.5
908.915	10953.5
909.152	10840.5
909.389	10706.5
909.626	10682.5
909.862	10595.5
910.099	10525.5
910.335	10675.5
910.572	10415.5
910.808	10485.5
911.045	10423.5
911.281	10292.5
911.518	10361.5
911.754	10260.5
911.99	10165.5
912.226	10092.5
912.463	10047.5
912.699	9982.5
912.935	9921.5
913.171	9794.5
913.407	9728.5
913.643	9696.5
913.879	9572.5
914.114	9486.5
914.35	9397.5
914.586	9344.5
914.822	9222.5
915.057	9272.5
915.293	9082.5
915.529	9060.5
915.764	9094.5
916	9036.5
916.235	9074.5
916.471	9037.5
916.706	8866.5
916.941	8962.5
917.177	8921.5
917.412	8962.5
917.647	8907.5
917.882	8815.5
918.117	8900.5
918.352	8826.5
918.588	8831.5
918.823	8764.5
919.057	8630.5
919.292	8490.5
919.527	8516.5
919.762	8334.5
919.997	8345.5
920.232	8256.5
920.466	8162.5
920.701	8114.5
920.935	8039.5
921.17	7979.5
921.405	7958.5
921.639	7938.5
921.873	7868.5
922.108	7871.5
922.342	7841.5
922.576	7761.5
922.811	7774.5
923.045	7710.5
923.279	7776.5
923.513	7622.5
923.747	7692.5
923.981	7591.5
924.215	7468.5
924.449	7487.5
924.683	7353.5
924.917	7378.5
925.151	7327.5
925.385	7456.5
925.618	7278.5
925.852	7236.5
926.086	7194.5
926.319	7177.5
926.553	7204.5
926.786	7241.5
927.02	7224.5
927.253	7232.5
927.486	7237.5
927.72	7070.5
927.953	7189.5
928.186	7153.5
928.42	7091.5
928.653	7022.5
928.886	6958.5
929.119	7012.5
929.352	6987.5
929.585	6934.5
929.818	6842.5
930.051	6783.5
930.284	6744.5
930.516	6698.5
930.749	6604.5
930.982	6612.5
931.215	6534.5
931.447	6472.5
931.68	6518.5
931.912	6509.5
932.145	6510.5
932.377	6475.5
932.61	6617.5
932.842	6428.5
933.074	6492.5
933.307	6362.5
933.539	6465.5
933.771	6481.5
934.003	6410.5
934.236	6459.5
934.468	6470.5
934.7	6407.5
934.932	6380.5
935.164	6373.5
935.395	6325.5
935.627	6340.5
935.859	6276.5
936.091	6260.5
936.323	6312.5
936.554	6319.5
936.786	6213.5
937.017	6141.5
937.249	6136.5
937.481	6063.5
937.712	6124.5
937.943	6089.5
938.175	6044.5
938.406	6038.5
938.637	6081.5
938.869	5988.5
939.1	6070.5
939.331	5993.5
939.562	6004.5
939.793	5969.5
940.024	5964.5
940.255	5963.5
940.486	5836.5
940.717	5842.5
940.948	5836.5
941.179	5755.5
941.409	5826.5
941.64	5771.5
941.871	5816.5
942.102	5737.5
942.332	5769.5
942.563	5781.5
942.793	5730.5
943.024	5688.5
943.254	5776.5
943.484	5783.5
943.715	5739.5
943.945	5702.5
944.175	5660.5
944.405	5618.5
944.636	5621.5
944.866	5688.5
945.096	5636.5
945.326	5569.5
945.556	5582.5
945.786	5649.5
946.016	5564.5
946.245	5472.5
946.475	5451.5
946.705	5434.5
946.935	5391.5
947.164	5396.5
947.394	5343.5
947.624	5321.5
947.853	5257.5
948.083	5299.5
948.312	5218.5
948.542	5206.5
948.771	5162.5
949	5144.5
949.23	5168.5
949.459	5183.5
949.688	5208.5
949.917	5149.5
950.146	5138.5
950.375	5194.5
950.604	5092.5
950.833	5135.5
951.062	5125.5
951.291	5055.5
951.52	5053.5
951.749	5070.5
951.978	5018.5
952.206	4963.5
952.435	4977.5
952.664	4984.5
952.892	4994.5
953.121	4946.5
953.349	4957.5
953.578	4937.5
953.806	4880.5
954.035	4831.5
954.263	4859.5
954.491	4717.5
954.719	4813.5
954.948	4734.5
955.176	4712.5
955.404	4658.5
955.632	4746.5
955.86	4681.5
956.088	4632.5
956.316	4647.5
956.544	4664.5
956.772	4572.5
956.999	4552.5
957.227	4628.5
957.455	4530.5
957.683	4486.5
957.91	4440.5
958.138	4443.5
958.365	4416.5
958.593	4377.5
958.82	4329.5
959.048	4402.5
959.275	4331.5
959.502	4379.5
959.73	4281.5
959.957	4317.5
960.184	4343.5
960.411	4281.5
960.638	4344.5
960.865	4283.5
961.092	4241.5
961.319	4158.5
961.546	4309.5
961.773	4286.5
962	4217.5
962.227	4271.5
962.454	4175.5
962.68	4203.5
962.907	4213.5
963.134	4144.5
963.36	4156.5
963.587	4170.5
963.813	4041.5
964.04	4118.5
964.266	3982.5
964.493	4070.5
964.719	4046.5
964.945	4018.5
965.171	3859.5
965.398	3924.5
965.624	3956.5
965.85	3848.5
966.076	3839.5
966.302	3863.5
966.528	3823.5
966.754	3858.5
966.98	3837.5
967.206	3828.5
967.431	3766.5
967.657	3843.5
967.883	3796.5
968.109	3795.5
968.334	3731.5
968.56	3660.5
968.785	3711.5
969.011	3642.5
969.236	3718.5
969.462	3641.5
969.687	3678.5
969.912	3686.5
970.138	3677.5
970.363	3591.5
970.588	3622.5
970.813	3555.5
971.038	3562.5
971.263	3564.5
971.488	3570.5
971.713	3586.5
971.938	3530.5
972.163	3454.5
972.388	3488.5
972.613	3424.5
972.838	3428.5
973.062	3414.5
973.287	3423.5
973.512	3358.5
973.736	3405.5
973.961	3361.5
974.185	3328.5
974.41	3386.5
974.634	3279.5
974.858	3251.5
975.083	3325.5
975.307	3326.5
975.531	3234.5
975.755	3164.5
975.98	3192.5
976.204	3113.5
976.428	3123.5
976.652	3136.5
976.876	3070.5
977.1	3101.5
977.324	3080.5
977.547	3124.5
977.771	3063.5
977.995	3071.5
978.219	2982.5
978.442	3119.5
978.666	3054.5
978.89	3028.5
979.113	3009.5
979.337	3020.5
979.56	2962.5
979.783	3073.5
980.007	2919.5
980.23	2968.5
980.453	2905.5
980.677	2936.5
980.9	2898.5
981.123	2807.5
981.346	2926.5
981.569	2872.5
981.792	2904.5
982.015	2836.5
982.238	2800.5
982.461	2847.5
982.684	2789.5
982.907	2765.5
983.129	2719.5
983.352	2789.5
983.575	2725.5
983.797	2727.5
984.02	2662.5
984.242	2686.5
984.465	2738.5
984.687	2688.5
984.91	2689.5
985.132	2699.5
985.354	2700.5
985.577	2650.5
985.799	2644.5
986.021	2548.5
986.243	2565.5
986.465	2561.5
986.687	2619.5
986.909	2638.5
987.131	2598.5
987.353	2546.5
987.575	2590.5
987.797	2514.5
988.019	2460.5
988.241	2509.5
988.462	2453.5
988.684	2530.5
988.906	2567.5
989.127	2538.5
989.349	2471.5
989.57	2462.5
989.792	2496.5
990.013	2525.5
990.234	2493.5
990.456	2524.5
990.677	2502.5
990.898	2417.5
991.119	2421.5
991.341	2432.5
991.562	2343.5
991.783	2417.5
992.004	2347.5
992.225	2315.5
992.446	2395.5
992.667	2268.5
992.887	2333.5
993.108	2251.5
993.329	2348.5
993.55	2300.5
993.77	2235.5
993.991	2242.5
994.212	2262.5
994.432	2231.5
994.653	2252.5
994.873	2246.5
995.093	2149.5
995.314	2153.5
995.534	2211.5
995.754	2226.5
995.975	2281.5
996.195	2113.5
996.415	2191.5
996.635	2141.5
996.855	2154.5
997.075	2121.5
997.295	2091.5
997.515	2107.5
997.735	2166.5
997.955	2111.5
998.174	2126.5
998.394	2062.5
998.614	2105.5
998.834	2108.5
999.053	2144.5
999.273	2099.5
999.492	2134.5
999.712	2055.5
999.931	2061.5
1000.151	2072.5
1000.37	2052.5
1000.589	2084.5
1000.809	2025.5
1001.028	2134.5
1001.247	2045.5
1001.466	1935.5
1001.685	2096.5
1001.904	2008.5
1002.123	1993.5
1002.342	1990.5
1002.561	1957.5
1002.78	1985.5
1002.999	2028.5
1003.218	1950.5
1003.436	1926.5
1003.655	1965.5
1003.874	1919.5
1004.092	1925.5
1004.311	1966.5
1004.53	1910.5
1004.748	1972.5
1004.966	1899.5
1005.185	1967.5
1005.403	1932.5
1005.622	1894.5
1005.84	1995.5
1006.058	1869.5
1006.276	1913.5
1006.494	2380.5
1006.712	1854.5
1006.931	1942.5
1007.149	1840.5
1007.367	1859.5
1007.584	1879.5
1007.802	1935.5
1008.02	1879.5
1008.238	1952.5
1008.456	1993.5
1008.673	1846.5
1008.891	1915.5
1009.109	1888.5
1009.326	1933.5
1009.544	2022.5
1009.761	1936.5
1009.979	2041.5
1010.196	2036.5
1010.413	2146.5
1010.631	2189.5
1010.848	2234.5
1011.065	2257.5
1011.282	2197.5
1011.5	2119.5
1011.717	2215.5
1011.934	2162.5
1012.151	2233.5
1012.368	2184.5
1012.585	2083.5
1012.801	2165.5
1013.018	2117.5
1013.235	2105.5
1013.452	2121.5
1013.669	2101.5
1013.885	2096.5
1014.102	2158.5
1014.318	2127.5
1014.535	2049.5
1014.751	2103.5
1014.968	2110.5
1015.184	2112.5
1015.401	2048.5
1015.617	2056.5
1015.833	1997.5
1016.049	1990.5
1016.266	1934.5
1016.482	1940.5
1016.698	1873.5
1016.914	1933.5
1017.13	1881.5
1017.346	1847.5
1017.562	1912.5
1017.778	1839.5
1017.993	1825.5
1018.209	1855.5
1018.425	1806.5
1018.641	1787.5
1018.856	1803.5
1019.072	1820.5
1019.288	1849.5
1019.503	1816.5
1019.719	1757.5
1019.934	1756.5
1020.149	1793.5
1020.365	1729.5
1020.58	1669.5
1020.795	1727.5
1021.011	1658.5
1021.226	1631.5
1021.441	1633.5
1021.656	1543.5
1021.871	1477.5
1022.086	1481.5
1022.301	1481.5
1022.516	1456.5
1022.731	1499.5
1022.946	1435.5
1023.16	1391.5
1023.375	1357.5
1023.59	1330.5
1023.804	1300.5
1024.019	1396.5
1024.234	1245.5
1024.448	1279.5
1024.663	1229.5
1024.877	1220.5
1025.092	1238.5
1025.306	1223.5
1025.52	1140.5
1025.734	1197.5
1025.949	1118.5
1026.163	1103.5
1026.377	1044.5
1026.591	1090.5
1026.805	994.5
1027.019	1006.5
1027.233	961.5
1027.447	907.5
1027.661	998.5
1027.875	946.5
1028.088	920.5
1028.302	870.5
1028.516	846.5
1028.73	851.5
1028.943	827.5
1029.157	782.5
1029.37	731.5
1029.584	-2.5
1029.797	-1.5
1030.011	-2.5
1030.224	-0.5
