Data from QEP037381__166__15-51-09-886.txt Node

Date: Fri Dec 16 15:51:09 EST 2022
User: dcclab
Spectrometer: QEP03738
Trigger mode: 4
Integration Time (sec): 1.000000E1
Scans to average: 1
Electric dark correction enabled: true
Nonlinearity correction enabled: false
Boxcar width: 0
XAxis mode: Wavelengths
Number of Pixels in Spectrum: 1044
>>>>>Begin Spectral Data<<<<<
784.041	12.12
784.3	-0.88
784.558	-3.88
784.817	-1.88
785.075	111980.12
785.334	19828.12
785.592	9421.12
785.851	6528.12
786.109	4951.12
786.368	3786.12
786.626	3048.12
786.884	2500.12
787.143	2113.12
787.401	1743.12
787.659	1557.12
787.917	1338.12
788.175	1211.12
788.433	1032.12
788.691	941.12
788.949	877.12
789.207	817.12
789.465	733.12
789.723	686.12
789.98	625.12
790.238	664.12
790.496	617.12
790.753	598.12
791.011	636.12
791.268	580.12
791.526	555.12
791.783	573.12
792.041	541.12
792.298	474.12
792.556	531.12
792.813	508.12
793.07	479.12
793.327	492.12
793.584	558.12
793.841	470.12
794.099	480.12
794.356	545.12
794.613	449.12
794.869	492.12
795.126	450.12
795.383	436.12
795.64	468.12
795.897	405.12
796.153	459.12
796.41	456.12
796.667	438.12
796.923	448.12
797.18	437.12
797.436	477.12
797.693	429.12
797.949	498.12
798.206	508.12
798.462	433.12
798.718	491.12
798.974	468.12
799.231	509.12
799.487	500.12
799.743	513.12
799.999	546.12
800.255	540.12
800.511	517.12
800.767	573.12
801.023	557.12
801.279	603.12
801.534	655.12
801.79	718.12
802.046	732.12
802.302	890.12
802.557	1023.12
802.813	1282.12
803.068	1581.12
803.324	2216.12
803.579	3032.12
803.835	4219.12
804.09	5869.12
804.345	7630.12
804.601	9689.12
804.856	11700.12
805.111	13491.12
805.366	14934.12
805.621	15849.12
805.876	16641.12
806.131	17096.12
806.386	17346.12
806.641	17654.12
806.896	17988.12
807.151	18332.12
807.406	18604.12
807.661	18929.12
807.915	19193.12
808.17	19473.12
808.425	19665.12
808.679	19860.12
808.934	20049.12
809.188	20242.12
809.443	20480.12
809.697	20677.12
809.951	20847.12
810.206	20950.12
810.46	21284.12
810.714	21440.12
810.968	21572.12
811.223	21807.12
811.477	21974.12
811.731	22255.12
811.985	22212.12
812.239	22247.12
812.493	22418.12
812.747	22510.12
813	22467.12
813.254	22589.12
813.508	22777.12
813.762	22817.12
814.015	22903.12
814.269	23064.12
814.522	23319.12
814.776	23435.12
815.03	23797.12
815.283	24088.12
815.536	24520.12
815.79	24980.12
816.043	25220.12
816.296	25480.12
816.55	25696.12
816.803	25993.12
817.056	26447.12
817.309	26633.12
817.562	26773.12
817.815	27014.12
818.068	27317.12
818.321	27561.12
818.574	27979.12
818.827	28208.12
819.079	28534.12
819.332	29001.12
819.585	29367.12
819.838	29579.12
820.09	29901.12
820.343	30175.12
820.595	30171.12
820.848	30347.12
821.1	30568.12
821.353	30483.12
821.605	30478.12
821.857	30567.12
822.11	30435.12
822.362	30265.12
822.614	30276.12
822.866	30141.12
823.118	30255.12
823.37	30324.12
823.622	30326.12
823.874	30502.12
824.126	30460.12
824.378	30539.12
824.63	30739.12
824.882	30885.12
825.134	30682.12
825.385	30729.12
825.637	30567.12
825.888	30468.12
826.14	30435.12
826.392	30266.12
826.643	30143.12
826.895	30049.12
827.146	29834.12
827.397	29815.12
827.649	29860.12
827.9	29912.12
828.151	29782.12
828.402	29949.12
828.653	30035.12
828.905	30024.12
829.156	30138.12
829.407	30169.12
829.658	29986.12
829.909	30053.12
830.159	29919.12
830.41	29747.12
830.661	29703.12
830.912	29487.12
831.162	29304.12
831.413	29318.12
831.664	29394.12
831.914	29161.12
832.165	29169.12
832.415	29209.12
832.666	29096.12
832.916	29208.12
833.167	29218.12
833.417	29092.12
833.667	29090.12
833.917	28874.12
834.168	28942.12
834.418	28795.12
834.668	28667.12
834.918	28510.12
835.168	28399.12
835.418	28262.12
835.668	28119.12
835.918	28154.12
836.167	28065.12
836.417	27885.12
836.667	28031.12
836.917	27930.12
837.166	27774.12
837.416	27809.12
837.666	27799.12
837.915	27715.12
838.165	27575.12
838.414	27471.12
838.663	27495.12
838.913	27502.12
839.162	27350.12
839.411	27388.12
839.661	27209.12
839.91	27174.12
840.159	27035.12
840.408	27064.12
840.657	26978.12
840.906	27030.12
841.155	27133.12
841.404	27086.12
841.653	27115.12
841.902	26938.12
842.15	27054.12
842.399	26985.12
842.648	26937.12
842.897	26825.12
843.145	26737.12
843.394	26607.12
843.642	26405.12
843.891	26309.12
844.139	26222.12
844.388	25968.12
844.636	25832.12
844.884	25883.12
845.133	25856.12
845.381	25744.12
845.629	25714.12
845.877	25680.12
846.125	25673.12
846.373	25558.12
846.621	25399.12
846.869	25457.12
847.117	25283.12
847.365	25085.12
847.613	25007.12
847.861	25128.12
848.108	24949.12
848.356	24879.12
848.604	24757.12
848.851	24891.12
849.099	24843.12
849.346	24771.12
849.594	24980.12
849.841	25038.12
850.089	24885.12
850.336	25011.12
850.583	24926.12
850.831	24823.12
851.078	24714.12
851.325	24682.12
851.572	24572.12
851.819	24482.12
852.066	24039.12
852.313	23656.12
852.56	23522.12
852.807	23418.12
853.054	23468.12
853.301	23329.12
853.548	23317.12
853.794	23401.12
854.041	23477.12
854.288	23479.12
854.534	23757.12
854.781	23712.12
855.028	23716.12
855.274	23632.12
855.52	23414.12
855.767	23310.12
856.013	23339.12
856.26	23631.12
856.506	23027.12
856.752	22969.12
856.998	23005.12
857.244	23173.12
857.49	23217.12
857.736	23196.12
857.982	23072.12
858.228	23071.12
858.474	22985.12
858.72	22765.12
858.966	22611.12
859.212	22527.12
859.458	22140.12
859.703	22001.12
859.949	21640.12
860.195	21568.12
860.44	21446.12
860.686	21332.12
860.931	21327.12
861.177	21207.12
861.422	21205.12
861.667	20995.12
861.913	21094.12
862.158	21046.12
862.403	21089.12
862.648	21181.12
862.893	21126.12
863.138	21146.12
863.384	21119.12
863.629	21128.12
863.873	21076.12
864.118	20940.12
864.363	20757.12
864.608	20853.12
864.853	20661.12
865.098	20648.12
865.342	20540.12
865.587	20469.12
865.832	20329.12
866.076	20390.12
866.321	20211.12
866.565	20124.12
866.81	19914.12
867.054	19932.12
867.298	20030.12
867.543	19890.12
867.787	19947.12
868.031	19784.12
868.275	19778.12
868.519	19709.12
868.764	19727.12
869.008	19574.12
869.252	19577.12
869.496	19486.12
869.739	19452.12
869.983	19473.12
870.227	19358.12
870.471	19361.12
870.715	19516.12
870.958	19308.12
871.202	19538.12
871.446	19459.12
871.689	19479.12
871.933	19511.12
872.176	19407.12
872.42	19486.12
872.663	19435.12
872.906	19420.12
873.15	19322.12
873.393	19011.12
873.636	19087.12
873.879	18942.12
874.122	18809.12
874.366	18526.12
874.609	18411.12
874.852	18198.12
875.095	18143.12
875.337	18047.12
875.58	18009.12
875.823	17849.12
876.066	17912.12
876.309	17741.12
876.551	17687.12
876.794	17527.12
877.037	17532.12
877.279	17453.12
877.522	17458.12
877.764	17421.12
878.007	17470.12
878.249	17392.12
878.491	17402.12
878.734	17467.12
878.976	17397.12
879.218	17177.12
879.46	17045.12
879.702	17033.12
879.945	16925.12
880.187	16714.12
880.429	16643.12
880.671	16506.12
880.912	16516.12
881.154	16466.12
881.396	16389.12
881.638	16315.12
881.88	16363.12
882.121	16168.12
882.363	16347.12
882.605	16267.12
882.846	16234.12
883.088	16175.12
883.329	16187.12
883.571	16043.12
883.812	16246.12
884.053	16371.12
884.295	16639.12
884.536	16760.12
884.777	16563.12
885.018	16567.12
885.259	16461.12
885.5	16416.12
885.742	16600.12
885.982	16277.12
886.223	16135.12
886.464	16130.12
886.705	15860.12
886.946	15910.12
887.187	15547.12
887.428	15511.12
887.668	15220.12
887.909	15087.12
888.15	14931.12
888.39	14838.12
888.631	14768.12
888.871	14670.12
889.111	14545.12
889.352	14477.12
889.592	14221.12
889.833	14157.12
890.073	14073.12
890.313	14137.12
890.553	13901.12
890.793	13869.12
891.033	13735.12
891.273	13709.12
891.513	13672.12
891.753	13711.12
891.993	13593.12
892.233	13567.12
892.473	13741.12
892.713	13655.12
892.952	13554.12
893.192	13688.12
893.432	13630.12
893.671	13593.12
893.911	13504.12
894.15	13455.12
894.39	13238.12
894.629	13172.12
894.869	13173.12
895.108	13120.12
895.347	12992.12
895.587	12966.12
895.826	12925.12
896.065	12900.12
896.304	12965.12
896.543	12992.12
896.782	12727.12
897.021	12886.12
897.26	12752.12
897.499	12850.12
897.738	12789.12
897.977	12620.12
898.216	12536.12
898.454	12393.12
898.693	12302.12
898.932	12325.12
899.17	12196.12
899.409	12260.12
899.647	12104.12
899.886	12117.12
900.124	12156.12
900.363	12104.12
900.601	12118.12
900.839	12124.12
901.078	12126.12
901.316	12181.12
901.554	12217.12
901.792	12248.12
902.03	12167.12
902.268	12180.12
902.506	12240.12
902.744	12101.12
902.982	12058.12
903.22	11872.12
903.458	11661.12
903.695	11659.12
903.933	11485.12
904.171	11250.12
904.409	11068.12
904.646	10958.12
904.884	10811.12
905.121	10820.12
905.359	10611.12
905.596	10538.12
905.833	10398.12
906.071	10275.12
906.308	10377.12
906.545	10277.12
906.783	10217.12
907.02	10183.12
907.257	10181.12
907.494	10133.12
907.731	10155.12
907.968	10075.12
908.205	10045.12
908.442	9857.12
908.679	9905.12
908.915	9857.12
909.152	9786.12
909.389	9608.12
909.626	9580.12
909.862	9494.12
910.099	9493.12
910.335	9466.12
910.572	9353.12
910.808	9430.12
911.045	9318.12
911.281	9278.12
911.518	9305.12
911.754	9177.12
911.99	9144.12
912.226	9102.12
912.463	9002.12
912.699	8935.12
912.935	8948.12
913.171	8780.12
913.407	8766.12
913.643	8654.12
913.879	8606.12
914.114	8591.12
914.35	8425.12
914.586	8385.12
914.822	8257.12
915.057	8259.12
915.293	8123.12
915.529	8114.12
915.764	8175.12
916	8123.12
916.235	8159.12
916.471	8077.12
916.706	7938.12
916.941	8011.12
917.177	7971.12
917.412	7990.12
917.647	7993.12
917.882	7955.12
918.117	8004.12
918.352	7877.12
918.588	7922.12
918.823	7799.12
919.057	7740.12
919.292	7639.12
919.527	7609.12
919.762	7572.12
919.997	7447.12
920.232	7346.12
920.466	7351.12
920.701	7157.12
920.935	7250.12
921.17	7132.12
921.405	7025.12
921.639	7086.12
921.873	7063.12
922.108	7038.12
922.342	7111.12
922.576	6897.12
922.811	6906.12
923.045	6967.12
923.279	6954.12
923.513	6716.12
923.747	6799.12
923.981	6803.12
924.215	6684.12
924.449	6661.12
924.683	6616.12
924.917	6601.12
925.151	6513.12
925.385	6595.12
925.618	6490.12
925.852	6512.12
926.086	6365.12
926.319	6476.12
926.553	6477.12
926.786	6438.12
927.02	6412.12
927.253	6459.12
927.486	6425.12
927.72	6395.12
927.953	6402.12
928.186	6337.12
928.42	6379.12
928.653	6306.12
928.886	6268.12
929.119	6292.12
929.352	6219.12
929.585	6155.12
929.818	6103.12
930.051	6109.12
930.284	6094.12
930.516	5886.12
930.749	5916.12
930.982	5929.12
931.215	5947.12
931.447	5829.12
931.68	5817.12
931.912	5788.12
932.145	5771.12
932.377	5801.12
932.61	5924.12
932.842	5707.12
933.074	5777.12
933.307	5712.12
933.539	5801.12
933.771	5819.12
934.003	5743.12
934.236	5826.12
934.468	5819.12
934.7	5700.12
934.932	5735.12
935.164	5635.12
935.395	5625.12
935.627	5648.12
935.859	5645.12
936.091	5560.12
936.323	5612.12
936.554	5580.12
936.786	5562.12
937.017	5506.12
937.249	5459.12
937.481	5415.12
937.712	5496.12
937.943	5415.12
938.175	5447.12
938.406	5363.12
938.637	5471.12
938.869	5325.12
939.1	5410.12
939.331	5336.12
939.562	5382.12
939.793	5365.12
940.024	5366.12
940.255	5340.12
940.486	5214.12
940.717	5299.12
940.948	5188.12
941.179	5120.12
941.409	5149.12
941.64	5063.12
941.871	5182.12
942.102	5089.12
942.332	5144.12
942.563	5145.12
942.793	5117.12
943.024	5064.12
943.254	5111.12
943.484	5151.12
943.715	5172.12
943.945	5073.12
944.175	5018.12
944.405	4977.12
944.636	4996.12
944.866	5024.12
945.096	5069.12
945.326	4976.12
945.556	5027.12
945.786	4960.12
946.016	4945.12
946.245	4830.12
946.475	4867.12
946.705	4845.12
946.935	4811.12
947.164	4827.12
947.394	4719.12
947.624	4742.12
947.853	4765.12
948.083	4745.12
948.312	4670.12
948.542	4632.12
948.771	4589.12
949	4598.12
949.23	4560.12
949.459	4600.12
949.688	4605.12
949.917	4600.12
950.146	4614.12
950.375	4647.12
950.604	4566.12
950.833	4616.12
951.062	4601.12
951.291	4540.12
951.52	4459.12
951.749	4504.12
951.978	4472.12
952.206	4424.12
952.435	4452.12
952.664	4456.12
952.892	4453.12
953.121	4408.12
953.349	4426.12
953.578	4411.12
953.806	4335.12
954.035	4314.12
954.263	4350.12
954.491	4249.12
954.719	4259.12
954.948	4243.12
955.176	4195.12
955.404	4124.12
955.632	4152.12
955.86	4149.12
956.088	4167.12
956.316	4129.12
956.544	4147.12
956.772	4084.12
956.999	4044.12
957.227	4107.12
957.455	4022.12
957.683	4028.12
957.91	3953.12
958.138	3948.12
958.365	3932.12
958.593	3920.12
958.82	3868.12
959.048	3936.12
959.275	3878.12
959.502	3913.12
959.73	3806.12
959.957	3874.12
960.184	3888.12
960.411	3833.12
960.638	3841.12
960.865	3753.12
961.092	3839.12
961.319	3724.12
961.546	3857.12
961.773	3786.12
962	3740.12
962.227	3840.12
962.454	3704.12
962.68	3718.12
962.907	3784.12
963.134	3705.12
963.36	3723.12
963.587	3687.12
963.813	3618.12
964.04	3670.12
964.266	3541.12
964.493	3625.12
964.719	3630.12
964.945	3589.12
965.171	3510.12
965.398	3531.12
965.624	3509.12
965.85	3451.12
966.076	3491.12
966.302	3475.12
966.528	3411.12
966.754	3456.12
966.98	3478.12
967.206	3483.12
967.431	3338.12
967.657	3414.12
967.883	3447.12
968.109	3377.12
968.334	3329.12
968.56	3297.12
968.785	3342.12
969.011	3262.12
969.236	3324.12
969.462	3259.12
969.687	3299.12
969.912	3311.12
970.138	3282.12
970.363	3218.12
970.588	3228.12
970.813	3218.12
971.038	3186.12
971.263	3200.12
971.488	3208.12
971.713	3235.12
971.938	3195.12
972.163	3119.12
972.388	3131.12
972.613	3112.12
972.838	3123.12
973.062	3031.12
973.287	3072.12
973.512	3002.12
973.736	3053.12
973.961	3037.12
974.185	2991.12
974.41	3015.12
974.634	2929.12
974.858	2918.12
975.083	2956.12
975.307	2946.12
975.531	2885.12
975.755	2828.12
975.98	2829.12
976.204	2780.12
976.428	2771.12
976.652	2806.12
976.876	2727.12
977.1	2780.12
977.324	2721.12
977.547	2756.12
977.771	2816.12
977.995	2742.12
978.219	2688.12
978.442	2765.12
978.666	2741.12
978.89	2715.12
979.113	2714.12
979.337	2706.12
979.56	2654.12
979.783	2731.12
980.007	2643.12
980.23	2658.12
980.453	2639.12
980.677	2618.12
980.9	2614.12
981.123	2535.12
981.346	2633.12
981.569	2588.12
981.792	2633.12
982.015	2552.12
982.238	2526.12
982.461	2560.12
982.684	2471.12
982.907	2468.12
983.129	2446.12
983.352	2485.12
983.575	2473.12
983.797	2452.12
984.02	2406.12
984.242	2412.12
984.465	2446.12
984.687	2428.12
984.91	2430.12
985.132	2392.12
985.354	2418.12
985.577	2391.12
985.799	2374.12
986.021	2319.12
986.243	2304.12
986.465	2318.12
986.687	2355.12
986.909	2414.12
987.131	2361.12
987.353	2296.12
987.575	2339.12
987.797	2267.12
988.019	2172.12
988.241	2275.12
988.462	2219.12
988.684	2270.12
988.906	2284.12
989.127	2323.12
989.349	2192.12
989.57	2219.12
989.792	2270.12
990.013	2259.12
990.234	2249.12
990.456	2293.12
990.677	2257.12
990.898	2206.12
991.119	2196.12
991.341	2237.12
991.562	2093.12
991.783	2220.12
992.004	2119.12
992.225	2098.12
992.446	2136.12
992.667	2042.12
992.887	2133.12
993.108	2000.12
993.329	2157.12
993.55	2060.12
993.77	2032.12
993.991	2043.12
994.212	2038.12
994.432	2027.12
994.653	2047.12
994.873	2043.12
995.093	1898.12
995.314	1970.12
995.534	2016.12
995.754	2034.12
995.975	2046.12
996.195	1934.12
996.415	1977.12
996.635	1956.12
996.855	1991.12
997.075	1935.12
997.295	1946.12
997.515	1933.12
997.735	1999.12
997.955	1938.12
998.174	1950.12
998.394	1910.12
998.614	1922.12
998.834	1864.12
999.053	2005.12
999.273	1956.12
999.492	1958.12
999.712	1869.12
999.931	1872.12
1000.151	1896.12
1000.37	1883.12
1000.589	1926.12
1000.809	1822.12
1001.028	1957.12
1001.247	1895.12
1001.466	1778.12
1001.685	1915.12
1001.904	1841.12
1002.123	1843.12
1002.342	1847.12
1002.561	1789.12
1002.78	1840.12
1002.999	1846.12
1003.218	1792.12
1003.436	1772.12
1003.655	1820.12
1003.874	1761.12
1004.092	1780.12
1004.311	1787.12
1004.53	1786.12
1004.748	1821.12
1004.966	1759.12
1005.185	1801.12
1005.403	1800.12
1005.622	1769.12
1005.84	1817.12
1006.058	1726.12
1006.276	1753.12
1006.494	2232.12
1006.712	1717.12
1006.931	1809.12
1007.149	1721.12
1007.367	1702.12
1007.584	1761.12
1007.802	1808.12
1008.02	1750.12
1008.238	1836.12
1008.456	1814.12
1008.673	1714.12
1008.891	1803.12
1009.109	1725.12
1009.326	1780.12
1009.544	1922.12
1009.761	1789.12
1009.979	1909.12
1010.196	1913.12
1010.413	2022.12
1010.631	2054.12
1010.848	2111.12
1011.065	2090.12
1011.282	2037.12
1011.5	1988.12
1011.717	2106.12
1011.934	2038.12
1012.151	2088.12
1012.368	2049.12
1012.585	1982.12
1012.801	2028.12
1013.018	2006.12
1013.235	1972.12
1013.452	1966.12
1013.669	1979.12
1013.885	2000.12
1014.102	2011.12
1014.318	1995.12
1014.535	1927.12
1014.751	1958.12
1014.968	1975.12
1015.184	2001.12
1015.401	1898.12
1015.617	1925.12
1015.833	1857.12
1016.049	1871.12
1016.266	1828.12
1016.482	1842.12
1016.698	1758.12
1016.914	1818.12
1017.13	1749.12
1017.346	1765.12
1017.562	1819.12
1017.778	1744.12
1017.993	1726.12
1018.209	1734.12
1018.425	1750.12
1018.641	1722.12
1018.856	1689.12
1019.072	1746.12
1019.288	1747.12
1019.503	1686.12
1019.719	1634.12
1019.934	1641.12
1020.149	1695.12
1020.365	1616.12
1020.58	1569.12
1020.795	1606.12
1021.011	1548.12
1021.226	1538.12
1021.441	1565.12
1021.656	1478.12
1021.871	1405.12
1022.086	1374.12
1022.301	1396.12
1022.516	1370.12
1022.731	1378.12
1022.946	1334.12
1023.16	1295.12
1023.375	1303.12
1023.59	1258.12
1023.804	1229.12
1024.019	1333.12
1024.234	1209.12
1024.448	1201.12
1024.663	1121.12
1024.877	1158.12
1025.092	1160.12
1025.306	1181.12
1025.52	1079.12
1025.734	1159.12
1025.949	1065.12
1026.163	1026.12
1026.377	977.12
1026.591	1028.12
1026.805	960.12
1027.019	928.12
1027.233	896.12
1027.447	851.12
1027.661	953.12
1027.875	884.12
1028.088	904.12
1028.302	828.12
1028.516	807.12
1028.73	790.12
1028.943	773.12
1029.157	737.12
1029.37	697.12
1029.584	1.12
1029.797	-1.88
1030.011	-1.88
1030.224	-2.88
