Data from QEP037381__201__15-56-59-891.txt Node

Date: Fri Dec 16 15:56:59 EST 2022
User: dcclab
Spectrometer: QEP03738
Trigger mode: 4
Integration Time (sec): 1.000000E1
Scans to average: 1
Electric dark correction enabled: true
Nonlinearity correction enabled: false
Boxcar width: 0
XAxis mode: Wavelengths
Number of Pixels in Spectrum: 1044
>>>>>Begin Spectral Data<<<<<
784.041	10.38
784.3	1.38
784.558	-5.62
784.817	-2.62
785.075	112547.38
785.334	20263.38
785.592	9710.38
785.851	6773.38
786.109	5086.38
786.368	3990.38
786.626	3230.38
786.884	2662.38
787.143	2250.38
787.401	1861.38
787.659	1657.38
787.917	1421.38
788.175	1272.38
788.433	1137.38
788.691	1009.38
788.949	920.38
789.207	873.38
789.465	749.38
789.723	715.38
789.98	667.38
790.238	689.38
790.496	665.38
790.753	628.38
791.011	666.38
791.268	619.38
791.526	584.38
791.783	606.38
792.041	572.38
792.298	505.38
792.556	559.38
792.813	537.38
793.07	521.38
793.327	519.38
793.584	580.38
793.841	506.38
794.099	533.38
794.356	587.38
794.613	481.38
794.869	526.38
795.126	488.38
795.383	461.38
795.64	482.38
795.897	447.38
796.153	521.38
796.41	488.38
796.667	483.38
796.923	476.38
797.18	504.38
797.436	517.38
797.693	476.38
797.949	549.38
798.206	572.38
798.462	483.38
798.718	565.38
798.974	527.38
799.231	574.38
799.487	572.38
799.743	579.38
799.999	621.38
800.255	628.38
800.511	628.38
800.767	672.38
801.023	663.38
801.279	721.38
801.534	774.38
801.79	867.38
802.046	930.38
802.302	1136.38
802.557	1365.38
802.813	1735.38
803.068	2248.38
803.324	3165.38
803.579	4445.38
803.835	6263.38
804.09	8691.38
804.345	11669.38
804.601	14940.38
804.856	17845.38
805.111	20923.38
805.366	23034.38
805.621	24711.38
805.876	25858.38
806.131	26511.38
806.386	27019.38
806.641	27532.38
806.896	27999.38
807.151	28470.38
807.406	28980.38
807.661	29555.38
807.915	29987.38
808.17	30480.38
808.425	30817.38
808.679	31066.38
808.934	31370.38
809.188	31825.38
809.443	32149.38
809.697	32394.38
809.951	32498.38
810.206	33136.38
810.46	33298.38
810.714	33542.38
810.968	33912.38
811.223	34068.38
811.477	34352.38
811.731	34673.38
811.985	34996.38
812.239	34999.38
812.493	35296.38
812.747	35402.38
813	35513.38
813.254	35650.38
813.508	35864.38
813.762	35999.38
814.015	36130.38
814.269	36450.38
814.522	36686.38
814.776	37258.38
815.03	37556.38
815.283	38028.38
815.536	38792.38
815.79	39165.38
816.043	39858.38
816.296	40484.38
816.55	40916.38
816.803	41416.38
817.056	41938.38
817.309	42347.38
817.562	42800.38
817.815	43165.38
818.068	43430.38
818.321	43994.38
818.574	44433.38
818.827	45058.38
819.079	45447.38
819.332	46019.38
819.585	46837.38
819.838	47426.38
820.09	47630.38
820.343	48281.38
820.595	48278.38
820.848	48721.38
821.1	48775.38
821.353	48792.38
821.605	48699.38
821.857	48928.38
822.11	48683.38
822.362	48359.38
822.614	48407.38
822.866	48356.38
823.118	48309.38
823.37	48550.38
823.622	48635.38
823.874	48689.38
824.126	48825.38
824.378	48851.38
824.63	49162.38
824.882	49203.38
825.134	49255.38
825.385	49195.38
825.637	48977.38
825.888	48816.38
826.14	48788.38
826.392	48581.38
826.643	48273.38
826.895	48168.38
827.146	48154.38
827.397	47818.38
827.649	48104.38
827.9	47770.38
828.151	48039.38
828.402	48149.38
828.653	48149.38
828.905	48220.38
829.156	48312.38
829.407	48410.38
829.658	48412.38
829.909	48227.38
830.159	48314.38
830.41	48018.38
830.661	47652.38
830.912	47396.38
831.162	47277.38
831.413	47068.38
831.664	47139.38
831.914	47057.38
832.165	46981.38
832.415	47000.38
832.666	47008.38
832.916	47129.38
833.167	46983.38
833.417	46998.38
833.667	46756.38
833.917	46364.38
834.168	46452.38
834.418	46270.38
834.668	46134.38
834.918	45944.38
835.168	45820.38
835.418	45686.38
835.668	45373.38
835.918	45274.38
836.167	45176.38
836.417	45026.38
836.667	44977.38
836.917	44902.38
837.166	44949.38
837.416	44854.38
837.666	44827.38
837.915	44559.38
838.165	44577.38
838.414	44486.38
838.663	44254.38
838.913	44271.38
839.162	44046.38
839.411	43961.38
839.661	43707.38
839.91	43642.38
840.159	43675.38
840.408	43566.38
840.657	43514.38
840.906	43537.38
841.155	43609.38
841.404	43449.38
841.653	43328.38
841.902	43484.38
842.15	43618.38
842.399	43539.38
842.648	43322.38
842.897	43331.38
843.145	43089.38
843.394	42891.38
843.642	42607.38
843.891	42444.38
844.139	42021.38
844.388	41805.38
844.636	41720.38
844.884	41681.38
845.133	41592.38
845.381	41466.38
845.629	41471.38
845.877	41446.38
846.125	41287.38
846.373	41255.38
846.621	40893.38
846.869	40890.38
847.117	40559.38
847.365	40368.38
847.613	40238.38
847.861	40114.38
848.108	39956.38
848.356	39919.38
848.604	39777.38
848.851	39812.38
849.099	39968.38
849.346	39892.38
849.594	39897.38
849.841	40189.38
850.089	40269.38
850.336	40111.38
850.583	40250.38
850.831	39941.38
851.078	39599.38
851.325	39720.38
851.572	39531.38
851.819	39238.38
852.066	38525.38
852.313	38186.38
852.56	37843.38
852.807	37745.38
853.054	37540.38
853.301	37310.38
853.548	37498.38
853.794	37655.38
854.041	37752.38
854.288	37838.38
854.534	38058.38
854.781	37970.38
855.028	37833.38
855.274	37747.38
855.52	37543.38
855.767	37322.38
856.013	37327.38
856.26	37359.38
856.506	36887.38
856.752	36872.38
856.998	36776.38
857.244	37013.38
857.49	37080.38
857.736	37120.38
857.982	37113.38
858.228	36912.38
858.474	36738.38
858.72	36339.38
858.966	36198.38
859.212	35727.38
859.458	35447.38
859.703	35102.38
859.949	34758.38
860.195	34528.38
860.44	34350.38
860.686	34114.38
860.931	34001.38
861.177	33751.38
861.422	33868.38
861.667	33627.38
861.913	33713.38
862.158	33837.38
862.403	33965.38
862.648	33948.38
862.893	33974.38
863.138	33826.38
863.384	33793.38
863.629	33661.38
863.873	33562.38
864.118	33420.38
864.363	33352.38
864.608	33216.38
864.853	33062.38
865.098	32890.38
865.342	32797.38
865.587	32378.38
865.832	32580.38
866.076	32450.38
866.321	32366.38
866.565	32240.38
866.81	31862.38
867.054	31911.38
867.298	31898.38
867.543	31747.38
867.787	31527.38
868.031	31532.38
868.275	31465.38
868.519	31371.38
868.764	31389.38
869.008	31261.38
869.252	31066.38
869.496	30893.38
869.739	30819.38
869.983	30860.38
870.227	30696.38
870.471	30584.38
870.715	30804.38
870.958	30728.38
871.202	30787.38
871.446	30744.38
871.689	30866.38
871.933	30858.38
872.176	30796.38
872.42	30590.38
872.663	30577.38
872.906	30441.38
873.15	30326.38
873.393	30176.38
873.636	29995.38
873.879	29652.38
874.122	29458.38
874.366	29097.38
874.609	28866.38
874.852	28743.38
875.095	28485.38
875.337	28206.38
875.58	28197.38
875.823	28106.38
876.066	28131.38
876.309	27976.38
876.551	27650.38
876.794	27592.38
877.037	27621.38
877.279	27496.38
877.522	27590.38
877.764	27644.38
878.007	27452.38
878.249	27522.38
878.491	27382.38
878.734	27377.38
878.976	27225.38
879.218	27196.38
879.46	27113.38
879.702	26829.38
879.945	26674.38
880.187	26431.38
880.429	26285.38
880.671	26065.38
880.912	25981.38
881.154	25786.38
881.396	25696.38
881.638	25897.38
881.88	25730.38
882.121	25610.38
882.363	25573.38
882.605	25585.38
882.846	25386.38
883.088	25346.38
883.329	25188.38
883.571	25204.38
883.812	25254.38
884.053	25434.38
884.295	25711.38
884.536	25756.38
884.777	25575.38
885.018	25439.38
885.259	25357.38
885.5	25276.38
885.742	25422.38
885.982	25122.38
886.223	25034.38
886.464	24930.38
886.705	24704.38
886.946	24554.38
887.187	24362.38
887.428	24075.38
887.668	23847.38
887.909	23584.38
888.15	23378.38
888.39	23289.38
888.631	23122.38
888.871	22976.38
889.111	22796.38
889.352	22614.38
889.592	22446.38
889.833	22354.38
890.073	22072.38
890.313	22035.38
890.553	21847.38
890.793	21844.38
891.033	21728.38
891.273	21489.38
891.513	21411.38
891.753	21392.38
891.993	21325.38
892.233	21380.38
892.473	21402.38
892.713	21438.38
892.952	21443.38
893.192	21438.38
893.432	21221.38
893.671	21237.38
893.911	21092.38
894.15	21057.38
894.39	20805.38
894.629	20660.38
894.869	20659.38
895.108	20456.38
895.347	20245.38
895.587	20289.38
895.826	20059.38
896.065	20078.38
896.304	20026.38
896.543	20051.38
896.782	19897.38
897.021	20002.38
897.26	19878.38
897.499	19811.38
897.738	19655.38
897.977	19491.38
898.216	19370.38
898.454	19269.38
898.693	19074.38
898.932	18987.38
899.17	18861.38
899.409	18750.38
899.647	18776.38
899.886	18680.38
900.124	18721.38
900.363	18639.38
900.601	18550.38
900.839	18630.38
901.078	18608.38
901.316	18672.38
901.554	18649.38
901.792	18638.38
902.03	18689.38
902.268	18659.38
902.506	18635.38
902.744	18561.38
902.982	18421.38
903.22	18159.38
903.458	17942.38
903.695	17832.38
903.933	17588.38
904.171	17340.38
904.409	17032.38
904.646	16882.38
904.884	16566.38
905.121	16534.38
905.359	16344.38
905.596	16208.38
905.833	16025.38
906.071	15982.38
906.308	16005.38
906.545	16002.38
906.783	15776.38
907.02	15731.38
907.257	15685.38
907.494	15734.38
907.731	15800.38
907.968	15682.38
908.205	15507.38
908.442	15354.38
908.679	15432.38
908.915	15203.38
909.152	15078.38
909.389	14916.38
909.626	14814.38
909.862	14688.38
910.099	14700.38
910.335	14704.38
910.572	14472.38
910.808	14489.38
911.045	14437.38
911.281	14429.38
911.518	14383.38
911.754	14248.38
911.99	14087.38
912.226	14041.38
912.463	13965.38
912.699	13812.38
912.935	13727.38
913.171	13656.38
913.407	13363.38
913.643	13408.38
913.879	13182.38
914.114	13097.38
914.35	12959.38
914.586	12858.38
914.822	12794.38
915.057	12679.38
915.293	12649.38
915.529	12386.38
915.764	12568.38
916	12514.38
916.235	12466.38
916.471	12432.38
916.706	12286.38
916.941	12249.38
917.177	12322.38
917.412	12378.38
917.647	12259.38
917.882	12106.38
918.117	12243.38
918.352	12224.38
918.588	12225.38
918.823	12008.38
919.057	11916.38
919.292	11664.38
919.527	11698.38
919.762	11512.38
919.997	11440.38
920.232	11294.38
920.466	11222.38
920.701	11038.38
920.935	10995.38
921.17	10871.38
921.405	10827.38
921.639	10789.38
921.873	10699.38
922.108	10673.38
922.342	10769.38
922.576	10618.38
922.811	10534.38
923.045	10494.38
923.279	10513.38
923.513	10375.38
923.747	10403.38
923.981	10374.38
924.215	10235.38
924.449	10126.38
924.683	10022.38
924.917	9993.38
925.151	9959.38
925.385	10048.38
925.618	9867.38
925.852	9806.38
926.086	9846.38
926.319	9829.38
926.553	9880.38
926.786	9794.38
927.02	9741.38
927.253	9817.38
927.486	9718.38
927.72	9694.38
927.953	9718.38
928.186	9652.38
928.42	9636.38
928.653	9548.38
928.886	9484.38
929.119	9517.38
929.352	9413.38
929.585	9295.38
929.818	9279.38
930.051	9227.38
930.284	9185.38
930.516	9046.38
930.749	9019.38
930.982	8924.38
931.215	8893.38
931.447	8768.38
931.68	8791.38
931.912	8761.38
932.145	8771.38
932.377	8719.38
932.61	8902.38
932.842	8656.38
933.074	8710.38
933.307	8633.38
933.539	8746.38
933.771	8708.38
934.003	8640.38
934.236	8685.38
934.468	8683.38
934.7	8589.38
934.932	8647.38
935.164	8545.38
935.395	8503.38
935.627	8491.38
935.859	8470.38
936.091	8392.38
936.323	8341.38
936.554	8317.38
936.786	8256.38
937.017	8239.38
937.249	8276.38
937.481	8199.38
937.712	8134.38
937.943	8173.38
938.175	8139.38
938.406	8114.38
938.637	8164.38
938.869	8085.38
939.1	8120.38
939.331	7995.38
939.562	8075.38
939.793	7999.38
940.024	8003.38
940.255	8033.38
940.486	7859.38
940.717	7880.38
940.948	7807.38
941.179	7787.38
941.409	7795.38
941.64	7683.38
941.871	7741.38
942.102	7687.38
942.332	7656.38
942.563	7707.38
942.793	7756.38
943.024	7619.38
943.254	7643.38
943.484	7679.38
943.715	7733.38
943.945	7642.38
944.175	7518.38
944.405	7563.38
944.636	7569.38
944.866	7553.38
945.096	7621.38
945.326	7470.38
945.556	7510.38
945.786	7471.38
946.016	7458.38
946.245	7305.38
946.475	7241.38
946.705	7255.38
946.935	7193.38
947.164	7128.38
947.394	7073.38
947.624	7042.38
947.853	7138.38
948.083	7048.38
948.312	7019.38
948.542	6874.38
948.771	6906.38
949	6943.38
949.23	6864.38
949.459	6817.38
949.688	6952.38
949.917	6854.38
950.146	6874.38
950.375	6896.38
950.604	6779.38
950.833	6897.38
951.062	6840.38
951.291	6818.38
951.52	6752.38
951.749	6739.38
951.978	6647.38
952.206	6633.38
952.435	6623.38
952.664	6635.38
952.892	6710.38
953.121	6543.38
953.349	6567.38
953.578	6566.38
953.806	6466.38
954.035	6400.38
954.263	6409.38
954.491	6361.38
954.719	6329.38
954.948	6287.38
955.176	6207.38
955.404	6211.38
955.632	6271.38
955.86	6214.38
956.088	6189.38
956.316	6201.38
956.544	6177.38
956.772	6097.38
956.999	6012.38
957.227	6054.38
957.455	5943.38
957.683	5897.38
957.91	5906.38
958.138	5895.38
958.365	5877.38
958.593	5797.38
958.82	5701.38
959.048	5755.38
959.275	5790.38
959.502	5736.38
959.73	5718.38
959.957	5749.38
960.184	5713.38
960.411	5683.38
960.638	5715.38
960.865	5629.38
961.092	5646.38
961.319	5520.38
961.546	5645.38
961.773	5661.38
962	5614.38
962.227	5634.38
962.454	5575.38
962.68	5517.38
962.907	5526.38
963.134	5447.38
963.36	5462.38
963.587	5405.38
963.813	5330.38
964.04	5319.38
964.266	5267.38
964.493	5328.38
964.719	5244.38
964.945	5267.38
965.171	5130.38
965.398	5151.38
965.624	5180.38
965.85	5053.38
966.076	5068.38
966.302	5068.38
966.528	5024.38
966.754	5055.38
966.98	4988.38
967.206	4968.38
967.431	4896.38
967.657	4986.38
967.883	4914.38
968.109	4878.38
968.334	4852.38
968.56	4905.38
968.785	4858.38
969.011	4780.38
969.236	4860.38
969.462	4764.38
969.687	4781.38
969.912	4792.38
970.138	4819.38
970.363	4720.38
970.588	4744.38
970.813	4706.38
971.038	4642.38
971.263	4664.38
971.488	4645.38
971.713	4694.38
971.938	4620.38
972.163	4516.38
972.388	4571.38
972.613	4496.38
972.838	4495.38
973.062	4454.38
973.287	4534.38
973.512	4373.38
973.736	4409.38
973.961	4389.38
974.185	4371.38
974.41	4357.38
974.634	4232.38
974.858	4269.38
975.083	4269.38
975.307	4277.38
975.531	4165.38
975.755	4070.38
975.98	4130.38
976.204	4028.38
976.428	4008.38
976.652	4042.38
976.876	4004.38
977.1	4012.38
977.324	3930.38
977.547	4005.38
977.771	3967.38
977.995	3946.38
978.219	3887.38
978.442	4030.38
978.666	3964.38
978.89	3911.38
979.113	3877.38
979.337	3875.38
979.56	3837.38
979.783	3949.38
980.007	3804.38
980.23	3813.38
980.453	3785.38
980.677	3809.38
980.9	3747.38
981.123	3659.38
981.346	3780.38
981.569	3731.38
981.792	3723.38
982.015	3679.38
982.238	3624.38
982.461	3605.38
982.684	3590.38
982.907	3536.38
983.129	3554.38
983.352	3568.38
983.575	3519.38
983.797	3499.38
984.02	3466.38
984.242	3436.38
984.465	3432.38
984.687	3475.38
984.91	3435.38
985.132	3366.38
985.354	3420.38
985.577	3360.38
985.799	3354.38
986.021	3277.38
986.243	3306.38
986.465	3275.38
986.687	3334.38
986.909	3363.38
987.131	3274.38
987.353	3222.38
987.575	3292.38
987.797	3237.38
988.019	3156.38
988.241	3205.38
988.462	3175.38
988.684	3207.38
988.906	3229.38
989.127	3217.38
989.349	3115.38
989.57	3122.38
989.792	3174.38
990.013	3168.38
990.234	3138.38
990.456	3152.38
990.677	3122.38
990.898	3078.38
991.119	3053.38
991.341	3058.38
991.562	3020.38
991.783	3034.38
992.004	2928.38
992.225	2951.38
992.446	2973.38
992.667	2823.38
992.887	2914.38
993.108	2830.38
993.329	2929.38
993.55	2892.38
993.77	2821.38
993.991	2763.38
994.212	2857.38
994.432	2778.38
994.653	2778.38
994.873	2771.38
995.093	2643.38
995.314	2727.38
995.534	2747.38
995.754	2784.38
995.975	2773.38
996.195	2664.38
996.415	2706.38
996.635	2668.38
996.855	2678.38
997.075	2667.38
997.295	2644.38
997.515	2644.38
997.735	2661.38
997.955	2627.38
998.174	2631.38
998.394	2599.38
998.614	2638.38
998.834	2562.38
999.053	2649.38
999.273	2600.38
999.492	2658.38
999.712	2565.38
999.931	2532.38
1000.151	2594.38
1000.37	2525.38
1000.589	2573.38
1000.809	2503.38
1001.028	2576.38
1001.247	2501.38
1001.466	2426.38
1001.685	2546.38
1001.904	2462.38
1002.123	2438.38
1002.342	2446.38
1002.561	2374.38
1002.78	2370.38
1002.999	2478.38
1003.218	2394.38
1003.436	2344.38
1003.655	2428.38
1003.874	2365.38
1004.092	2291.38
1004.311	2358.38
1004.53	2305.38
1004.748	2387.38
1004.966	2319.38
1005.185	2370.38
1005.403	2350.38
1005.622	2306.38
1005.84	2400.38
1006.058	2290.38
1006.276	2293.38
1006.494	2771.38
1006.712	2299.38
1006.931	2304.38
1007.149	2269.38
1007.367	2269.38
1007.584	2283.38
1007.802	2287.38
1008.02	2239.38
1008.238	2312.38
1008.456	2314.38
1008.673	2191.38
1008.891	2332.38
1009.109	2272.38
1009.326	2309.38
1009.544	2376.38
1009.761	2298.38
1009.979	2367.38
1010.196	2446.38
1010.413	2473.38
1010.631	2549.38
1010.848	2601.38
1011.065	2589.38
1011.282	2558.38
1011.5	2505.38
1011.717	2585.38
1011.934	2493.38
1012.151	2557.38
1012.368	2521.38
1012.585	2459.38
1012.801	2519.38
1013.018	2459.38
1013.235	2423.38
1013.452	2433.38
1013.669	2451.38
1013.885	2424.38
1014.102	2489.38
1014.318	2461.38
1014.535	2397.38
1014.751	2361.38
1014.968	2380.38
1015.184	2426.38
1015.401	2329.38
1015.617	2335.38
1015.833	2299.38
1016.049	2271.38
1016.266	2239.38
1016.482	2212.38
1016.698	2158.38
1016.914	2197.38
1017.13	2147.38
1017.346	2131.38
1017.562	2170.38
1017.778	2159.38
1017.993	2085.38
1018.209	2106.38
1018.425	2091.38
1018.641	2068.38
1018.856	2033.38
1019.072	2053.38
1019.288	2098.38
1019.503	2065.38
1019.719	1968.38
1019.934	1977.38
1020.149	2055.38
1020.365	1968.38
1020.58	1932.38
1020.795	1998.38
1021.011	1890.38
1021.226	1834.38
1021.441	1899.38
1021.656	1773.38
1021.871	1695.38
1022.086	1719.38
1022.301	1678.38
1022.516	1682.38
1022.731	1682.38
1022.946	1614.38
1023.16	1595.38
1023.375	1570.38
1023.59	1551.38
1023.804	1487.38
1024.019	1614.38
1024.234	1436.38
1024.448	1491.38
1024.663	1409.38
1024.877	1419.38
1025.092	1413.38
1025.306	1424.38
1025.52	1307.38
1025.734	1394.38
1025.949	1274.38
1026.163	1252.38
1026.377	1202.38
1026.591	1239.38
1026.805	1145.38
1027.019	1140.38
1027.233	1106.38
1027.447	1053.38
1027.661	1138.38
1027.875	1094.38
1028.088	1069.38
1028.302	1020.38
1028.516	970.38
1028.73	960.38
1028.943	955.38
1029.157	885.38
1029.37	824.38
1029.584	1.38
1029.797	-1.62
1030.011	-1.62
1030.224	-1.62
