Data from QEP037381__221__16-00-19-893.txt Node

Date: Fri Dec 16 16:00:19 EST 2022
User: dcclab
Spectrometer: QEP03738
Trigger mode: 4
Integration Time (sec): 1.000000E1
Scans to average: 1
Electric dark correction enabled: true
Nonlinearity correction enabled: false
Boxcar width: 0
XAxis mode: Wavelengths
Number of Pixels in Spectrum: 1044
>>>>>Begin Spectral Data<<<<<
784.041	12.62
784.3	1.62
784.558	-1.38
784.817	-0.38
785.075	116592.62
785.334	20273.62
785.592	9595.62
785.851	6645.62
786.109	4997.62
786.368	3829.62
786.626	3093.62
786.884	2536.62
787.143	2081.62
787.401	1763.62
787.659	1572.62
787.917	1372.62
788.175	1203.62
788.433	1064.62
788.691	969.62
788.949	861.62
789.207	834.62
789.465	714.62
789.723	702.62
789.98	639.62
790.238	670.62
790.496	617.62
790.753	603.62
791.011	641.62
791.268	577.62
791.526	548.62
791.783	587.62
792.041	549.62
792.298	456.62
792.556	531.62
792.813	511.62
793.07	486.62
793.327	487.62
793.584	545.62
793.841	488.62
794.099	487.62
794.356	543.62
794.613	443.62
794.869	478.62
795.126	449.62
795.383	443.62
795.64	456.62
795.897	411.62
796.153	479.62
796.41	451.62
796.667	427.62
796.923	445.62
797.18	440.62
797.436	464.62
797.693	431.62
797.949	483.62
798.206	526.62
798.462	428.62
798.718	486.62
798.974	461.62
799.231	502.62
799.487	488.62
799.743	501.62
799.999	522.62
800.255	523.62
800.511	519.62
800.767	560.62
801.023	546.62
801.279	580.62
801.534	625.62
801.79	681.62
802.046	712.62
802.302	847.62
802.557	991.62
802.813	1219.62
803.068	1514.62
803.324	2091.62
803.579	2841.62
803.835	3902.62
804.09	5421.62
804.345	7125.62
804.601	8958.62
804.856	10932.62
805.111	12643.62
805.366	13947.62
805.621	14956.62
805.876	15663.62
806.131	16103.62
806.386	16376.62
806.641	16678.62
806.896	16945.62
807.151	17247.62
807.406	17489.62
807.661	17871.62
807.915	18084.62
808.17	18433.62
808.425	18508.62
808.679	18639.62
808.934	18981.62
809.188	19016.62
809.443	19226.62
809.697	19440.62
809.951	19586.62
810.206	19694.62
810.46	19923.62
810.714	20112.62
810.968	20279.62
811.223	20382.62
811.477	20588.62
811.731	20773.62
811.985	20824.62
812.239	20845.62
812.493	21075.62
812.747	20973.62
813	21114.62
813.254	21142.62
813.508	21267.62
813.762	21454.62
814.015	21540.62
814.269	21667.62
814.522	21818.62
814.776	22044.62
815.03	22350.62
815.283	22592.62
815.536	22940.62
815.79	23291.62
816.043	23709.62
816.296	23873.62
816.55	24133.62
816.803	24430.62
817.056	24809.62
817.309	24962.62
817.562	25110.62
817.815	25358.62
818.068	25630.62
818.321	25931.62
818.574	26063.62
818.827	26436.62
819.079	26727.62
819.332	27084.62
819.585	27482.62
819.838	27762.62
820.09	27841.62
820.343	28139.62
820.595	28175.62
820.848	28434.62
821.1	28470.62
821.353	28488.62
821.605	28508.62
821.857	28484.62
822.11	28309.62
822.362	28185.62
822.614	28242.62
822.866	28256.62
823.118	28193.62
823.37	28395.62
823.622	28398.62
823.874	28463.62
824.126	28546.62
824.378	28599.62
824.63	28622.62
824.882	28820.62
825.134	28671.62
825.385	28685.62
825.637	28482.62
825.888	28496.62
826.14	28389.62
826.392	28330.62
826.643	27971.62
826.895	28041.62
827.146	27911.62
827.397	27857.62
827.649	27770.62
827.9	27778.62
828.151	27817.62
828.402	27878.62
828.653	27879.62
828.905	27937.62
829.156	28067.62
829.407	27990.62
829.658	27964.62
829.909	28083.62
830.159	27931.62
830.41	27918.62
830.661	27704.62
830.912	27434.62
831.162	27442.62
831.413	27404.62
831.664	27358.62
831.914	27242.62
832.165	27235.62
832.415	27238.62
832.666	27207.62
832.916	27314.62
833.167	27133.62
833.417	27174.62
833.667	27253.62
833.917	26977.62
834.168	26950.62
834.418	26830.62
834.668	26599.62
834.918	26607.62
835.168	26528.62
835.418	26343.62
835.668	26262.62
835.918	26241.62
836.167	26212.62
836.417	26110.62
836.667	26017.62
836.917	26026.62
837.166	26002.62
837.416	26054.62
837.666	26060.62
837.915	25902.62
838.165	25828.62
838.414	25859.62
838.663	25719.62
838.913	25649.62
839.162	25579.62
839.411	25603.62
839.661	25373.62
839.91	25333.62
840.159	25321.62
840.408	25233.62
840.657	25166.62
840.906	25228.62
841.155	25308.62
841.404	25293.62
841.653	25285.62
841.902	25257.62
842.15	25247.62
842.399	25385.62
842.648	25303.62
842.897	25155.62
843.145	25078.62
843.394	24859.62
843.642	24833.62
843.891	24604.62
844.139	24448.62
844.388	24308.62
844.636	24093.62
844.884	24196.62
845.133	24226.62
845.381	24121.62
845.629	24109.62
845.877	24082.62
846.125	23935.62
846.373	23872.62
846.621	23989.62
846.869	23737.62
847.117	23685.62
847.365	23518.62
847.613	23402.62
847.861	23346.62
848.108	23326.62
848.356	23241.62
848.604	23125.62
848.851	23187.62
849.099	23343.62
849.346	23236.62
849.594	23326.62
849.841	23282.62
850.089	23360.62
850.336	23350.62
850.583	23372.62
850.831	23153.62
851.078	23103.62
851.325	23091.62
851.572	23137.62
851.819	22958.62
852.066	22539.62
852.313	22320.62
852.56	21998.62
852.807	21933.62
853.054	21895.62
853.301	21841.62
853.548	21862.62
853.794	21985.62
854.041	22024.62
854.288	22096.62
854.534	22227.62
854.781	22232.62
855.028	22077.62
855.274	22137.62
855.52	21854.62
855.767	21784.62
856.013	21975.62
856.26	22173.62
856.506	21685.62
856.752	21537.62
856.998	21605.62
857.244	21559.62
857.49	21692.62
857.736	21781.62
857.982	21646.62
858.228	21769.62
858.474	21467.62
858.72	21359.62
858.966	21122.62
859.212	21012.62
859.458	20758.62
859.703	20527.62
859.949	20358.62
860.195	20233.62
860.44	20176.62
860.686	20026.62
860.931	20055.62
861.177	19884.62
861.422	19770.62
861.667	19687.62
861.913	19722.62
862.158	19773.62
862.403	19792.62
862.648	19785.62
862.893	19815.62
863.138	19766.62
863.384	19705.62
863.629	19802.62
863.873	19642.62
864.118	19592.62
864.363	19411.62
864.608	19400.62
864.853	19313.62
865.098	19211.62
865.342	19146.62
865.587	19059.62
865.832	19079.62
866.076	19130.62
866.321	18991.62
866.565	18934.62
866.81	18750.62
867.054	18782.62
867.298	18620.62
867.543	18602.62
867.787	18603.62
868.031	18493.62
868.275	18430.62
868.519	18455.62
868.764	18422.62
869.008	18422.62
869.252	18369.62
869.496	18263.62
869.739	18159.62
869.983	18275.62
870.227	18149.62
870.471	18121.62
870.715	18314.62
870.958	18160.62
871.202	18158.62
871.446	18232.62
871.689	18336.62
871.933	18260.62
872.176	18223.62
872.42	18162.62
872.663	18131.62
872.906	18124.62
873.15	18085.62
873.393	17997.62
873.636	17991.62
873.879	17759.62
874.122	17571.62
874.366	17372.62
874.609	17225.62
874.852	17074.62
875.095	17036.62
875.337	16936.62
875.58	16702.62
875.823	16789.62
876.066	16779.62
876.309	16706.62
876.551	16555.62
876.794	16496.62
877.037	16472.62
877.279	16411.62
877.522	16406.62
877.764	16481.62
878.007	16368.62
878.249	16389.62
878.491	16311.62
878.734	16257.62
878.976	16287.62
879.218	16130.62
879.46	16035.62
879.702	15911.62
879.945	15803.62
880.187	15600.62
880.429	15586.62
880.671	15422.62
880.912	15395.62
881.154	15419.62
881.396	15296.62
881.638	15331.62
881.88	15261.62
882.121	15323.62
882.363	15141.62
882.605	15288.62
882.846	15207.62
883.088	15148.62
883.329	15185.62
883.571	15130.62
883.812	15192.62
884.053	15446.62
884.295	15735.62
884.536	15776.62
884.777	15670.62
885.018	15551.62
885.259	15514.62
885.5	15314.62
885.742	15626.62
885.982	15320.62
886.223	15085.62
886.464	15087.62
886.705	14958.62
886.946	14878.62
887.187	14590.62
887.428	14585.62
887.668	14386.62
887.909	14109.62
888.15	13950.62
888.39	13936.62
888.631	13782.62
888.871	13742.62
889.111	13576.62
889.352	13573.62
889.592	13357.62
889.833	13301.62
890.073	13152.62
890.313	13237.62
890.553	13090.62
890.793	13016.62
891.033	12993.62
891.273	12920.62
891.513	12849.62
891.753	12777.62
891.993	12802.62
892.233	12812.62
892.473	12858.62
892.713	12737.62
892.952	12839.62
893.192	12749.62
893.432	12722.62
893.671	12706.62
893.911	12686.62
894.15	12568.62
894.39	12570.62
894.629	12454.62
894.869	12339.62
895.108	12346.62
895.347	12186.62
895.587	12195.62
895.826	12118.62
896.065	12116.62
896.304	12118.62
896.543	12162.62
896.782	12070.62
897.021	11999.62
897.26	11971.62
897.499	11904.62
897.738	12027.62
897.977	11791.62
898.216	11724.62
898.454	11744.62
898.693	11565.62
898.932	11558.62
899.17	11515.62
899.409	11369.62
899.647	11408.62
899.886	11261.62
900.124	11377.62
900.363	11369.62
900.601	11383.62
900.839	11385.62
901.078	11391.62
901.316	11328.62
901.554	11549.62
901.792	11484.62
902.03	11442.62
902.268	11469.62
902.506	11461.62
902.744	11417.62
902.982	11304.62
903.22	11147.62
903.458	11063.62
903.695	10870.62
903.933	10751.62
904.171	10585.62
904.409	10446.62
904.646	10300.62
904.884	10137.62
905.121	10133.62
905.359	9984.62
905.596	9787.62
905.833	9713.62
906.071	9757.62
906.308	9753.62
906.545	9632.62
906.783	9649.62
907.02	9565.62
907.257	9560.62
907.494	9559.62
907.731	9515.62
907.968	9504.62
908.205	9426.62
908.442	9405.62
908.679	9276.62
908.915	9246.62
909.152	9164.62
909.389	9019.62
909.626	9002.62
909.862	8855.62
910.099	8903.62
910.335	8923.62
910.572	8790.62
910.808	8809.62
911.045	8813.62
911.281	8673.62
911.518	8758.62
911.754	8708.62
911.99	8599.62
912.226	8530.62
912.463	8413.62
912.699	8437.62
912.935	8344.62
913.171	8245.62
913.407	8158.62
913.643	8177.62
913.879	8140.62
914.114	8008.62
914.35	7930.62
914.586	7789.62
914.822	7774.62
915.057	7785.62
915.293	7600.62
915.529	7569.62
915.764	7676.62
916	7548.62
916.235	7560.62
916.471	7613.62
916.706	7495.62
916.941	7556.62
917.177	7510.62
917.412	7517.62
917.647	7444.62
917.882	7431.62
918.117	7439.62
918.352	7474.62
918.588	7438.62
918.823	7383.62
919.057	7259.62
919.292	7121.62
919.527	7173.62
919.762	7013.62
919.997	7067.62
920.232	6873.62
920.466	6862.62
920.701	6772.62
920.935	6760.62
921.17	6733.62
921.405	6633.62
921.639	6650.62
921.873	6633.62
922.108	6586.62
922.342	6570.62
922.576	6527.62
922.811	6507.62
923.045	6546.62
923.279	6564.62
923.513	6370.62
923.747	6464.62
923.981	6339.62
924.215	6288.62
924.449	6286.62
924.683	6243.62
924.917	6164.62
925.151	6153.62
925.385	6209.62
925.618	6138.62
925.852	6139.62
926.086	6007.62
926.319	6074.62
926.553	6108.62
926.786	6069.62
927.02	6066.62
927.253	6118.62
927.486	6047.62
927.72	5997.62
927.953	6050.62
928.186	5975.62
928.42	6000.62
928.653	5937.62
928.886	5869.62
929.119	5949.62
929.352	5822.62
929.585	5797.62
929.818	5700.62
930.051	5701.62
930.284	5729.62
930.516	5603.62
930.749	5553.62
930.982	5555.62
931.215	5529.62
931.447	5464.62
931.68	5504.62
931.912	5450.62
932.145	5432.62
932.377	5467.62
932.61	5553.62
932.842	5400.62
933.074	5424.62
933.307	5375.62
933.539	5443.62
933.771	5415.62
934.003	5366.62
934.236	5470.62
934.468	5456.62
934.7	5359.62
934.932	5388.62
935.164	5313.62
935.395	5293.62
935.627	5269.62
935.859	5305.62
936.091	5226.62
936.323	5252.62
936.554	5259.62
936.786	5217.62
937.017	5117.62
937.249	5243.62
937.481	5147.62
937.712	5173.62
937.943	5149.62
938.175	5084.62
938.406	5130.62
938.637	5151.62
938.869	5006.62
939.1	5096.62
939.331	5006.62
939.562	5059.62
939.793	4952.62
940.024	4963.62
940.255	5011.62
940.486	4940.62
940.717	4939.62
940.948	4931.62
941.179	4846.62
941.409	4814.62
941.64	4795.62
941.871	4857.62
942.102	4821.62
942.332	4807.62
942.563	4840.62
942.793	4848.62
943.024	4744.62
943.254	4827.62
943.484	4808.62
943.715	4867.62
943.945	4822.62
944.175	4778.62
944.405	4741.62
944.636	4686.62
944.866	4737.62
945.096	4727.62
945.326	4674.62
945.556	4721.62
945.786	4689.62
946.016	4686.62
946.245	4583.62
946.475	4569.62
946.705	4578.62
946.935	4568.62
947.164	4502.62
947.394	4486.62
947.624	4435.62
947.853	4509.62
948.083	4425.62
948.312	4454.62
948.542	4373.62
948.771	4309.62
949	4304.62
949.23	4328.62
949.459	4316.62
949.688	4402.62
949.917	4343.62
950.146	4309.62
950.375	4361.62
950.604	4250.62
950.833	4370.62
951.062	4293.62
951.291	4267.62
951.52	4252.62
951.749	4240.62
951.978	4171.62
952.206	4200.62
952.435	4169.62
952.664	4215.62
952.892	4171.62
953.121	4179.62
953.349	4146.62
953.578	4166.62
953.806	4110.62
954.035	4074.62
954.263	4039.62
954.491	3955.62
954.719	4080.62
954.948	3965.62
955.176	3943.62
955.404	3900.62
955.632	3972.62
955.86	3943.62
956.088	3938.62
956.316	3912.62
956.544	3921.62
956.772	3875.62
956.999	3804.62
957.227	3881.62
957.455	3777.62
957.683	3764.62
957.91	3725.62
958.138	3715.62
958.365	3664.62
958.593	3688.62
958.82	3643.62
959.048	3676.62
959.275	3627.62
959.502	3614.62
959.73	3617.62
959.957	3604.62
960.184	3641.62
960.411	3601.62
960.638	3680.62
960.865	3630.62
961.092	3607.62
961.319	3527.62
961.546	3621.62
961.773	3608.62
962	3590.62
962.227	3604.62
962.454	3576.62
962.68	3534.62
962.907	3551.62
963.134	3458.62
963.36	3535.62
963.587	3519.62
963.813	3425.62
964.04	3458.62
964.266	3379.62
964.493	3463.62
964.719	3371.62
964.945	3409.62
965.171	3290.62
965.398	3318.62
965.624	3344.62
965.85	3235.62
966.076	3317.62
966.302	3302.62
966.528	3262.62
966.754	3222.62
966.98	3265.62
967.206	3250.62
967.431	3188.62
967.657	3223.62
967.883	3220.62
968.109	3217.62
968.334	3148.62
968.56	3133.62
968.785	3118.62
969.011	3087.62
969.236	3113.62
969.462	3078.62
969.687	3098.62
969.912	3078.62
970.138	3129.62
970.363	3042.62
970.588	3045.62
970.813	3030.62
971.038	2960.62
971.263	3038.62
971.488	3019.62
971.713	3051.62
971.938	3020.62
972.163	2889.62
972.388	2950.62
972.613	2889.62
972.838	2926.62
973.062	2884.62
973.287	2893.62
973.512	2840.62
973.736	2865.62
973.961	2811.62
974.185	2813.62
974.41	2858.62
974.634	2763.62
974.858	2732.62
975.083	2801.62
975.307	2783.62
975.531	2738.62
975.755	2657.62
975.98	2713.62
976.204	2644.62
976.428	2615.62
976.652	2616.62
976.876	2568.62
977.1	2626.62
977.324	2598.62
977.547	2625.62
977.771	2638.62
977.995	2577.62
978.219	2538.62
978.442	2653.62
978.666	2561.62
978.89	2554.62
979.113	2557.62
979.337	2537.62
979.56	2508.62
979.783	2599.62
980.007	2483.62
980.23	2496.62
980.453	2463.62
980.677	2513.62
980.9	2478.62
981.123	2416.62
981.346	2479.62
981.569	2475.62
981.792	2459.62
982.015	2429.62
982.238	2378.62
982.461	2358.62
982.684	2357.62
982.907	2346.62
983.129	2339.62
983.352	2365.62
983.575	2348.62
983.797	2347.62
984.02	2306.62
984.242	2270.62
984.465	2292.62
984.687	2308.62
984.91	2351.62
985.132	2287.62
985.354	2308.62
985.577	2282.62
985.799	2248.62
986.021	2167.62
986.243	2212.62
986.465	2214.62
986.687	2291.62
986.909	2286.62
987.131	2231.62
987.353	2177.62
987.575	2234.62
987.797	2184.62
988.019	2113.62
988.241	2180.62
988.462	2118.62
988.684	2180.62
988.906	2193.62
989.127	2231.62
989.349	2072.62
989.57	2116.62
989.792	2176.62
990.013	2138.62
990.234	2144.62
990.456	2177.62
990.677	2143.62
990.898	2102.62
991.119	2073.62
991.341	2128.62
991.562	2038.62
991.783	2084.62
992.004	2003.62
992.225	2008.62
992.446	2035.62
992.667	1988.62
992.887	2032.62
993.108	1936.62
993.329	2070.62
993.55	1984.62
993.77	1954.62
993.991	1963.62
994.212	1973.62
994.432	1936.62
994.653	1952.62
994.873	1916.62
995.093	1824.62
995.314	1832.62
995.534	1914.62
995.754	1911.62
995.975	1949.62
996.195	1854.62
996.415	1894.62
996.635	1868.62
996.855	1893.62
997.075	1842.62
997.295	1855.62
997.515	1816.62
997.735	1885.62
997.955	1842.62
998.174	1838.62
998.394	1785.62
998.614	1854.62
998.834	1797.62
999.053	1885.62
999.273	1849.62
999.492	1905.62
999.712	1814.62
999.931	1784.62
1000.151	1802.62
1000.37	1786.62
1000.589	1859.62
1000.809	1776.62
1001.028	1868.62
1001.247	1792.62
1001.466	1712.62
1001.685	1837.62
1001.904	1787.62
1002.123	1755.62
1002.342	1759.62
1002.561	1722.62
1002.78	1741.62
1002.999	1752.62
1003.218	1748.62
1003.436	1699.62
1003.655	1757.62
1003.874	1697.62
1004.092	1736.62
1004.311	1732.62
1004.53	1678.62
1004.748	1775.62
1004.966	1683.62
1005.185	1732.62
1005.403	1741.62
1005.622	1699.62
1005.84	1779.62
1006.058	1644.62
1006.276	1670.62
1006.494	2173.62
1006.712	1683.62
1006.931	1749.62
1007.149	1667.62
1007.367	1656.62
1007.584	1708.62
1007.802	1733.62
1008.02	1683.62
1008.238	1777.62
1008.456	1793.62
1008.673	1633.62
1008.891	1748.62
1009.109	1682.62
1009.326	1748.62
1009.544	1840.62
1009.761	1750.62
1009.979	1842.62
1010.196	1858.62
1010.413	1957.62
1010.631	2006.62
1010.848	2065.62
1011.065	2015.62
1011.282	1985.62
1011.5	1932.62
1011.717	2026.62
1011.934	1976.62
1012.151	2023.62
1012.368	1997.62
1012.585	1905.62
1012.801	1976.62
1013.018	1942.62
1013.235	1924.62
1013.452	1894.62
1013.669	1953.62
1013.885	1930.62
1014.102	1962.62
1014.318	1948.62
1014.535	1863.62
1014.751	1901.62
1014.968	1896.62
1015.184	1952.62
1015.401	1827.62
1015.617	1867.62
1015.833	1798.62
1016.049	1827.62
1016.266	1790.62
1016.482	1807.62
1016.698	1747.62
1016.914	1787.62
1017.13	1719.62
1017.346	1720.62
1017.562	1739.62
1017.778	1700.62
1017.993	1650.62
1018.209	1735.62
1018.425	1666.62
1018.641	1658.62
1018.856	1626.62
1019.072	1642.62
1019.288	1710.62
1019.503	1641.62
1019.719	1590.62
1019.934	1561.62
1020.149	1669.62
1020.365	1622.62
1020.58	1547.62
1020.795	1579.62
1021.011	1531.62
1021.226	1476.62
1021.441	1474.62
1021.656	1414.62
1021.871	1354.62
1022.086	1359.62
1022.301	1363.62
1022.516	1341.62
1022.731	1357.62
1022.946	1271.62
1023.16	1280.62
1023.375	1249.62
1023.59	1206.62
1023.804	1190.62
1024.019	1256.62
1024.234	1170.62
1024.448	1172.62
1024.663	1108.62
1024.877	1116.62
1025.092	1124.62
1025.306	1118.62
1025.52	1012.62
1025.734	1129.62
1025.949	1025.62
1026.163	991.62
1026.377	931.62
1026.591	987.62
1026.805	917.62
1027.019	921.62
1027.233	853.62
1027.447	832.62
1027.661	918.62
1027.875	869.62
1028.088	849.62
1028.302	790.62
1028.516	782.62
1028.73	771.62
1028.943	759.62
1029.157	712.62
1029.37	682.62
1029.584	-0.38
1029.797	-5.38
1030.011	-4.38
1030.224	-2.38
