Data from QEP037381__141__15-46-59-883.txt Node

Date: Fri Dec 16 15:46:59 EST 2022
User: dcclab
Spectrometer: QEP03738
Trigger mode: 4
Integration Time (sec): 1.000000E1
Scans to average: 1
Electric dark correction enabled: true
Nonlinearity correction enabled: false
Boxcar width: 0
XAxis mode: Wavelengths
Number of Pixels in Spectrum: 1044
>>>>>Begin Spectral Data<<<<<
784.041	11.75
784.3	-0.25
784.558	-1.25
784.817	-5.25
785.075	108810.75
785.334	19312.75
785.592	9279.75
785.851	6427.75
786.109	4896.75
786.368	3745.75
786.626	3016.75
786.884	2497.75
787.143	2085.75
787.401	1738.75
787.659	1583.75
787.917	1332.75
788.175	1197.75
788.433	1070.75
788.691	945.75
788.949	863.75
789.207	814.75
789.465	722.75
789.723	686.75
789.98	622.75
790.238	653.75
790.496	626.75
790.753	598.75
791.011	644.75
791.268	573.75
791.526	563.75
791.783	567.75
792.041	538.75
792.298	455.75
792.556	541.75
792.813	525.75
793.07	475.75
793.327	476.75
793.584	549.75
793.841	487.75
794.099	488.75
794.356	538.75
794.613	464.75
794.869	491.75
795.126	444.75
795.383	419.75
795.64	456.75
795.897	389.75
796.153	453.75
796.41	447.75
796.667	426.75
796.923	437.75
797.18	452.75
797.436	472.75
797.693	436.75
797.949	479.75
798.206	518.75
798.462	425.75
798.718	495.75
798.974	461.75
799.231	521.75
799.487	502.75
799.743	501.75
799.999	539.75
800.255	540.75
800.511	530.75
800.767	586.75
801.023	571.75
801.279	601.75
801.534	661.75
801.79	722.75
802.046	743.75
802.302	888.75
802.557	1058.75
802.813	1325.75
803.068	1676.75
803.324	2322.75
803.579	3198.75
803.835	4435.75
804.09	6077.75
804.345	7944.75
804.601	9987.75
804.856	12176.75
805.111	13979.75
805.366	15381.75
805.621	16451.75
805.876	17225.75
806.131	17690.75
806.386	18000.75
806.641	18260.75
806.896	18522.75
807.151	18944.75
807.406	19178.75
807.661	19437.75
807.915	19828.75
808.17	20090.75
808.425	20346.75
808.679	20461.75
808.934	20716.75
809.188	20859.75
809.443	21044.75
809.697	21290.75
809.951	21405.75
810.206	21576.75
810.46	21844.75
810.714	21973.75
810.968	22163.75
811.223	22345.75
811.477	22501.75
811.731	22738.75
811.985	22778.75
812.239	22890.75
812.493	22904.75
812.747	22978.75
813	23004.75
813.254	23233.75
813.508	23326.75
813.762	23255.75
814.015	23448.75
814.269	23575.75
814.522	23756.75
814.776	24082.75
815.03	24274.75
815.283	24624.75
815.536	25005.75
815.79	25402.75
816.043	25570.75
816.296	26004.75
816.55	26395.75
816.803	26528.75
817.056	26903.75
817.309	27168.75
817.562	27372.75
817.815	27571.75
818.068	27604.75
818.321	28048.75
818.574	28269.75
818.827	28643.75
819.079	29031.75
819.332	29472.75
819.585	29696.75
819.838	30266.75
820.09	30312.75
820.343	30433.75
820.595	30457.75
820.848	30918.75
821.1	30871.75
821.353	30834.75
821.605	30943.75
821.857	30852.75
822.11	30646.75
822.362	30738.75
822.614	30678.75
822.866	30646.75
823.118	30483.75
823.37	30740.75
823.622	30788.75
823.874	30817.75
824.126	30986.75
824.378	31076.75
824.63	31077.75
824.882	31254.75
825.134	31066.75
825.385	31001.75
825.637	30952.75
825.888	30910.75
826.14	30718.75
826.392	30754.75
826.643	30454.75
826.895	30520.75
827.146	30308.75
827.397	30092.75
827.649	30295.75
827.9	30014.75
828.151	30184.75
828.402	30279.75
828.653	30277.75
828.905	30355.75
829.156	30516.75
829.407	30383.75
829.658	30402.75
829.909	30637.75
830.159	30517.75
830.41	30340.75
830.661	30063.75
830.912	29810.75
831.162	29722.75
831.413	29665.75
831.664	29899.75
831.914	29872.75
832.165	29601.75
832.415	29599.75
832.666	29757.75
832.916	29751.75
833.167	29583.75
833.417	29516.75
833.667	29486.75
833.917	29409.75
834.168	29319.75
834.418	29322.75
834.668	29051.75
834.918	28845.75
835.168	28647.75
835.418	28740.75
835.668	28762.75
835.918	28586.75
836.167	28439.75
836.417	28447.75
836.667	28346.75
836.917	28295.75
837.166	28349.75
837.416	28294.75
837.666	28266.75
837.915	28212.75
838.165	28243.75
838.414	28003.75
838.663	27830.75
838.913	27996.75
839.162	27877.75
839.411	27953.75
839.661	27741.75
839.91	27556.75
840.159	27537.75
840.408	27576.75
840.657	27586.75
840.906	27636.75
841.155	27599.75
841.404	27489.75
841.653	27474.75
841.902	27566.75
842.15	27697.75
842.399	27478.75
842.648	27568.75
842.897	27582.75
843.145	27267.75
843.394	27046.75
843.642	27022.75
843.891	26816.75
844.139	26706.75
844.388	26471.75
844.636	26486.75
844.884	26384.75
845.133	26333.75
845.381	26313.75
845.629	26275.75
845.877	26297.75
846.125	26138.75
846.373	26133.75
846.621	25979.75
846.869	25864.75
847.117	25882.75
847.365	25670.75
847.613	25508.75
847.861	25401.75
848.108	25374.75
848.356	25405.75
848.604	25321.75
848.851	25260.75
849.099	25368.75
849.346	25346.75
849.594	25452.75
849.841	25512.75
850.089	25505.75
850.336	25620.75
850.583	25365.75
850.831	25232.75
851.078	25178.75
851.325	25139.75
851.572	25351.75
851.819	25067.75
852.066	24622.75
852.313	24233.75
852.56	24158.75
852.807	23935.75
853.054	23855.75
853.301	23927.75
853.548	23813.75
853.794	24010.75
854.041	24112.75
854.288	24111.75
854.534	24425.75
854.781	24303.75
855.028	24055.75
855.274	24067.75
855.52	23993.75
855.767	23836.75
856.013	23950.75
856.26	24234.75
856.506	23691.75
856.752	23619.75
856.998	23678.75
857.244	23685.75
857.49	23878.75
857.736	23866.75
857.982	23776.75
858.228	23714.75
858.474	23517.75
858.72	23393.75
858.966	23281.75
859.212	23026.75
859.458	22744.75
859.703	22500.75
859.949	22201.75
860.195	22217.75
860.44	22154.75
860.686	21888.75
860.931	21972.75
861.177	21708.75
861.422	21800.75
861.667	21630.75
861.913	21653.75
862.158	21615.75
862.403	21594.75
862.648	21609.75
862.893	21674.75
863.138	21647.75
863.384	21548.75
863.629	21599.75
863.873	21447.75
864.118	21554.75
864.363	21310.75
864.608	21324.75
864.853	21140.75
865.098	21073.75
865.342	21013.75
865.587	20934.75
865.832	20909.75
866.076	20828.75
866.321	20833.75
866.565	20667.75
866.81	20597.75
867.054	20484.75
867.298	20447.75
867.543	20363.75
867.787	20285.75
868.031	20232.75
868.275	20247.75
868.519	20176.75
868.764	20208.75
869.008	20034.75
869.252	20129.75
869.496	20126.75
869.739	19969.75
869.983	19976.75
870.227	20003.75
870.471	19938.75
870.715	19856.75
870.958	19917.75
871.202	19876.75
871.446	20102.75
871.689	20017.75
871.933	20014.75
872.176	19981.75
872.42	19970.75
872.663	19882.75
872.906	19858.75
873.15	19789.75
873.393	19733.75
873.636	19813.75
873.879	19684.75
874.122	19342.75
874.366	19015.75
874.609	18911.75
874.852	18750.75
875.095	18736.75
875.337	18450.75
875.58	18424.75
875.823	18501.75
876.066	18425.75
876.309	18278.75
876.551	18108.75
876.794	18020.75
877.037	18041.75
877.279	17906.75
877.522	17953.75
877.764	17925.75
878.007	17866.75
878.249	17834.75
878.491	17836.75
878.734	17923.75
878.976	17812.75
879.218	17647.75
879.46	17620.75
879.702	17455.75
879.945	17391.75
880.187	17124.75
880.429	17056.75
880.671	16944.75
880.912	16923.75
881.154	16778.75
881.396	16716.75
881.638	16774.75
881.88	16763.75
882.121	16780.75
882.363	16734.75
882.605	16735.75
882.846	16529.75
883.088	16593.75
883.329	16579.75
883.571	16635.75
883.812	16663.75
884.053	16891.75
884.295	17225.75
884.536	17241.75
884.777	17299.75
885.018	17171.75
885.259	17069.75
885.5	16988.75
885.742	17147.75
885.982	16900.75
886.223	16813.75
886.464	16633.75
886.705	16421.75
886.946	16314.75
887.187	16046.75
887.428	15902.75
887.668	15731.75
887.909	15419.75
888.15	15283.75
888.39	15262.75
888.631	15119.75
888.871	15016.75
889.111	14948.75
889.352	14800.75
889.592	14691.75
889.833	14578.75
890.073	14490.75
890.313	14382.75
890.553	14290.75
890.793	14237.75
891.033	14193.75
891.273	14172.75
891.513	14034.75
891.753	14088.75
891.993	14029.75
892.233	13949.75
892.473	14143.75
892.713	14113.75
892.952	13929.75
893.192	14070.75
893.432	13970.75
893.671	14036.75
893.911	13852.75
894.15	13813.75
894.39	13634.75
894.629	13689.75
894.869	13574.75
895.108	13475.75
895.347	13407.75
895.587	13417.75
895.826	13298.75
896.065	13340.75
896.304	13335.75
896.543	13331.75
896.782	13188.75
897.021	13154.75
897.26	13143.75
897.499	13159.75
897.738	13052.75
897.977	12968.75
898.216	12837.75
898.454	12846.75
898.693	12601.75
898.932	12682.75
899.17	12539.75
899.409	12566.75
899.647	12485.75
899.886	12501.75
900.124	12519.75
900.363	12491.75
900.601	12489.75
900.839	12471.75
901.078	12500.75
901.316	12614.75
901.554	12613.75
901.792	12611.75
902.03	12626.75
902.268	12593.75
902.506	12551.75
902.744	12480.75
902.982	12402.75
903.22	12289.75
903.458	12083.75
903.695	11995.75
903.933	11805.75
904.171	11503.75
904.409	11457.75
904.646	11308.75
904.884	11163.75
905.121	11117.75
905.359	10918.75
905.596	10887.75
905.833	10693.75
906.071	10696.75
906.308	10687.75
906.545	10628.75
906.783	10616.75
907.02	10566.75
907.257	10541.75
907.494	10508.75
907.731	10383.75
907.968	10350.75
908.205	10322.75
908.442	10268.75
908.679	10261.75
908.915	10162.75
909.152	9999.75
909.389	9878.75
909.626	9871.75
909.862	9834.75
910.099	9819.75
910.335	9815.75
910.572	9689.75
910.808	9717.75
911.045	9662.75
911.281	9561.75
911.518	9622.75
911.754	9449.75
911.99	9451.75
912.226	9408.75
912.463	9270.75
912.699	9176.75
912.935	9164.75
913.171	9146.75
913.407	8946.75
913.643	9015.75
913.879	8891.75
914.114	8745.75
914.35	8679.75
914.586	8660.75
914.822	8607.75
915.057	8632.75
915.293	8358.75
915.529	8357.75
915.764	8382.75
916	8398.75
916.235	8367.75
916.471	8343.75
916.706	8258.75
916.941	8189.75
917.177	8308.75
917.412	8280.75
917.647	8221.75
917.882	8191.75
918.117	8241.75
918.352	8166.75
918.588	8117.75
918.823	8036.75
919.057	8037.75
919.292	7810.75
919.527	7845.75
919.762	7740.75
919.997	7744.75
920.232	7607.75
920.466	7556.75
920.701	7453.75
920.935	7393.75
921.17	7372.75
921.405	7274.75
921.639	7318.75
921.873	7328.75
922.108	7258.75
922.342	7267.75
922.576	7165.75
922.811	7131.75
923.045	7252.75
923.279	7123.75
923.513	6963.75
923.747	7020.75
923.981	7025.75
924.215	6927.75
924.449	6889.75
924.683	6819.75
924.917	6791.75
925.151	6782.75
925.385	6770.75
925.618	6733.75
925.852	6683.75
926.086	6579.75
926.319	6691.75
926.553	6674.75
926.786	6681.75
927.02	6669.75
927.253	6677.75
927.486	6691.75
927.72	6580.75
927.953	6612.75
928.186	6532.75
928.42	6591.75
928.653	6490.75
928.886	6427.75
929.119	6474.75
929.352	6467.75
929.585	6399.75
929.818	6301.75
930.051	6315.75
930.284	6219.75
930.516	6190.75
930.749	6129.75
930.982	6118.75
931.215	6083.75
931.447	5953.75
931.68	6014.75
931.912	6012.75
932.145	5994.75
932.377	5947.75
932.61	6101.75
932.842	5886.75
933.074	5968.75
933.307	5874.75
933.539	5988.75
933.771	5965.75
934.003	5944.75
934.236	5996.75
934.468	6003.75
934.7	5882.75
934.932	5920.75
935.164	5847.75
935.395	5807.75
935.627	5892.75
935.859	5794.75
936.091	5779.75
936.323	5769.75
936.554	5766.75
936.786	5702.75
937.017	5656.75
937.249	5675.75
937.481	5529.75
937.712	5640.75
937.943	5582.75
938.175	5623.75
938.406	5599.75
938.637	5614.75
938.869	5552.75
939.1	5599.75
939.331	5501.75
939.562	5515.75
939.793	5526.75
940.024	5509.75
940.255	5413.75
940.486	5380.75
940.717	5405.75
940.948	5352.75
941.179	5317.75
941.409	5309.75
941.64	5369.75
941.871	5335.75
942.102	5305.75
942.332	5277.75
942.563	5382.75
942.793	5319.75
943.024	5231.75
943.254	5277.75
943.484	5260.75
943.715	5306.75
943.945	5254.75
944.175	5161.75
944.405	5209.75
944.636	5232.75
944.866	5217.75
945.096	5242.75
945.326	5168.75
945.556	5200.75
945.786	5143.75
946.016	5081.75
946.245	4996.75
946.475	5033.75
946.705	4982.75
946.935	4953.75
947.164	4967.75
947.394	4889.75
947.624	4871.75
947.853	4943.75
948.083	4883.75
948.312	4844.75
948.542	4769.75
948.771	4721.75
949	4790.75
949.23	4770.75
949.459	4727.75
949.688	4812.75
949.917	4731.75
950.146	4750.75
950.375	4813.75
950.604	4632.75
950.833	4777.75
951.062	4728.75
951.291	4697.75
951.52	4658.75
951.749	4641.75
951.978	4580.75
952.206	4635.75
952.435	4578.75
952.664	4630.75
952.892	4587.75
953.121	4557.75
953.349	4589.75
953.578	4532.75
953.806	4473.75
954.035	4397.75
954.263	4482.75
954.491	4385.75
954.719	4410.75
954.948	4383.75
955.176	4323.75
955.404	4297.75
955.632	4317.75
955.86	4338.75
956.088	4295.75
956.316	4316.75
956.544	4277.75
956.772	4255.75
956.999	4163.75
957.227	4214.75
957.455	4144.75
957.683	4132.75
957.91	4046.75
958.138	4056.75
958.365	4081.75
958.593	4067.75
958.82	3969.75
959.048	4038.75
959.275	3996.75
959.502	3983.75
959.73	3987.75
959.957	3954.75
960.184	3968.75
960.411	3915.75
960.638	3981.75
960.865	3940.75
961.092	3939.75
961.319	3879.75
961.546	3902.75
961.773	3940.75
962	3900.75
962.227	3942.75
962.454	3894.75
962.68	3853.75
962.907	3868.75
963.134	3800.75
963.36	3828.75
963.587	3849.75
963.813	3709.75
964.04	3805.75
964.266	3683.75
964.493	3759.75
964.719	3698.75
964.945	3694.75
965.171	3551.75
965.398	3614.75
965.624	3631.75
965.85	3552.75
966.076	3508.75
966.302	3613.75
966.528	3549.75
966.754	3542.75
966.98	3534.75
967.206	3503.75
967.431	3440.75
967.657	3500.75
967.883	3467.75
968.109	3491.75
968.334	3451.75
968.56	3406.75
968.785	3393.75
969.011	3368.75
969.236	3420.75
969.462	3335.75
969.687	3377.75
969.912	3415.75
970.138	3422.75
970.363	3319.75
970.588	3312.75
970.813	3349.75
971.038	3303.75
971.263	3299.75
971.488	3320.75
971.713	3322.75
971.938	3259.75
972.163	3173.75
972.388	3215.75
972.613	3195.75
972.838	3218.75
973.062	3167.75
973.287	3162.75
973.512	3115.75
973.736	3113.75
973.961	3102.75
974.185	3032.75
974.41	3123.75
974.634	3042.75
974.858	2986.75
975.083	3020.75
975.307	3037.75
975.531	2953.75
975.755	2868.75
975.98	2925.75
976.204	2819.75
976.428	2865.75
976.652	2870.75
976.876	2851.75
977.1	2871.75
977.324	2828.75
977.547	2814.75
977.771	2828.75
977.995	2797.75
978.219	2767.75
978.442	2839.75
978.666	2784.75
978.89	2790.75
979.113	2771.75
979.337	2769.75
979.56	2749.75
979.783	2807.75
980.007	2684.75
980.23	2686.75
980.453	2678.75
980.677	2734.75
980.9	2687.75
981.123	2588.75
981.346	2693.75
981.569	2659.75
981.792	2686.75
982.015	2606.75
982.238	2571.75
982.461	2643.75
982.684	2554.75
982.907	2533.75
983.129	2506.75
983.352	2545.75
983.575	2550.75
983.797	2507.75
984.02	2513.75
984.242	2489.75
984.465	2491.75
984.687	2500.75
984.91	2514.75
985.132	2437.75
985.354	2475.75
985.577	2449.75
985.799	2451.75
986.021	2360.75
986.243	2374.75
986.465	2397.75
986.687	2414.75
986.909	2429.75
987.131	2340.75
987.353	2372.75
987.575	2356.75
987.797	2332.75
988.019	2267.75
988.241	2330.75
988.462	2301.75
988.684	2359.75
988.906	2354.75
989.127	2394.75
989.349	2238.75
989.57	2295.75
989.792	2342.75
990.013	2292.75
990.234	2332.75
990.456	2339.75
990.677	2330.75
990.898	2248.75
991.119	2292.75
991.341	2261.75
991.562	2201.75
991.783	2228.75
992.004	2178.75
992.225	2130.75
992.446	2178.75
992.667	2090.75
992.887	2170.75
993.108	2074.75
993.329	2176.75
993.55	2118.75
993.77	2047.75
993.991	2051.75
994.212	2100.75
994.432	2065.75
994.653	2084.75
994.873	2075.75
995.093	1929.75
995.314	2006.75
995.534	2090.75
995.754	2043.75
995.975	2067.75
996.195	1945.75
996.415	2034.75
996.635	1993.75
996.855	1999.75
997.075	1970.75
997.295	2019.75
997.515	1948.75
997.735	2031.75
997.955	1938.75
998.174	1998.75
998.394	1932.75
998.614	1974.75
998.834	1919.75
999.053	1997.75
999.273	1957.75
999.492	1997.75
999.712	1951.75
999.931	1905.75
1000.151	1951.75
1000.37	1893.75
1000.589	1978.75
1000.809	1887.75
1001.028	1992.75
1001.247	1923.75
1001.466	1810.75
1001.685	1975.75
1001.904	1910.75
1002.123	1885.75
1002.342	1839.75
1002.561	1821.75
1002.78	1858.75
1002.999	1892.75
1003.218	1824.75
1003.436	1821.75
1003.655	1875.75
1003.874	1789.75
1004.092	1828.75
1004.311	1829.75
1004.53	1795.75
1004.748	1853.75
1004.966	1810.75
1005.185	1835.75
1005.403	1817.75
1005.622	1816.75
1005.84	1872.75
1006.058	1770.75
1006.276	1777.75
1006.494	2243.75
1006.712	1815.75
1006.931	1869.75
1007.149	1771.75
1007.367	1739.75
1007.584	1812.75
1007.802	1841.75
1008.02	1788.75
1008.238	1904.75
1008.456	1866.75
1008.673	1765.75
1008.891	1831.75
1009.109	1790.75
1009.326	1866.75
1009.544	1922.75
1009.761	1903.75
1009.979	1952.75
1010.196	1979.75
1010.413	2111.75
1010.631	2157.75
1010.848	2222.75
1011.065	2232.75
1011.282	2201.75
1011.5	2104.75
1011.717	2223.75
1011.934	2163.75
1012.151	2184.75
1012.368	2158.75
1012.585	2069.75
1012.801	2133.75
1013.018	2118.75
1013.235	2056.75
1013.452	2084.75
1013.669	2103.75
1013.885	2086.75
1014.102	2130.75
1014.318	2095.75
1014.535	2038.75
1014.751	2099.75
1014.968	2069.75
1015.184	2095.75
1015.401	2006.75
1015.617	2014.75
1015.833	1969.75
1016.049	1936.75
1016.266	1933.75
1016.482	1917.75
1016.698	1852.75
1016.914	1899.75
1017.13	1821.75
1017.346	1817.75
1017.562	1897.75
1017.778	1820.75
1017.993	1792.75
1018.209	1849.75
1018.425	1785.75
1018.641	1759.75
1018.856	1732.75
1019.072	1801.75
1019.288	1857.75
1019.503	1766.75
1019.719	1681.75
1019.934	1701.75
1020.149	1778.75
1020.365	1703.75
1020.58	1663.75
1020.795	1692.75
1021.011	1600.75
1021.226	1601.75
1021.441	1615.75
1021.656	1480.75
1021.871	1469.75
1022.086	1437.75
1022.301	1432.75
1022.516	1401.75
1022.731	1445.75
1022.946	1370.75
1023.16	1332.75
1023.375	1311.75
1023.59	1315.75
1023.804	1262.75
1024.019	1362.75
1024.234	1226.75
1024.448	1252.75
1024.663	1177.75
1024.877	1172.75
1025.092	1195.75
1025.306	1207.75
1025.52	1081.75
1025.734	1189.75
1025.949	1084.75
1026.163	1044.75
1026.377	998.75
1026.591	1050.75
1026.805	962.75
1027.019	943.75
1027.233	929.75
1027.447	866.75
1027.661	970.75
1027.875	894.75
1028.088	902.75
1028.302	841.75
1028.516	818.75
1028.73	818.75
1028.943	793.75
1029.157	746.75
1029.37	700.75
1029.584	-1.25
1029.797	-1.25
1030.011	-0.25
1030.224	-2.25
