Data from QEP037381__203__15-57-19-891.txt Node

Date: Fri Dec 16 15:57:19 EST 2022
User: dcclab
Spectrometer: QEP03738
Trigger mode: 4
Integration Time (sec): 1.000000E1
Scans to average: 1
Electric dark correction enabled: true
Nonlinearity correction enabled: false
Boxcar width: 0
XAxis mode: Wavelengths
Number of Pixels in Spectrum: 1044
>>>>>Begin Spectral Data<<<<<
784.041	12.62
784.3	2.62
784.558	-2.38
784.817	-4.38
785.075	111755.62
785.334	19559.62
785.592	9222.62
785.851	6411.62
786.109	4812.62
786.368	3730.62
786.626	2987.62
786.884	2462.62
787.143	2091.62
787.401	1731.62
787.659	1547.62
787.917	1302.62
788.175	1194.62
788.433	1054.62
788.691	949.62
788.949	859.62
789.207	817.62
789.465	710.62
789.723	681.62
789.98	629.62
790.238	665.62
790.496	625.62
790.753	583.62
791.011	647.62
791.268	559.62
791.526	553.62
791.783	571.62
792.041	556.62
792.298	466.62
792.556	539.62
792.813	507.62
793.07	481.62
793.327	470.62
793.584	555.62
793.841	477.62
794.099	491.62
794.356	561.62
794.613	462.62
794.869	486.62
795.126	454.62
795.383	429.62
795.64	460.62
795.897	413.62
796.153	467.62
796.41	454.62
796.667	428.62
796.923	440.62
797.18	444.62
797.436	473.62
797.693	444.62
797.949	490.62
798.206	528.62
798.462	423.62
798.718	497.62
798.974	469.62
799.231	503.62
799.487	500.62
799.743	517.62
799.999	542.62
800.255	534.62
800.511	531.62
800.767	592.62
801.023	563.62
801.279	598.62
801.534	653.62
801.79	716.62
802.046	750.62
802.302	905.62
802.557	1037.62
802.813	1271.62
803.068	1608.62
803.324	2195.62
803.579	3070.62
803.835	4249.62
804.09	5878.62
804.345	7696.62
804.601	9794.62
804.856	11876.62
805.111	13787.62
805.366	15293.62
805.621	16319.62
805.876	17076.62
806.131	17633.62
806.386	17827.62
806.641	18138.62
806.896	18428.62
807.151	18861.62
807.406	19154.62
807.661	19440.62
807.915	19800.62
808.17	20032.62
808.425	20333.62
808.679	20460.62
808.934	20688.62
809.188	20841.62
809.443	21011.62
809.697	21227.62
809.951	21351.62
810.206	21553.62
810.46	21774.62
810.714	22028.62
810.968	22249.62
811.223	22281.62
811.477	22557.62
811.731	22695.62
811.985	22815.62
812.239	22839.62
812.493	23023.62
812.747	23150.62
813	23119.62
813.254	23242.62
813.508	23307.62
813.762	23421.62
814.015	23512.62
814.269	23684.62
814.522	23910.62
814.776	24161.62
815.03	24483.62
815.283	24788.62
815.536	25106.62
815.79	25553.62
816.043	25907.62
816.296	26141.62
816.55	26561.62
816.803	26725.62
817.056	27186.62
817.309	27333.62
817.562	27668.62
817.815	27995.62
818.068	28099.62
818.321	28248.62
818.574	28579.62
818.827	29011.62
819.079	29271.62
819.332	29833.62
819.585	30110.62
819.838	30643.62
820.09	30668.62
820.343	30953.62
820.595	31046.62
820.848	31357.62
821.1	31342.62
821.353	31241.62
821.605	31322.62
821.857	31270.62
822.11	31202.62
822.362	31089.62
822.614	31001.62
822.866	31033.62
823.118	31044.62
823.37	31218.62
823.622	31231.62
823.874	31333.62
824.126	31392.62
824.378	31416.62
824.63	31359.62
824.882	31632.62
825.134	31580.62
825.385	31540.62
825.637	31531.62
825.888	31200.62
826.14	31146.62
826.392	31117.62
826.643	30957.62
826.895	30791.62
827.146	30755.62
827.397	30580.62
827.649	30661.62
827.9	30568.62
828.151	30677.62
828.402	30688.62
828.653	30767.62
828.905	30872.62
829.156	30929.62
829.407	30897.62
829.658	30838.62
829.909	30777.62
830.159	30918.62
830.41	30743.62
830.661	30430.62
830.912	30274.62
831.162	30177.62
831.413	30198.62
831.664	30119.62
831.914	30079.62
832.165	29969.62
832.415	30029.62
832.666	30003.62
832.916	30128.62
833.167	29965.62
833.417	29936.62
833.667	29869.62
833.917	29612.62
834.168	29637.62
834.418	29579.62
834.668	29574.62
834.918	29381.62
835.168	29093.62
835.418	29151.62
835.668	29058.62
835.918	28995.62
836.167	28940.62
836.417	28658.62
836.667	28747.62
836.917	28699.62
837.166	28655.62
837.416	28616.62
837.666	28650.62
837.915	28465.62
838.165	28444.62
838.414	28353.62
838.663	28296.62
838.913	28425.62
839.162	28228.62
839.411	28180.62
839.661	28044.62
839.91	27964.62
840.159	27833.62
840.408	27872.62
840.657	27907.62
840.906	27920.62
841.155	27849.62
841.404	27742.62
841.653	27876.62
841.902	27803.62
842.15	27961.62
842.399	27857.62
842.648	27820.62
842.897	27746.62
843.145	27503.62
843.394	27456.62
843.642	27208.62
843.891	27115.62
844.139	26948.62
844.388	26821.62
844.636	26549.62
844.884	26620.62
845.133	26675.62
845.381	26620.62
845.629	26523.62
845.877	26532.62
846.125	26578.62
846.373	26367.62
846.621	26234.62
846.869	26197.62
847.117	26214.62
847.365	25920.62
847.613	25771.62
847.861	25765.62
848.108	25626.62
848.356	25643.62
848.604	25610.62
848.851	25412.62
849.099	25574.62
849.346	25640.62
849.594	25662.62
849.841	25794.62
850.089	25738.62
850.336	25767.62
850.583	25760.62
850.831	25580.62
851.078	25462.62
851.325	25342.62
851.572	25433.62
851.819	25285.62
852.066	24774.62
852.313	24580.62
852.56	24378.62
852.807	24281.62
853.054	24159.62
853.301	24246.62
853.548	24120.62
853.794	24273.62
854.041	24298.62
854.288	24226.62
854.534	24506.62
854.781	24513.62
855.028	24499.62
855.274	24371.62
855.52	24102.62
855.767	24024.62
856.013	24018.62
856.26	24332.62
856.506	23834.62
856.752	23917.62
856.998	23772.62
857.244	23847.62
857.49	23960.62
857.736	24045.62
857.982	23950.62
858.228	23802.62
858.474	23708.62
858.72	23597.62
858.966	23373.62
859.212	23208.62
859.458	22935.62
859.703	22731.62
859.949	22448.62
860.195	22267.62
860.44	22275.62
860.686	22114.62
860.931	22041.62
861.177	22009.62
861.422	21781.62
861.667	21813.62
861.913	21735.62
862.158	21726.62
862.403	21747.62
862.648	21873.62
862.893	21912.62
863.138	21933.62
863.384	21824.62
863.629	21848.62
863.873	21792.62
864.118	21584.62
864.363	21501.62
864.608	21448.62
864.853	21418.62
865.098	21276.62
865.342	21169.62
865.587	21061.62
865.832	21061.62
866.076	21051.62
866.321	20844.62
866.565	20799.62
866.81	20748.62
867.054	20734.62
867.298	20555.62
867.543	20609.62
867.787	20583.62
868.031	20499.62
868.275	20498.62
868.519	20455.62
868.764	20312.62
869.008	20334.62
869.252	20239.62
869.496	20129.62
869.739	20117.62
869.983	20105.62
870.227	20116.62
870.471	20017.62
870.715	20149.62
870.958	20100.62
871.202	20152.62
871.446	20094.62
871.689	20163.62
871.933	20190.62
872.176	20178.62
872.42	20157.62
872.663	20125.62
872.906	20000.62
873.15	19912.62
873.393	19932.62
873.636	19812.62
873.879	19609.62
874.122	19519.62
874.366	19241.62
874.609	19007.62
874.852	18856.62
875.095	18803.62
875.337	18732.62
875.58	18565.62
875.823	18603.62
876.066	18406.62
876.309	18368.62
876.551	18347.62
876.794	18287.62
877.037	18220.62
877.279	18121.62
877.522	18122.62
877.764	18141.62
878.007	18106.62
878.249	18016.62
878.491	17912.62
878.734	17985.62
878.976	17926.62
879.218	17680.62
879.46	17733.62
879.702	17621.62
879.945	17462.62
880.187	17328.62
880.429	17173.62
880.671	17108.62
880.912	17096.62
881.154	16962.62
881.396	16924.62
881.638	16941.62
881.88	16935.62
882.121	16914.62
882.363	16926.62
882.605	16820.62
882.846	16747.62
883.088	16715.62
883.329	16671.62
883.571	16643.62
883.812	16699.62
884.053	17029.62
884.295	17195.62
884.536	17344.62
884.777	17223.62
885.018	17124.62
885.259	17133.62
885.5	16933.62
885.742	17178.62
885.982	16876.62
886.223	16729.62
886.464	16704.62
886.705	16513.62
886.946	16422.62
887.187	16168.62
887.428	16078.62
887.668	15758.62
887.909	15547.62
888.15	15394.62
888.39	15356.62
888.631	15335.62
888.871	15129.62
889.111	15083.62
889.352	15017.62
889.592	14796.62
889.833	14720.62
890.073	14614.62
890.313	14583.62
890.553	14361.62
890.793	14426.62
891.033	14320.62
891.273	14175.62
891.513	14106.62
891.753	14218.62
891.993	14129.62
892.233	14176.62
892.473	14235.62
892.713	14108.62
892.952	14056.62
893.192	14146.62
893.432	14061.62
893.671	14117.62
893.911	14035.62
894.15	13984.62
894.39	13901.62
894.629	13788.62
894.869	13781.62
895.108	13653.62
895.347	13478.62
895.587	13439.62
895.826	13381.62
896.065	13361.62
896.304	13390.62
896.543	13359.62
896.782	13314.62
897.021	13307.62
897.26	13214.62
897.499	13295.62
897.738	13124.62
897.977	13028.62
898.216	13010.62
898.454	12923.62
898.693	12808.62
898.932	12765.62
899.17	12629.62
899.409	12601.62
899.647	12624.62
899.886	12578.62
900.124	12567.62
900.363	12624.62
900.601	12583.62
900.839	12557.62
901.078	12609.62
901.316	12596.62
901.554	12673.62
901.792	12663.62
902.03	12733.62
902.268	12704.62
902.506	12677.62
902.744	12663.62
902.982	12471.62
903.22	12336.62
903.458	12226.62
903.695	12010.62
903.933	11798.62
904.171	11735.62
904.409	11515.62
904.646	11417.62
904.884	11168.62
905.121	11153.62
905.359	11067.62
905.596	10911.62
905.833	10790.62
906.071	10762.62
906.308	10793.62
906.545	10681.62
906.783	10680.62
907.02	10613.62
907.257	10605.62
907.494	10562.62
907.731	10496.62
907.968	10466.62
908.205	10423.62
908.442	10359.62
908.679	10346.62
908.915	10209.62
909.152	10136.62
909.389	9982.62
909.626	9961.62
909.862	9854.62
910.099	9912.62
910.335	9826.62
910.572	9772.62
910.808	9725.62
911.045	9730.62
911.281	9604.62
911.518	9702.62
911.754	9543.62
911.99	9489.62
912.226	9520.62
912.463	9340.62
912.699	9325.62
912.935	9208.62
913.171	9071.62
913.407	9070.62
913.643	9036.62
913.879	8915.62
914.114	8879.62
914.35	8791.62
914.586	8605.62
914.822	8568.62
915.057	8621.62
915.293	8452.62
915.529	8493.62
915.764	8456.62
916	8430.62
916.235	8426.62
916.471	8398.62
916.706	8255.62
916.941	8343.62
917.177	8250.62
917.412	8363.62
917.647	8335.62
917.882	8158.62
918.117	8355.62
918.352	8189.62
918.588	8234.62
918.823	8119.62
919.057	8041.62
919.292	7969.62
919.527	7936.62
919.762	7781.62
919.997	7739.62
920.232	7647.62
920.466	7594.62
920.701	7472.62
920.935	7518.62
921.17	7408.62
921.405	7305.62
921.639	7384.62
921.873	7358.62
922.108	7312.62
922.342	7272.62
922.576	7254.62
922.811	7223.62
923.045	7246.62
923.279	7256.62
923.513	7080.62
923.747	7145.62
923.981	7033.62
924.215	6935.62
924.449	6976.62
924.683	6888.62
924.917	6836.62
925.151	6816.62
925.385	6844.62
925.618	6822.62
925.852	6725.62
926.086	6693.62
926.319	6792.62
926.553	6669.62
926.786	6701.62
927.02	6712.62
927.253	6704.62
927.486	6742.62
927.72	6611.62
927.953	6642.62
928.186	6613.62
928.42	6604.62
928.653	6544.62
928.886	6496.62
929.119	6504.62
929.352	6460.62
929.585	6448.62
929.818	6366.62
930.051	6362.62
930.284	6289.62
930.516	6180.62
930.749	6153.62
930.982	6197.62
931.215	6102.62
931.447	6034.62
931.68	6082.62
931.912	6034.62
932.145	6025.62
932.377	5988.62
932.61	6194.62
932.842	5913.62
933.074	5977.62
933.307	5874.62
933.539	6007.62
933.771	6078.62
934.003	5933.62
934.236	6034.62
934.468	5995.62
934.7	5944.62
934.932	5959.62
935.164	5946.62
935.395	5874.62
935.627	5842.62
935.859	5895.62
936.091	5761.62
936.323	5786.62
936.554	5845.62
936.786	5758.62
937.017	5700.62
937.249	5736.62
937.481	5602.62
937.712	5646.62
937.943	5654.62
938.175	5627.62
938.406	5684.62
938.637	5701.62
938.869	5576.62
939.1	5591.62
939.331	5557.62
939.562	5548.62
939.793	5531.62
940.024	5549.62
940.255	5545.62
940.486	5461.62
940.717	5448.62
940.948	5414.62
941.179	5383.62
941.409	5356.62
941.64	5338.62
941.871	5353.62
942.102	5324.62
942.332	5300.62
942.563	5348.62
942.793	5334.62
943.024	5268.62
943.254	5325.62
943.484	5336.62
943.715	5315.62
943.945	5349.62
944.175	5219.62
944.405	5225.62
944.636	5192.62
944.866	5216.62
945.096	5306.62
945.326	5201.62
945.556	5207.62
945.786	5211.62
946.016	5130.62
946.245	5079.62
946.475	5062.62
946.705	5028.62
946.935	5027.62
947.164	5029.62
947.394	4910.62
947.624	4928.62
947.853	4930.62
948.083	4890.62
948.312	4860.62
948.542	4779.62
948.771	4763.62
949	4740.62
949.23	4827.62
949.459	4741.62
949.688	4813.62
949.917	4826.62
950.146	4800.62
950.375	4805.62
950.604	4770.62
950.833	4823.62
951.062	4775.62
951.291	4711.62
951.52	4688.62
951.749	4699.62
951.978	4605.62
952.206	4623.62
952.435	4588.62
952.664	4632.62
952.892	4636.62
953.121	4593.62
953.349	4618.62
953.578	4534.62
953.806	4537.62
954.035	4499.62
954.263	4476.62
954.491	4414.62
954.719	4442.62
954.948	4386.62
955.176	4325.62
955.404	4294.62
955.632	4365.62
955.86	4385.62
956.088	4347.62
956.316	4374.62
956.544	4355.62
956.772	4250.62
956.999	4206.62
957.227	4263.62
957.455	4186.62
957.683	4141.62
957.91	4110.62
958.138	4077.62
958.365	4081.62
958.593	4064.62
958.82	4004.62
959.048	4067.62
959.275	4036.62
959.502	4039.62
959.73	3974.62
959.957	4047.62
960.184	4031.62
960.411	3977.62
960.638	4024.62
960.865	3964.62
961.092	3985.62
961.319	3910.62
961.546	3995.62
961.773	3984.62
962	3914.62
962.227	3943.62
962.454	3890.62
962.68	3906.62
962.907	3934.62
963.134	3786.62
963.36	3831.62
963.587	3829.62
963.813	3759.62
964.04	3804.62
964.266	3703.62
964.493	3749.62
964.719	3733.62
964.945	3746.62
965.171	3622.62
965.398	3675.62
965.624	3652.62
965.85	3616.62
966.076	3572.62
966.302	3594.62
966.528	3575.62
966.754	3552.62
966.98	3558.62
967.206	3538.62
967.431	3468.62
967.657	3572.62
967.883	3530.62
968.109	3484.62
968.334	3448.62
968.56	3399.62
968.785	3430.62
969.011	3407.62
969.236	3438.62
969.462	3403.62
969.687	3373.62
969.912	3425.62
970.138	3403.62
970.363	3353.62
970.588	3408.62
970.813	3347.62
971.038	3316.62
971.263	3314.62
971.488	3335.62
971.713	3333.62
971.938	3315.62
972.163	3208.62
972.388	3239.62
972.613	3209.62
972.838	3227.62
973.062	3204.62
973.287	3219.62
973.512	3136.62
973.736	3173.62
973.961	3147.62
974.185	3091.62
974.41	3100.62
974.634	3038.62
974.858	3045.62
975.083	3065.62
975.307	3122.62
975.531	2987.62
975.755	2913.62
975.98	2951.62
976.204	2894.62
976.428	2879.62
976.652	2874.62
976.876	2852.62
977.1	2885.62
977.324	2827.62
977.547	2890.62
977.771	2887.62
977.995	2858.62
978.219	2749.62
978.442	2877.62
978.666	2802.62
978.89	2839.62
979.113	2816.62
979.337	2778.62
979.56	2763.62
979.783	2862.62
980.007	2720.62
980.23	2807.62
980.453	2741.62
980.677	2758.62
980.9	2709.62
981.123	2628.62
981.346	2691.62
981.569	2648.62
981.792	2685.62
982.015	2630.62
982.238	2607.62
982.461	2624.62
982.684	2572.62
982.907	2559.62
983.129	2514.62
983.352	2610.62
983.575	2534.62
983.797	2543.62
984.02	2515.62
984.242	2507.62
984.465	2471.62
984.687	2556.62
984.91	2511.62
985.132	2453.62
985.354	2506.62
985.577	2478.62
985.799	2437.62
986.021	2366.62
986.243	2401.62
986.465	2428.62
986.687	2445.62
986.909	2457.62
987.131	2394.62
987.353	2341.62
987.575	2415.62
987.797	2372.62
988.019	2287.62
988.241	2341.62
988.462	2307.62
988.684	2339.62
988.906	2399.62
989.127	2424.62
989.349	2247.62
989.57	2305.62
989.792	2358.62
990.013	2330.62
990.234	2332.62
990.456	2348.62
990.677	2377.62
990.898	2256.62
991.119	2279.62
991.341	2314.62
991.562	2225.62
991.783	2263.62
992.004	2190.62
992.225	2180.62
992.446	2217.62
992.667	2112.62
992.887	2218.62
993.108	2084.62
993.329	2180.62
993.55	2160.62
993.77	2080.62
993.991	2089.62
994.212	2095.62
994.432	2113.62
994.653	2096.62
994.873	2077.62
995.093	1985.62
995.314	2007.62
995.534	2130.62
995.754	2107.62
995.975	2121.62
996.195	1988.62
996.415	2047.62
996.635	1993.62
996.855	2028.62
997.075	2021.62
997.295	1996.62
997.515	1968.62
997.735	2037.62
997.955	2005.62
998.174	1951.62
998.394	1968.62
998.614	1982.62
998.834	1954.62
999.053	2008.62
999.273	1976.62
999.492	2020.62
999.712	1974.62
999.931	1919.62
1000.151	1944.62
1000.37	1944.62
1000.589	1960.62
1000.809	1921.62
1001.028	1995.62
1001.247	1952.62
1001.466	1818.62
1001.685	1947.62
1001.904	1882.62
1002.123	1876.62
1002.342	1882.62
1002.561	1826.62
1002.78	1867.62
1002.999	1906.62
1003.218	1848.62
1003.436	1841.62
1003.655	1856.62
1003.874	1792.62
1004.092	1835.62
1004.311	1872.62
1004.53	1811.62
1004.748	1881.62
1004.966	1809.62
1005.185	1862.62
1005.403	1836.62
1005.622	1810.62
1005.84	1893.62
1006.058	1802.62
1006.276	1823.62
1006.494	2286.62
1006.712	1791.62
1006.931	1863.62
1007.149	1777.62
1007.367	1782.62
1007.584	1796.62
1007.802	1866.62
1008.02	1796.62
1008.238	1899.62
1008.456	1860.62
1008.673	1750.62
1008.891	1872.62
1009.109	1821.62
1009.326	1841.62
1009.544	1946.62
1009.761	1879.62
1009.979	1970.62
1010.196	1958.62
1010.413	2074.62
1010.631	2109.62
1010.848	2150.62
1011.065	2175.62
1011.282	2094.62
1011.5	2045.62
1011.717	2159.62
1011.934	2122.62
1012.151	2119.62
1012.368	2083.62
1012.585	2024.62
1012.801	2080.62
1013.018	2073.62
1013.235	1996.62
1013.452	2046.62
1013.669	2026.62
1013.885	2067.62
1014.102	2071.62
1014.318	2049.62
1014.535	1990.62
1014.751	2065.62
1014.968	2029.62
1015.184	2032.62
1015.401	1923.62
1015.617	2000.62
1015.833	1921.62
1016.049	1893.62
1016.266	1901.62
1016.482	1875.62
1016.698	1813.62
1016.914	1835.62
1017.13	1820.62
1017.346	1776.62
1017.562	1862.62
1017.778	1781.62
1017.993	1761.62
1018.209	1801.62
1018.425	1775.62
1018.641	1728.62
1018.856	1713.62
1019.072	1750.62
1019.288	1809.62
1019.503	1761.62
1019.719	1702.62
1019.934	1683.62
1020.149	1767.62
1020.365	1678.62
1020.58	1623.62
1020.795	1667.62
1021.011	1603.62
1021.226	1584.62
1021.441	1617.62
1021.656	1505.62
1021.871	1458.62
1022.086	1451.62
1022.301	1426.62
1022.516	1392.62
1022.731	1466.62
1022.946	1356.62
1023.16	1337.62
1023.375	1315.62
1023.59	1292.62
1023.804	1255.62
1024.019	1338.62
1024.234	1220.62
1024.448	1250.62
1024.663	1152.62
1024.877	1202.62
1025.092	1188.62
1025.306	1189.62
1025.52	1098.62
1025.734	1177.62
1025.949	1087.62
1026.163	1064.62
1026.377	994.62
1026.591	1046.62
1026.805	972.62
1027.019	962.62
1027.233	901.62
1027.447	877.62
1027.661	954.62
1027.875	923.62
1028.088	919.62
1028.302	840.62
1028.516	819.62
1028.73	813.62
1028.943	807.62
1029.157	748.62
1029.37	704.62
1029.584	-2.38
1029.797	-2.38
1030.011	-3.38
1030.224	-0.38
