Data from QEP037381__129__15-44-59-881.txt Node

Date: Fri Dec 16 15:44:59 EST 2022
User: dcclab
Spectrometer: QEP03738
Trigger mode: 4
Integration Time (sec): 1.000000E1
Scans to average: 1
Electric dark correction enabled: true
Nonlinearity correction enabled: false
Boxcar width: 0
XAxis mode: Wavelengths
Number of Pixels in Spectrum: 1044
>>>>>Begin Spectral Data<<<<<
784.041	11.62
784.3	2.62
784.558	-6.38
784.817	-3.38
785.075	111424.62
785.334	18919.62
785.592	8849.62
785.851	6151.62
786.109	4633.62
786.368	3564.62
786.626	2890.62
786.884	2367.62
787.143	2038.62
787.401	1671.62
787.659	1496.62
787.917	1302.62
788.175	1181.62
788.433	1033.62
788.691	938.62
788.949	859.62
789.207	821.62
789.465	711.62
789.723	687.62
789.98	646.62
790.238	663.62
790.496	628.62
790.753	602.62
791.011	650.62
791.268	592.62
791.526	567.62
791.783	575.62
792.041	563.62
792.298	473.62
792.556	546.62
792.813	527.62
793.07	489.62
793.327	505.62
793.584	557.62
793.841	470.62
794.099	518.62
794.356	576.62
794.613	468.62
794.869	498.62
795.126	468.62
795.383	455.62
795.64	469.62
795.897	425.62
796.153	493.62
796.41	461.62
796.667	452.62
796.923	468.62
797.18	456.62
797.436	514.62
797.693	462.62
797.949	522.62
798.206	548.62
798.462	451.62
798.718	539.62
798.974	501.62
799.231	537.62
799.487	531.62
799.743	560.62
799.999	579.62
800.255	573.62
800.511	580.62
800.767	612.62
801.023	640.62
801.279	679.62
801.534	705.62
801.79	801.62
802.046	863.62
802.302	1027.62
802.557	1234.62
802.813	1599.62
803.068	2012.62
803.324	2763.62
803.579	3847.62
803.835	5400.62
804.09	7481.62
804.345	9872.62
804.601	12412.62
804.856	14997.62
805.111	17369.62
805.366	19050.62
805.621	20634.62
805.876	21584.62
806.131	22041.62
806.386	22545.62
806.641	22868.62
806.896	23315.62
807.151	23814.62
807.406	24126.62
807.661	24670.62
807.915	25001.62
808.17	25475.62
808.425	25691.62
808.679	25807.62
808.934	26178.62
809.188	26550.62
809.443	26787.62
809.697	26858.62
809.951	27200.62
810.206	27399.62
810.46	27604.62
810.714	27918.62
810.968	28184.62
811.223	28355.62
811.477	28548.62
811.731	28705.62
811.985	28993.62
812.239	29083.62
812.493	29211.62
812.747	29282.62
813	29438.62
813.254	29538.62
813.508	29722.62
813.762	29805.62
814.015	29876.62
814.269	30134.62
814.522	30533.62
814.776	30857.62
815.03	31128.62
815.283	31643.62
815.536	32194.62
815.79	32545.62
816.043	32983.62
816.296	33501.62
816.55	33829.62
816.803	34173.62
817.056	34573.62
817.309	34900.62
817.562	35238.62
817.815	35583.62
818.068	35852.62
818.321	36179.62
818.574	36644.62
818.827	37102.62
819.079	37450.62
819.332	38097.62
819.585	38530.62
819.838	38975.62
820.09	39288.62
820.343	39541.62
820.595	39753.62
820.848	40072.62
821.1	40013.62
821.353	40193.62
821.605	40140.62
821.857	40119.62
822.11	39929.62
822.362	39842.62
822.614	39787.62
822.866	39762.62
823.118	39620.62
823.37	39931.62
823.622	40094.62
823.874	39993.62
824.126	40355.62
824.378	40160.62
824.63	40304.62
824.882	40321.62
825.134	40410.62
825.385	40440.62
825.637	40302.62
825.888	40284.62
826.14	40116.62
826.392	39943.62
826.643	39656.62
826.895	39596.62
827.146	39416.62
827.397	39387.62
827.649	39406.62
827.9	39319.62
828.151	39328.62
828.402	39472.62
828.653	39474.62
828.905	39812.62
829.156	39726.62
829.407	39725.62
829.658	39652.62
829.909	39685.62
830.159	39614.62
830.41	39438.62
830.661	39156.62
830.912	38866.62
831.162	38791.62
831.413	38616.62
831.664	38752.62
831.914	38595.62
832.165	38570.62
832.415	38626.62
832.666	38564.62
832.916	38562.62
833.167	38611.62
833.417	38571.62
833.667	38357.62
833.917	38310.62
834.168	38172.62
834.418	38002.62
834.668	37908.62
834.918	37695.62
835.168	37625.62
835.418	37352.62
835.668	37268.62
835.918	37232.62
836.167	37179.62
836.417	37079.62
836.667	37024.62
836.917	36936.62
837.166	36846.62
837.416	36843.62
837.666	36826.62
837.915	36769.62
838.165	36683.62
838.414	36529.62
838.663	36421.62
838.913	36416.62
839.162	36431.62
839.411	36285.62
839.661	35996.62
839.91	35860.62
840.159	35981.62
840.408	35862.62
840.657	35782.62
840.906	35796.62
841.155	35770.62
841.404	35868.62
841.653	35771.62
841.902	35815.62
842.15	35882.62
842.399	35886.62
842.648	35808.62
842.897	35656.62
843.145	35425.62
843.394	35211.62
843.642	34983.62
843.891	34867.62
844.139	34666.62
844.388	34412.62
844.636	34270.62
844.884	34255.62
845.133	34275.62
845.381	34150.62
845.629	34227.62
845.877	34232.62
846.125	34093.62
846.373	34112.62
846.621	33919.62
846.869	33899.62
847.117	33599.62
847.365	33414.62
847.613	33199.62
847.861	33136.62
848.108	33027.62
848.356	32899.62
848.604	32911.62
848.851	32857.62
849.099	32829.62
849.346	32960.62
849.594	33185.62
849.841	33342.62
850.089	33173.62
850.336	33119.62
850.583	33161.62
850.831	32909.62
851.078	32682.62
851.325	32729.62
851.572	32672.62
851.819	32377.62
852.066	31819.62
852.313	31508.62
852.56	31264.62
852.807	31214.62
853.054	31132.62
853.301	30936.62
853.548	31054.62
853.794	31115.62
854.041	31211.62
854.288	31234.62
854.534	31583.62
854.781	31499.62
855.028	31369.62
855.274	31277.62
855.52	31060.62
855.767	30814.62
856.013	30950.62
856.26	31257.62
856.506	30533.62
856.752	30639.62
856.998	30734.62
857.244	30611.62
857.49	30747.62
857.736	30762.62
857.982	30817.62
858.228	30733.62
858.474	30634.62
858.72	30421.62
858.966	30015.62
859.212	29794.62
859.458	29497.62
859.703	29170.62
859.949	28793.62
860.195	28725.62
860.44	28574.62
860.686	28367.62
860.931	28376.62
861.177	28178.62
861.422	28235.62
861.667	27978.62
861.913	27991.62
862.158	28147.62
862.403	28106.62
862.648	28256.62
862.893	28263.62
863.138	28140.62
863.384	28032.62
863.629	27996.62
863.873	28138.62
864.118	27912.62
864.363	27785.62
864.608	27698.62
864.853	27530.62
865.098	27331.62
865.342	27366.62
865.587	27254.62
865.832	27221.62
866.076	27047.62
866.321	27043.62
866.565	26932.62
866.81	26648.62
867.054	26655.62
867.298	26598.62
867.543	26457.62
867.787	26571.62
868.031	26332.62
868.275	26156.62
868.519	26182.62
868.764	26227.62
869.008	26047.62
869.252	25988.62
869.496	25952.62
869.739	25864.62
869.983	25909.62
870.227	25839.62
870.471	25787.62
870.715	25908.62
870.958	25813.62
871.202	25971.62
871.446	25900.62
871.689	25941.62
871.933	25935.62
872.176	25896.62
872.42	25800.62
872.663	25764.62
872.906	25677.62
873.15	25627.62
873.393	25435.62
873.636	25215.62
873.879	24968.62
874.122	24888.62
874.366	24451.62
874.609	24421.62
874.852	24212.62
875.095	24153.62
875.337	24048.62
875.58	23900.62
875.823	23798.62
876.066	23788.62
876.309	23759.62
876.551	23474.62
876.794	23420.62
877.037	23450.62
877.279	23249.62
877.522	23254.62
877.764	23287.62
878.007	23180.62
878.249	23290.62
878.491	23088.62
878.734	23201.62
878.976	23238.62
879.218	22959.62
879.46	22842.62
879.702	22653.62
879.945	22535.62
880.187	22330.62
880.429	22226.62
880.671	21963.62
880.912	22012.62
881.154	21920.62
881.396	21742.62
881.638	21824.62
881.88	21857.62
882.121	21790.62
882.363	21647.62
882.605	21624.62
882.846	21521.62
883.088	21488.62
883.329	21388.62
883.571	21540.62
883.812	21454.62
884.053	21772.62
884.295	21999.62
884.536	22172.62
884.777	21986.62
885.018	21823.62
885.259	21842.62
885.5	21675.62
885.742	21969.62
885.982	21648.62
886.223	21459.62
886.464	21447.62
886.705	21245.62
886.946	21097.62
887.187	20840.62
887.428	20615.62
887.668	20330.62
887.909	20115.62
888.15	19936.62
888.39	19729.62
888.631	19622.62
888.871	19537.62
889.111	19472.62
889.352	19290.62
889.592	19117.62
889.833	18964.62
890.073	18801.62
890.313	18823.62
890.553	18570.62
890.793	18548.62
891.033	18371.62
891.273	18444.62
891.513	18308.62
891.753	18316.62
891.993	18174.62
892.233	18234.62
892.473	18356.62
892.713	18309.62
892.952	18251.62
893.192	18250.62
893.432	18220.62
893.671	18144.62
893.911	18109.62
894.15	18051.62
894.39	17719.62
894.629	17675.62
894.869	17619.62
895.108	17547.62
895.347	17446.62
895.587	17390.62
895.826	17277.62
896.065	17294.62
896.304	17266.62
896.543	17311.62
896.782	17129.62
897.021	17163.62
897.26	17054.62
897.499	17056.62
897.738	17023.62
897.977	16819.62
898.216	16718.62
898.454	16602.62
898.693	16445.62
898.932	16420.62
899.17	16256.62
899.409	16308.62
899.647	16208.62
899.886	16129.62
900.124	16229.62
900.363	16209.62
900.601	16231.62
900.839	16220.62
901.078	16221.62
901.316	16213.62
901.554	16286.62
901.792	16286.62
902.03	16269.62
902.268	16220.62
902.506	16218.62
902.744	16133.62
902.982	16028.62
903.22	15911.62
903.458	15657.62
903.695	15505.62
903.933	15182.62
904.171	14993.62
904.409	14850.62
904.646	14682.62
904.884	14463.62
905.121	14392.62
905.359	14195.62
905.596	14126.62
905.833	14014.62
906.071	13874.62
906.308	13919.62
906.545	13770.62
906.783	13718.62
907.02	13710.62
907.257	13581.62
907.494	13563.62
907.731	13542.62
907.968	13618.62
908.205	13355.62
908.442	13334.62
908.679	13248.62
908.915	13168.62
909.152	13074.62
909.389	12865.62
909.626	12884.62
909.862	12758.62
910.099	12703.62
910.335	12655.62
910.572	12512.62
910.808	12567.62
911.045	12527.62
911.281	12437.62
911.518	12428.62
911.754	12301.62
911.99	12273.62
912.226	12175.62
912.463	12001.62
912.699	11955.62
912.935	11933.62
913.171	11786.62
913.407	11648.62
913.643	11580.62
913.879	11538.62
914.114	11426.62
914.35	11285.62
914.586	11225.62
914.822	11083.62
915.057	11129.62
915.293	10859.62
915.529	10863.62
915.764	10961.62
916	10881.62
916.235	10802.62
916.471	10795.62
916.706	10769.62
916.941	10686.62
917.177	10775.62
917.412	10672.62
917.647	10639.62
917.882	10625.62
918.117	10597.62
918.352	10548.62
918.588	10571.62
918.823	10418.62
919.057	10303.62
919.292	10171.62
919.527	10208.62
919.762	10029.62
919.997	9978.62
920.232	9788.62
920.466	9757.62
920.701	9595.62
920.935	9597.62
921.17	9514.62
921.405	9444.62
921.639	9524.62
921.873	9390.62
922.108	9414.62
922.342	9371.62
922.576	9269.62
922.811	9144.62
923.045	9289.62
923.279	9268.62
923.513	9089.62
923.747	9103.62
923.981	9073.62
924.215	8906.62
924.449	8887.62
924.683	8805.62
924.917	8761.62
925.151	8766.62
925.385	8762.62
925.618	8649.62
925.852	8644.62
926.086	8612.62
926.319	8589.62
926.553	8571.62
926.786	8638.62
927.02	8550.62
927.253	8586.62
927.486	8623.62
927.72	8533.62
927.953	8530.62
928.186	8447.62
928.42	8502.62
928.653	8348.62
928.886	8278.62
929.119	8330.62
929.352	8262.62
929.585	8272.62
929.818	8121.62
930.051	8108.62
930.284	8027.62
930.516	7856.62
930.749	7900.62
930.982	7882.62
931.215	7865.62
931.447	7687.62
931.68	7722.62
931.912	7674.62
932.145	7705.62
932.377	7738.62
932.61	7821.62
932.842	7631.62
933.074	7723.62
933.307	7621.62
933.539	7704.62
933.771	7731.62
934.003	7629.62
934.236	7721.62
934.468	7655.62
934.7	7527.62
934.932	7620.62
935.164	7538.62
935.395	7513.62
935.627	7508.62
935.859	7439.62
936.091	7391.62
936.323	7457.62
936.554	7405.62
936.786	7387.62
937.017	7243.62
937.249	7283.62
937.481	7224.62
937.712	7234.62
937.943	7212.62
938.175	7239.62
938.406	7169.62
938.637	7198.62
938.869	7102.62
939.1	7106.62
939.331	7083.62
939.562	7003.62
939.793	7070.62
940.024	7013.62
940.255	7015.62
940.486	6937.62
940.717	6915.62
940.948	6860.62
941.179	6833.62
941.409	6821.62
941.64	6859.62
941.871	6818.62
942.102	6806.62
942.332	6813.62
942.563	6831.62
942.793	6804.62
943.024	6733.62
943.254	6782.62
943.484	6746.62
943.715	6786.62
943.945	6807.62
944.175	6675.62
944.405	6665.62
944.636	6643.62
944.866	6685.62
945.096	6685.62
945.326	6522.62
945.556	6629.62
945.786	6648.62
946.016	6571.62
946.245	6401.62
946.475	6409.62
946.705	6395.62
946.935	6349.62
947.164	6322.62
947.394	6238.62
947.624	6298.62
947.853	6271.62
948.083	6184.62
948.312	6181.62
948.542	6105.62
948.771	6111.62
949	6022.62
949.23	6094.62
949.459	6097.62
949.688	6162.62
949.917	6107.62
950.146	6045.62
950.375	6054.62
950.604	6030.62
950.833	6060.62
951.062	6082.62
951.291	5974.62
951.52	5919.62
951.749	5953.62
951.978	5914.62
952.206	5865.62
952.435	5836.62
952.664	5902.62
952.892	5830.62
953.121	5813.62
953.349	5825.62
953.578	5752.62
953.806	5716.62
954.035	5687.62
954.263	5684.62
954.491	5639.62
954.719	5627.62
954.948	5575.62
955.176	5550.62
955.404	5443.62
955.632	5500.62
955.86	5504.62
956.088	5458.62
956.316	5473.62
956.544	5427.62
956.772	5355.62
956.999	5314.62
957.227	5420.62
957.455	5292.62
957.683	5234.62
957.91	5188.62
958.138	5153.62
958.365	5184.62
958.593	5148.62
958.82	5078.62
959.048	5144.62
959.275	5119.62
959.502	5045.62
959.73	5003.62
959.957	5034.62
960.184	5082.62
960.411	4994.62
960.638	5099.62
960.865	4946.62
961.092	5010.62
961.319	4883.62
961.546	5069.62
961.773	4987.62
962	4925.62
962.227	4955.62
962.454	4883.62
962.68	4908.62
962.907	4920.62
963.134	4770.62
963.36	4834.62
963.587	4815.62
963.813	4726.62
964.04	4720.62
964.266	4644.62
964.493	4753.62
964.719	4689.62
964.945	4656.62
965.171	4530.62
965.398	4555.62
965.624	4572.62
965.85	4486.62
966.076	4458.62
966.302	4509.62
966.528	4455.62
966.754	4472.62
966.98	4459.62
967.206	4467.62
967.431	4355.62
967.657	4463.62
967.883	4432.62
968.109	4389.62
968.334	4306.62
968.56	4283.62
968.785	4295.62
969.011	4303.62
969.236	4333.62
969.462	4217.62
969.687	4225.62
969.912	4226.62
970.138	4299.62
970.363	4179.62
970.588	4213.62
970.813	4208.62
971.038	4159.62
971.263	4122.62
971.488	4184.62
971.713	4123.62
971.938	4094.62
972.163	4006.62
972.388	4012.62
972.613	4012.62
972.838	4071.62
973.062	4005.62
973.287	3998.62
973.512	3893.62
973.736	3929.62
973.961	3872.62
974.185	3828.62
974.41	3866.62
974.634	3792.62
974.858	3801.62
975.083	3796.62
975.307	3778.62
975.531	3722.62
975.755	3708.62
975.98	3651.62
976.204	3628.62
976.428	3604.62
976.652	3584.62
976.876	3551.62
977.1	3565.62
977.324	3541.62
977.547	3568.62
977.771	3589.62
977.995	3582.62
978.219	3455.62
978.442	3601.62
978.666	3500.62
978.89	3487.62
979.113	3479.62
979.337	3474.62
979.56	3428.62
979.783	3478.62
980.007	3412.62
980.23	3402.62
980.453	3360.62
980.677	3348.62
980.9	3363.62
981.123	3293.62
981.346	3385.62
981.569	3334.62
981.792	3401.62
982.015	3314.62
982.238	3198.62
982.461	3247.62
982.684	3185.62
982.907	3149.62
983.129	3157.62
983.352	3165.62
983.575	3179.62
983.797	3153.62
984.02	3067.62
984.242	3088.62
984.465	3097.62
984.687	3113.62
984.91	3099.62
985.132	3086.62
985.354	3061.62
985.577	3063.62
985.799	2964.62
986.021	2965.62
986.243	2921.62
986.465	2958.62
986.687	2985.62
986.909	2972.62
987.131	2952.62
987.353	2929.62
987.575	2944.62
987.797	2918.62
988.019	2837.62
988.241	2867.62
988.462	2834.62
988.684	2880.62
988.906	2910.62
989.127	2936.62
989.349	2791.62
989.57	2834.62
989.792	2812.62
990.013	2838.62
990.234	2821.62
990.456	2877.62
990.677	2828.62
990.898	2772.62
991.119	2772.62
991.341	2782.62
991.562	2688.62
991.783	2726.62
992.004	2667.62
992.225	2630.62
992.446	2708.62
992.667	2551.62
992.887	2646.62
993.108	2550.62
993.329	2670.62
993.55	2577.62
993.77	2550.62
993.991	2532.62
994.212	2526.62
994.432	2539.62
994.653	2524.62
994.873	2515.62
995.093	2420.62
995.314	2417.62
995.534	2503.62
995.754	2501.62
995.975	2487.62
996.195	2393.62
996.415	2479.62
996.635	2418.62
996.855	2434.62
997.075	2404.62
997.295	2413.62
997.515	2420.62
997.735	2421.62
997.955	2379.62
998.174	2363.62
998.394	2373.62
998.614	2385.62
998.834	2334.62
999.053	2418.62
999.273	2351.62
999.492	2396.62
999.712	2338.62
999.931	2300.62
1000.151	2343.62
1000.37	2283.62
1000.589	2374.62
1000.809	2233.62
1001.028	2390.62
1001.247	2283.62
1001.466	2185.62
1001.685	2325.62
1001.904	2280.62
1002.123	2240.62
1002.342	2216.62
1002.561	2178.62
1002.78	2189.62
1002.999	2244.62
1003.218	2171.62
1003.436	2137.62
1003.655	2202.62
1003.874	2155.62
1004.092	2135.62
1004.311	2171.62
1004.53	2112.62
1004.748	2197.62
1004.966	2103.62
1005.185	2150.62
1005.403	2155.62
1005.622	2127.62
1005.84	2186.62
1006.058	2071.62
1006.276	2116.62
1006.494	2586.62
1006.712	2111.62
1006.931	2159.62
1007.149	2054.62
1007.367	2091.62
1007.584	2112.62
1007.802	2131.62
1008.02	2106.62
1008.238	2152.62
1008.456	2167.62
1008.673	2026.62
1008.891	2160.62
1009.109	2142.62
1009.326	2142.62
1009.544	2268.62
1009.761	2161.62
1009.979	2242.62
1010.196	2257.62
1010.413	2375.62
1010.631	2415.62
1010.848	2459.62
1011.065	2481.62
1011.282	2417.62
1011.5	2368.62
1011.717	2493.62
1011.934	2379.62
1012.151	2431.62
1012.368	2400.62
1012.585	2355.62
1012.801	2396.62
1013.018	2351.62
1013.235	2346.62
1013.452	2372.62
1013.669	2310.62
1013.885	2348.62
1014.102	2355.62
1014.318	2320.62
1014.535	2298.62
1014.751	2307.62
1014.968	2348.62
1015.184	2346.62
1015.401	2222.62
1015.617	2276.62
1015.833	2203.62
1016.049	2188.62
1016.266	2162.62
1016.482	2196.62
1016.698	2111.62
1016.914	2157.62
1017.13	2050.62
1017.346	2043.62
1017.562	2120.62
1017.778	2039.62
1017.993	2004.62
1018.209	2026.62
1018.425	2038.62
1018.641	2020.62
1018.856	1992.62
1019.072	2010.62
1019.288	2038.62
1019.503	2034.62
1019.719	1920.62
1019.934	1954.62
1020.149	2001.62
1020.365	1921.62
1020.58	1866.62
1020.795	1889.62
1021.011	1834.62
1021.226	1821.62
1021.441	1818.62
1021.656	1710.62
1021.871	1664.62
1022.086	1662.62
1022.301	1619.62
1022.516	1601.62
1022.731	1641.62
1022.946	1548.62
1023.16	1574.62
1023.375	1515.62
1023.59	1486.62
1023.804	1452.62
1024.019	1538.62
1024.234	1394.62
1024.448	1405.62
1024.663	1363.62
1024.877	1345.62
1025.092	1356.62
1025.306	1371.62
1025.52	1251.62
1025.734	1344.62
1025.949	1273.62
1026.163	1210.62
1026.377	1142.62
1026.591	1218.62
1026.805	1112.62
1027.019	1087.62
1027.233	1070.62
1027.447	1007.62
1027.661	1089.62
1027.875	1046.62
1028.088	1024.62
1028.302	947.62
1028.516	920.62
1028.73	950.62
1028.943	916.62
1029.157	839.62
1029.37	818.62
1029.584	1.62
1029.797	-2.38
1030.011	-2.38
1030.224	-1.38
