Data from QEP037381__162__15-50-29-886.txt Node

Date: Fri Dec 16 15:50:29 EST 2022
User: dcclab
Spectrometer: QEP03738
Trigger mode: 4
Integration Time (sec): 1.000000E1
Scans to average: 1
Electric dark correction enabled: true
Nonlinearity correction enabled: false
Boxcar width: 0
XAxis mode: Wavelengths
Number of Pixels in Spectrum: 1044
>>>>>Begin Spectral Data<<<<<
784.041	7.25
784.3	0.25
784.558	-0.75
784.817	-2.75
785.075	108905.25
785.334	19255.25
785.592	9101.25
785.851	6412.25
786.109	4806.25
786.368	3758.25
786.626	3046.25
786.884	2507.25
787.143	2043.25
787.401	1746.25
787.659	1543.25
787.917	1342.25
788.175	1221.25
788.433	1059.25
788.691	956.25
788.949	880.25
789.207	826.25
789.465	735.25
789.723	703.25
789.98	651.25
790.238	695.25
790.496	628.25
790.753	595.25
791.011	643.25
791.268	577.25
791.526	560.25
791.783	590.25
792.041	560.25
792.298	473.25
792.556	544.25
792.813	518.25
793.07	489.25
793.327	492.25
793.584	549.25
793.841	477.25
794.099	507.25
794.356	580.25
794.613	475.25
794.869	490.25
795.126	456.25
795.383	449.25
795.64	464.25
795.897	416.25
796.153	477.25
796.41	466.25
796.667	452.25
796.923	469.25
797.18	463.25
797.436	491.25
797.693	450.25
797.949	513.25
798.206	539.25
798.462	453.25
798.718	517.25
798.974	487.25
799.231	519.25
799.487	528.25
799.743	537.25
799.999	568.25
800.255	581.25
800.511	561.25
800.767	610.25
801.023	616.25
801.279	643.25
801.534	702.25
801.79	755.25
802.046	811.25
802.302	1004.25
802.557	1172.25
802.813	1465.25
803.068	1863.25
803.324	2566.25
803.579	3595.25
803.835	4958.25
804.09	6939.25
804.345	9071.25
804.601	11469.25
804.856	13862.25
805.111	16133.25
805.366	17792.25
805.621	18963.25
805.876	19893.25
806.131	20393.25
806.386	20895.25
806.641	21192.25
806.896	21494.25
807.151	22021.25
807.406	22407.25
807.661	22618.25
807.915	23118.25
808.17	23435.25
808.425	23609.25
808.679	23931.25
808.934	24305.25
809.188	24387.25
809.443	24722.25
809.697	24922.25
809.951	25054.25
810.206	25292.25
810.46	25677.25
810.714	25872.25
810.968	26089.25
811.223	26215.25
811.477	26513.25
811.731	26633.25
811.985	26833.25
812.239	26929.25
812.493	26978.25
812.747	27181.25
813	27265.25
813.254	27405.25
813.508	27504.25
813.762	27679.25
814.015	27701.25
814.269	28028.25
814.522	28163.25
814.776	28588.25
815.03	28897.25
815.283	29250.25
815.536	29772.25
815.79	30163.25
816.043	30608.25
816.296	30975.25
816.55	31354.25
816.803	31735.25
817.056	32167.25
817.309	32310.25
817.562	32729.25
817.815	32990.25
818.068	33282.25
818.321	33674.25
818.574	34142.25
818.827	34487.25
819.079	34754.25
819.332	35457.25
819.585	35896.25
819.838	36360.25
820.09	36488.25
820.343	36758.25
820.595	36940.25
820.848	37139.25
821.1	37445.25
821.353	37479.25
821.605	37346.25
821.857	37379.25
822.11	37019.25
822.362	37011.25
822.614	37116.25
822.866	37060.25
823.118	36998.25
823.37	37049.25
823.622	37225.25
823.874	37370.25
824.126	37543.25
824.378	37400.25
824.63	37694.25
824.882	37680.25
825.134	37610.25
825.385	37775.25
825.637	37624.25
825.888	37448.25
826.14	37461.25
826.392	37292.25
826.643	37146.25
826.895	36976.25
827.146	36828.25
827.397	36808.25
827.649	36781.25
827.9	36754.25
828.151	36771.25
828.402	36969.25
828.653	36965.25
828.905	37122.25
829.156	37063.25
829.407	37068.25
829.658	37095.25
829.909	37124.25
830.159	36975.25
830.41	36847.25
830.661	36693.25
830.912	36381.25
831.162	36340.25
831.413	36201.25
831.664	36367.25
831.914	36149.25
832.165	36143.25
832.415	36077.25
832.666	36041.25
832.916	36257.25
833.167	36286.25
833.417	36179.25
833.667	35970.25
833.917	35821.25
834.168	35890.25
834.418	35711.25
834.668	35650.25
834.918	35527.25
835.168	35322.25
835.418	35180.25
835.668	35069.25
835.918	34832.25
836.167	34927.25
836.417	34787.25
836.667	34894.25
836.917	34651.25
837.166	34564.25
837.416	34743.25
837.666	34756.25
837.915	34626.25
838.165	34498.25
838.414	34335.25
838.663	34323.25
838.913	34373.25
839.162	34163.25
839.411	34413.25
839.661	33978.25
839.91	33883.25
840.159	33750.25
840.408	33735.25
840.657	33866.25
840.906	33801.25
841.155	33852.25
841.404	33673.25
841.653	33720.25
841.902	33732.25
842.15	33904.25
842.399	33953.25
842.648	33792.25
842.897	33660.25
843.145	33454.25
843.394	33268.25
843.642	33024.25
843.891	32980.25
844.139	32821.25
844.388	32563.25
844.636	32447.25
844.884	32425.25
845.133	32479.25
845.381	32360.25
845.629	32295.25
845.877	32257.25
846.125	32240.25
846.373	32148.25
846.621	32085.25
846.869	32016.25
847.117	31887.25
847.365	31498.25
847.613	31375.25
847.861	31390.25
848.108	31269.25
848.356	31353.25
848.604	31133.25
848.851	31082.25
849.099	31290.25
849.346	31375.25
849.594	31289.25
849.841	31508.25
850.089	31680.25
850.336	31567.25
850.583	31591.25
850.831	31384.25
851.078	31082.25
851.325	31036.25
851.572	31042.25
851.819	30819.25
852.066	30348.25
852.313	29960.25
852.56	29736.25
852.807	29483.25
853.054	29553.25
853.301	29490.25
853.548	29429.25
853.794	29598.25
854.041	29679.25
854.288	29782.25
854.534	30037.25
854.781	29998.25
855.028	29896.25
855.274	29686.25
855.52	29711.25
855.767	29328.25
856.013	29417.25
856.26	29761.25
856.506	29237.25
856.752	29169.25
856.998	29088.25
857.244	29206.25
857.49	29406.25
857.736	29305.25
857.982	29463.25
858.228	29230.25
858.474	29032.25
858.72	28954.25
858.966	28582.25
859.212	28500.25
859.458	28119.25
859.703	27872.25
859.949	27495.25
860.195	27492.25
860.44	27242.25
860.686	27164.25
860.931	27059.25
861.177	27047.25
861.422	26889.25
861.667	26683.25
861.913	26720.25
862.158	26867.25
862.403	26768.25
862.648	26968.25
862.893	26942.25
863.138	26865.25
863.384	26910.25
863.629	26732.25
863.873	26720.25
864.118	26628.25
864.363	26519.25
864.608	26388.25
864.853	26330.25
865.098	26193.25
865.342	26027.25
865.587	25893.25
865.832	25990.25
866.076	25797.25
866.321	25797.25
866.565	25775.25
866.81	25596.25
867.054	25420.25
867.298	25386.25
867.543	25285.25
867.787	25335.25
868.031	25311.25
868.275	25207.25
868.519	25131.25
868.764	25132.25
869.008	25023.25
869.252	24984.25
869.496	24867.25
869.739	24758.25
869.983	24795.25
870.227	24750.25
870.471	24729.25
870.715	24843.25
870.958	24863.25
871.202	24899.25
871.446	25025.25
871.689	24912.25
871.933	24991.25
872.176	24916.25
872.42	24775.25
872.663	24670.25
872.906	24731.25
873.15	24593.25
873.393	24462.25
873.636	24341.25
873.879	24099.25
874.122	24006.25
874.366	23570.25
874.609	23489.25
874.852	23340.25
875.095	23213.25
875.337	23070.25
875.58	23056.25
875.823	22861.25
876.066	22831.25
876.309	22824.25
876.551	22443.25
876.794	22544.25
877.037	22480.25
877.279	22429.25
877.522	22412.25
877.764	22407.25
878.007	22317.25
878.249	22352.25
878.491	22262.25
878.734	22348.25
878.976	22187.25
879.218	21997.25
879.46	21984.25
879.702	21831.25
879.945	21571.25
880.187	21488.25
880.429	21451.25
880.671	21153.25
880.912	21149.25
881.154	20999.25
881.396	20990.25
881.638	20979.25
881.88	20963.25
882.121	20933.25
882.363	20945.25
882.605	20808.25
882.846	20808.25
883.088	20887.25
883.329	20682.25
883.571	20697.25
883.812	20845.25
884.053	20937.25
884.295	21142.25
884.536	21443.25
884.777	21231.25
885.018	21190.25
885.259	21132.25
885.5	20931.25
885.742	21164.25
885.982	20966.25
886.223	20888.25
886.464	20603.25
886.705	20545.25
886.946	20233.25
887.187	20123.25
887.428	19848.25
887.668	19479.25
887.909	19378.25
888.15	19174.25
888.39	19132.25
888.631	19032.25
888.871	18809.25
889.111	18653.25
889.352	18561.25
889.592	18392.25
889.833	18290.25
890.073	18279.25
890.313	18154.25
890.553	17924.25
890.793	17877.25
891.033	17789.25
891.273	17669.25
891.513	17535.25
891.753	17578.25
891.993	17467.25
892.233	17656.25
892.473	17605.25
892.713	17611.25
892.952	17682.25
893.192	17677.25
893.432	17539.25
893.671	17575.25
893.911	17417.25
894.15	17344.25
894.39	17202.25
894.629	17102.25
894.869	16945.25
895.108	16879.25
895.347	16899.25
895.587	16854.25
895.826	16725.25
896.065	16662.25
896.304	16776.25
896.543	16660.25
896.782	16524.25
897.021	16523.25
897.26	16465.25
897.499	16547.25
897.738	16393.25
897.977	16284.25
898.216	16079.25
898.454	16036.25
898.693	15946.25
898.932	15839.25
899.17	15766.25
899.409	15773.25
899.647	15747.25
899.886	15692.25
900.124	15656.25
900.363	15681.25
900.601	15734.25
900.839	15662.25
901.078	15706.25
901.316	15786.25
901.554	15871.25
901.792	15821.25
902.03	15715.25
902.268	15779.25
902.506	15801.25
902.744	15613.25
902.982	15537.25
903.22	15314.25
903.458	15156.25
903.695	15007.25
903.933	14761.25
904.171	14542.25
904.409	14351.25
904.646	14297.25
904.884	14006.25
905.121	13922.25
905.359	13750.25
905.596	13664.25
905.833	13504.25
906.071	13385.25
906.308	13457.25
906.545	13373.25
906.783	13307.25
907.02	13315.25
907.257	13193.25
907.494	13221.25
907.731	13163.25
907.968	13110.25
908.205	12904.25
908.442	12967.25
908.679	12815.25
908.915	12738.25
909.152	12650.25
909.389	12479.25
909.626	12406.25
909.862	12322.25
910.099	12305.25
910.335	12359.25
910.572	12183.25
910.808	12233.25
911.045	12078.25
911.281	12081.25
911.518	12059.25
911.754	11866.25
911.99	11902.25
912.226	11784.25
912.463	11721.25
912.699	11622.25
912.935	11526.25
913.171	11401.25
913.407	11355.25
913.643	11241.25
913.879	11194.25
914.114	11108.25
914.35	10920.25
914.586	10911.25
914.822	10779.25
915.057	10714.25
915.293	10579.25
915.529	10559.25
915.764	10517.25
916	10528.25
916.235	10499.25
916.471	10534.25
916.706	10423.25
916.941	10361.25
917.177	10387.25
917.412	10400.25
917.647	10432.25
917.882	10286.25
918.117	10310.25
918.352	10294.25
918.588	10271.25
918.823	10115.25
919.057	10045.25
919.292	9953.25
919.527	9893.25
919.762	9718.25
919.997	9711.25
920.232	9527.25
920.466	9538.25
920.701	9355.25
920.935	9371.25
921.17	9188.25
921.405	9215.25
921.639	9207.25
921.873	9139.25
922.108	9136.25
922.342	9071.25
922.576	9023.25
922.811	8871.25
923.045	8950.25
923.279	8933.25
923.513	8793.25
923.747	8809.25
923.981	8843.25
924.215	8709.25
924.449	8682.25
924.683	8553.25
924.917	8545.25
925.151	8491.25
925.385	8503.25
925.618	8467.25
925.852	8506.25
926.086	8343.25
926.319	8340.25
926.553	8350.25
926.786	8388.25
927.02	8381.25
927.253	8414.25
927.486	8398.25
927.72	8217.25
927.953	8273.25
928.186	8282.25
928.42	8192.25
928.653	8170.25
928.886	8075.25
929.119	8044.25
929.352	8090.25
929.585	7966.25
929.818	7939.25
930.051	7873.25
930.284	7857.25
930.516	7721.25
930.749	7712.25
930.982	7728.25
931.215	7657.25
931.447	7489.25
931.68	7569.25
931.912	7497.25
932.145	7508.25
932.377	7541.25
932.61	7588.25
932.842	7438.25
933.074	7512.25
933.307	7440.25
933.539	7542.25
933.771	7514.25
934.003	7444.25
934.236	7517.25
934.468	7563.25
934.7	7349.25
934.932	7453.25
935.164	7371.25
935.395	7334.25
935.627	7364.25
935.859	7287.25
936.091	7176.25
936.323	7234.25
936.554	7228.25
936.786	7158.25
937.017	7017.25
937.249	7086.25
937.481	7011.25
937.712	7084.25
937.943	7051.25
938.175	7038.25
938.406	6993.25
938.637	6992.25
938.869	6902.25
939.1	6963.25
939.331	6919.25
939.562	6924.25
939.793	6889.25
940.024	6907.25
940.255	6875.25
940.486	6829.25
940.717	6798.25
940.948	6735.25
941.179	6659.25
941.409	6684.25
941.64	6656.25
941.871	6682.25
942.102	6625.25
942.332	6601.25
942.563	6668.25
942.793	6619.25
943.024	6539.25
943.254	6609.25
943.484	6659.25
943.715	6652.25
943.945	6579.25
944.175	6587.25
944.405	6470.25
944.636	6487.25
944.866	6524.25
945.096	6549.25
945.326	6439.25
945.556	6471.25
945.786	6505.25
946.016	6431.25
946.245	6296.25
946.475	6290.25
946.705	6253.25
946.935	6226.25
947.164	6169.25
947.394	6142.25
947.624	6112.25
947.853	6162.25
948.083	6145.25
948.312	6037.25
948.542	5937.25
948.771	5968.25
949	5929.25
949.23	5921.25
949.459	5932.25
949.688	5979.25
949.917	5937.25
950.146	5917.25
950.375	6004.25
950.604	5915.25
950.833	5910.25
951.062	5872.25
951.291	5884.25
951.52	5835.25
951.749	5831.25
951.978	5752.25
952.206	5761.25
952.435	5763.25
952.664	5723.25
952.892	5757.25
953.121	5676.25
953.349	5708.25
953.578	5638.25
953.806	5621.25
954.035	5590.25
954.263	5568.25
954.491	5473.25
954.719	5548.25
954.948	5459.25
955.176	5424.25
955.404	5351.25
955.632	5405.25
955.86	5400.25
956.088	5381.25
956.316	5367.25
956.544	5327.25
956.772	5243.25
956.999	5228.25
957.227	5247.25
957.455	5189.25
957.683	5141.25
957.91	5118.25
958.138	5093.25
958.365	5071.25
958.593	5031.25
958.82	5015.25
959.048	5011.25
959.275	4991.25
959.502	4967.25
959.73	4932.25
959.957	4960.25
960.184	5009.25
960.411	4902.25
960.638	4941.25
960.865	4860.25
961.092	4935.25
961.319	4821.25
961.546	4933.25
961.773	4888.25
962	4867.25
962.227	4899.25
962.454	4838.25
962.68	4809.25
962.907	4793.25
963.134	4729.25
963.36	4726.25
963.587	4718.25
963.813	4616.25
964.04	4655.25
964.266	4564.25
964.493	4644.25
964.719	4558.25
964.945	4563.25
965.171	4456.25
965.398	4521.25
965.624	4560.25
965.85	4440.25
966.076	4419.25
966.302	4389.25
966.528	4412.25
966.754	4410.25
966.98	4379.25
967.206	4350.25
967.431	4250.25
967.657	4327.25
967.883	4341.25
968.109	4278.25
968.334	4221.25
968.56	4253.25
968.785	4245.25
969.011	4187.25
969.236	4243.25
969.462	4175.25
969.687	4174.25
969.912	4234.25
970.138	4229.25
970.363	4155.25
970.588	4149.25
970.813	4113.25
971.038	4006.25
971.263	4057.25
971.488	4085.25
971.713	4109.25
971.938	4062.25
972.163	3993.25
972.388	3995.25
972.613	3942.25
972.838	3938.25
973.062	3906.25
973.287	3917.25
973.512	3844.25
973.736	3907.25
973.961	3842.25
974.185	3833.25
974.41	3832.25
974.634	3683.25
974.858	3682.25
975.083	3764.25
975.307	3770.25
975.531	3651.25
975.755	3577.25
975.98	3601.25
976.204	3501.25
976.428	3566.25
976.652	3531.25
976.876	3490.25
977.1	3535.25
977.324	3520.25
977.547	3500.25
977.771	3516.25
977.995	3462.25
978.219	3441.25
978.442	3513.25
978.666	3453.25
978.89	3416.25
979.113	3449.25
979.337	3413.25
979.56	3335.25
979.783	3428.25
980.007	3308.25
980.23	3359.25
980.453	3255.25
980.677	3347.25
980.9	3305.25
981.123	3224.25
981.346	3298.25
981.569	3233.25
981.792	3283.25
982.015	3210.25
982.238	3157.25
982.461	3206.25
982.684	3205.25
982.907	3102.25
983.129	3106.25
983.352	3132.25
983.575	3086.25
983.797	3127.25
984.02	3066.25
984.242	3060.25
984.465	3013.25
984.687	3048.25
984.91	3070.25
985.132	3022.25
985.354	3001.25
985.577	3007.25
985.799	2946.25
986.021	2861.25
986.243	2919.25
986.465	2914.25
986.687	2951.25
986.909	2983.25
987.131	2893.25
987.353	2869.25
987.575	2920.25
987.797	2844.25
988.019	2764.25
988.241	2846.25
988.462	2816.25
988.684	2843.25
988.906	2835.25
989.127	2863.25
989.349	2733.25
989.57	2770.25
989.792	2848.25
990.013	2789.25
990.234	2803.25
990.456	2831.25
990.677	2778.25
990.898	2739.25
991.119	2700.25
991.341	2729.25
991.562	2644.25
991.783	2708.25
992.004	2625.25
992.225	2586.25
992.446	2628.25
992.667	2530.25
992.887	2656.25
993.108	2497.25
993.329	2642.25
993.55	2562.25
993.77	2494.25
993.991	2485.25
994.212	2503.25
994.432	2503.25
994.653	2496.25
994.873	2516.25
995.093	2343.25
995.314	2445.25
995.534	2481.25
995.754	2487.25
995.975	2507.25
996.195	2378.25
996.415	2433.25
996.635	2417.25
996.855	2428.25
997.075	2376.25
997.295	2366.25
997.515	2344.25
997.735	2411.25
997.955	2388.25
998.174	2341.25
998.394	2325.25
998.614	2371.25
998.834	2333.25
999.053	2380.25
999.273	2383.25
999.492	2364.25
999.712	2289.25
999.931	2271.25
1000.151	2344.25
1000.37	2277.25
1000.589	2315.25
1000.809	2238.25
1001.028	2363.25
1001.247	2301.25
1001.466	2180.25
1001.685	2289.25
1001.904	2208.25
1002.123	2203.25
1002.342	2220.25
1002.561	2125.25
1002.78	2181.25
1002.999	2205.25
1003.218	2167.25
1003.436	2125.25
1003.655	2146.25
1003.874	2087.25
1004.092	2131.25
1004.311	2134.25
1004.53	2137.25
1004.748	2180.25
1004.966	2110.25
1005.185	2123.25
1005.403	2128.25
1005.622	2103.25
1005.84	2154.25
1006.058	2062.25
1006.276	2089.25
1006.494	2561.25
1006.712	2076.25
1006.931	2131.25
1007.149	2055.25
1007.367	2042.25
1007.584	2088.25
1007.802	2081.25
1008.02	2068.25
1008.238	2144.25
1008.456	2150.25
1008.673	2021.25
1008.891	2140.25
1009.109	2114.25
1009.326	2134.25
1009.544	2226.25
1009.761	2135.25
1009.979	2235.25
1010.196	2245.25
1010.413	2329.25
1010.631	2395.25
1010.848	2435.25
1011.065	2419.25
1011.282	2403.25
1011.5	2313.25
1011.717	2436.25
1011.934	2370.25
1012.151	2417.25
1012.368	2381.25
1012.585	2306.25
1012.801	2372.25
1013.018	2350.25
1013.235	2300.25
1013.452	2336.25
1013.669	2329.25
1013.885	2287.25
1014.102	2344.25
1014.318	2327.25
1014.535	2292.25
1014.751	2277.25
1014.968	2285.25
1015.184	2295.25
1015.401	2262.25
1015.617	2211.25
1015.833	2148.25
1016.049	2159.25
1016.266	2136.25
1016.482	2158.25
1016.698	2053.25
1016.914	2120.25
1017.13	2039.25
1017.346	2056.25
1017.562	2153.25
1017.778	2023.25
1017.993	2021.25
1018.209	2045.25
1018.425	2035.25
1018.641	1992.25
1018.856	1973.25
1019.072	2005.25
1019.288	2046.25
1019.503	2008.25
1019.719	1885.25
1019.934	1933.25
1020.149	2004.25
1020.365	1932.25
1020.58	1871.25
1020.795	1931.25
1021.011	1851.25
1021.226	1803.25
1021.441	1799.25
1021.656	1715.25
1021.871	1641.25
1022.086	1637.25
1022.301	1599.25
1022.516	1614.25
1022.731	1661.25
1022.946	1553.25
1023.16	1545.25
1023.375	1496.25
1023.59	1475.25
1023.804	1451.25
1024.019	1546.25
1024.234	1380.25
1024.448	1420.25
1024.663	1340.25
1024.877	1354.25
1025.092	1348.25
1025.306	1343.25
1025.52	1259.25
1025.734	1317.25
1025.949	1229.25
1026.163	1203.25
1026.377	1139.25
1026.591	1199.25
1026.805	1107.25
1027.019	1078.25
1027.233	1048.25
1027.447	1007.25
1027.661	1078.25
1027.875	1027.25
1028.088	1031.25
1028.302	956.25
1028.516	953.25
1028.73	930.25
1028.943	900.25
1029.157	838.25
1029.37	814.25
1029.584	1.25
1029.797	-4.75
1030.011	-3.75
1030.224	3.25
