Data from QEP037381__204__15-57-29-891.txt Node

Date: Fri Dec 16 15:57:29 EST 2022
User: dcclab
Spectrometer: QEP03738
Trigger mode: 4
Integration Time (sec): 1.000000E1
Scans to average: 1
Electric dark correction enabled: true
Nonlinearity correction enabled: false
Boxcar width: 0
XAxis mode: Wavelengths
Number of Pixels in Spectrum: 1044
>>>>>Begin Spectral Data<<<<<
784.041	11.25
784.3	1.25
784.558	-5.75
784.817	-3.75
785.075	110423.25
785.334	19525.25
785.592	9257.25
785.851	6410.25
786.109	4796.25
786.368	3733.25
786.626	3040.25
786.884	2501.25
787.143	2131.25
787.401	1726.25
787.659	1540.25
787.917	1320.25
788.175	1214.25
788.433	1057.25
788.691	932.25
788.949	892.25
789.207	843.25
789.465	728.25
789.723	710.25
789.98	640.25
790.238	679.25
790.496	641.25
790.753	602.25
791.011	639.25
791.268	560.25
791.526	554.25
791.783	572.25
792.041	535.25
792.298	474.25
792.556	522.25
792.813	508.25
793.07	477.25
793.327	471.25
793.584	540.25
793.841	461.25
794.099	499.25
794.356	538.25
794.613	431.25
794.869	471.25
795.126	447.25
795.383	437.25
795.64	450.25
795.897	399.25
796.153	477.25
796.41	437.25
796.667	436.25
796.923	446.25
797.18	447.25
797.436	468.25
797.693	429.25
797.949	483.25
798.206	526.25
798.462	420.25
798.718	475.25
798.974	460.25
799.231	504.25
799.487	497.25
799.743	499.25
799.999	530.25
800.255	524.25
800.511	505.25
800.767	544.25
801.023	536.25
801.279	574.25
801.534	632.25
801.79	668.25
802.046	690.25
802.302	838.25
802.557	967.25
802.813	1223.25
803.068	1523.25
803.324	2074.25
803.579	2863.25
803.835	3914.25
804.09	5404.25
804.345	6973.25
804.601	8834.25
804.856	10651.25
805.111	12388.25
805.366	13650.25
805.621	14574.25
805.876	15280.25
806.131	15688.25
806.386	15765.25
806.641	16198.25
806.896	16380.25
807.151	16817.25
807.406	17062.25
807.661	17366.25
807.915	17542.25
808.17	17898.25
808.425	18091.25
808.679	18232.25
808.934	18403.25
809.188	18481.25
809.443	18672.25
809.697	18988.25
809.951	19083.25
810.206	19264.25
810.46	19476.25
810.714	19578.25
810.968	19785.25
811.223	19886.25
811.477	20053.25
811.731	20288.25
811.985	20311.25
812.239	20387.25
812.493	20555.25
812.747	20510.25
813	20670.25
813.254	20713.25
813.508	20848.25
813.762	20872.25
814.015	20953.25
814.269	21232.25
814.522	21325.25
814.776	21440.25
815.03	21810.25
815.283	22049.25
815.536	22434.25
815.79	22714.25
816.043	23109.25
816.296	23371.25
816.55	23658.25
816.803	23892.25
817.056	24246.25
817.309	24385.25
817.562	24551.25
817.815	24762.25
818.068	24910.25
818.321	25333.25
818.574	25564.25
818.827	25768.25
819.079	26083.25
819.332	26598.25
819.585	26935.25
819.838	27209.25
820.09	27385.25
820.343	27523.25
820.595	27746.25
820.848	27777.25
821.1	27943.25
821.353	27947.25
821.605	27964.25
821.857	27841.25
822.11	27657.25
822.362	27731.25
822.614	27558.25
822.866	27716.25
823.118	27678.25
823.37	27778.25
823.622	27922.25
823.874	27876.25
824.126	27957.25
824.378	28085.25
824.63	28204.25
824.882	28187.25
825.134	28049.25
825.385	28094.25
825.637	28080.25
825.888	27834.25
826.14	27785.25
826.392	27716.25
826.643	27628.25
826.895	27525.25
827.146	27380.25
827.397	27375.25
827.649	27415.25
827.9	27347.25
828.151	27278.25
828.402	27320.25
828.653	27417.25
828.905	27602.25
829.156	27574.25
829.407	27549.25
829.658	27530.25
829.909	27641.25
830.159	27545.25
830.41	27489.25
830.661	27330.25
830.912	27061.25
831.162	26973.25
831.413	26941.25
831.664	26898.25
831.914	26896.25
832.165	26894.25
832.415	26828.25
832.666	26861.25
832.916	26920.25
833.167	26834.25
833.417	26913.25
833.667	26714.25
833.917	26599.25
834.168	26583.25
834.418	26659.25
834.668	26348.25
834.918	26243.25
835.168	26166.25
835.418	26016.25
835.668	26010.25
835.918	25887.25
836.167	25872.25
836.417	25794.25
836.667	25761.25
836.917	25672.25
837.166	25687.25
837.416	25732.25
837.666	25669.25
837.915	25602.25
838.165	25546.25
838.414	25414.25
838.663	25413.25
838.913	25394.25
839.162	25276.25
839.411	25319.25
839.661	25234.25
839.91	25133.25
840.159	25108.25
840.408	25030.25
840.657	24983.25
840.906	25040.25
841.155	25135.25
841.404	25003.25
841.653	25042.25
841.902	25081.25
842.15	25069.25
842.399	25179.25
842.648	24987.25
842.897	25007.25
843.145	24841.25
843.394	24733.25
843.642	24482.25
843.891	24445.25
844.139	24276.25
844.388	23975.25
844.636	23950.25
844.884	23966.25
845.133	23859.25
845.381	23937.25
845.629	24049.25
845.877	23857.25
846.125	23857.25
846.373	23814.25
846.621	23705.25
846.869	23526.25
847.117	23490.25
847.365	23402.25
847.613	23226.25
847.861	23173.25
848.108	23191.25
848.356	23103.25
848.604	22954.25
848.851	23044.25
849.099	23142.25
849.346	23151.25
849.594	23190.25
849.841	23240.25
850.089	23277.25
850.336	23244.25
850.583	23178.25
850.831	22957.25
851.078	22968.25
851.325	23050.25
851.572	23080.25
851.819	22800.25
852.066	22516.25
852.313	22047.25
852.56	22015.25
852.807	21808.25
853.054	21771.25
853.301	21720.25
853.548	21772.25
853.794	21819.25
854.041	21972.25
854.288	22013.25
854.534	22219.25
854.781	22232.25
855.028	22087.25
855.274	22079.25
855.52	21853.25
855.767	21812.25
856.013	21787.25
856.26	22104.25
856.506	21493.25
856.752	21661.25
856.998	21568.25
857.244	21678.25
857.49	21802.25
857.736	21876.25
857.982	21759.25
858.228	21582.25
858.474	21490.25
858.72	21346.25
858.966	21197.25
859.212	20998.25
859.458	20738.25
859.703	20524.25
859.949	20369.25
860.195	20218.25
860.44	20121.25
860.686	20004.25
860.931	20117.25
861.177	19921.25
861.422	19842.25
861.667	19770.25
861.913	19720.25
862.158	19818.25
862.403	19815.25
862.648	19747.25
862.893	19917.25
863.138	19769.25
863.384	19774.25
863.629	19843.25
863.873	19777.25
864.118	19630.25
864.363	19503.25
864.608	19429.25
864.853	19451.25
865.098	19247.25
865.342	19284.25
865.587	19207.25
865.832	19049.25
866.076	19141.25
866.321	18971.25
866.565	18907.25
866.81	18793.25
867.054	18783.25
867.298	18788.25
867.543	18647.25
867.787	18591.25
868.031	18584.25
868.275	18503.25
868.519	18620.25
868.764	18471.25
869.008	18423.25
869.252	18446.25
869.496	18334.25
869.739	18240.25
869.983	18334.25
870.227	18186.25
870.471	18295.25
870.715	18327.25
870.958	18390.25
871.202	18381.25
871.446	18428.25
871.689	18415.25
871.933	18369.25
872.176	18395.25
872.42	18278.25
872.663	18338.25
872.906	18238.25
873.15	18261.25
873.393	18123.25
873.636	18145.25
873.879	17963.25
874.122	17790.25
874.366	17484.25
874.609	17465.25
874.852	17243.25
875.095	17199.25
875.337	17035.25
875.58	16931.25
875.823	16905.25
876.066	16866.25
876.309	16863.25
876.551	16694.25
876.794	16556.25
877.037	16654.25
877.279	16531.25
877.522	16532.25
877.764	16540.25
878.007	16515.25
878.249	16464.25
878.491	16438.25
878.734	16402.25
878.976	16304.25
879.218	16185.25
879.46	16194.25
879.702	16065.25
879.945	16004.25
880.187	15780.25
880.429	15734.25
880.671	15562.25
880.912	15510.25
881.154	15522.25
881.396	15381.25
881.638	15409.25
881.88	15469.25
882.121	15393.25
882.363	15487.25
882.605	15379.25
882.846	15409.25
883.088	15333.25
883.329	15363.25
883.571	15298.25
883.812	15475.25
884.053	15641.25
884.295	15886.25
884.536	16140.25
884.777	15976.25
885.018	15871.25
885.259	15824.25
885.5	15556.25
885.742	15857.25
885.982	15639.25
886.223	15502.25
886.464	15340.25
886.705	15151.25
886.946	15113.25
887.187	14875.25
887.428	14838.25
887.668	14542.25
887.909	14299.25
888.15	14174.25
888.39	14116.25
888.631	14065.25
888.871	13839.25
889.111	13757.25
889.352	13708.25
889.592	13579.25
889.833	13447.25
890.073	13476.25
890.313	13435.25
890.553	13205.25
890.793	13207.25
891.033	13007.25
891.273	12975.25
891.513	13000.25
891.753	13032.25
891.993	12923.25
892.233	12858.25
892.473	12976.25
892.713	12988.25
892.952	12951.25
893.192	12984.25
893.432	12905.25
893.671	12947.25
893.911	12804.25
894.15	12745.25
894.39	12654.25
894.629	12626.25
894.869	12552.25
895.108	12439.25
895.347	12407.25
895.587	12403.25
895.826	12361.25
896.065	12247.25
896.304	12327.25
896.543	12266.25
896.782	12154.25
897.021	12267.25
897.26	12182.25
897.499	12180.25
897.738	12277.25
897.977	12074.25
898.216	11947.25
898.454	11830.25
898.693	11747.25
898.932	11680.25
899.17	11650.25
899.409	11695.25
899.647	11586.25
899.886	11483.25
900.124	11671.25
900.363	11521.25
900.601	11645.25
900.839	11618.25
901.078	11643.25
901.316	11675.25
901.554	11767.25
901.792	11757.25
902.03	11648.25
902.268	11676.25
902.506	11697.25
902.744	11629.25
902.982	11538.25
903.22	11366.25
903.458	11250.25
903.695	11053.25
903.933	10913.25
904.171	10783.25
904.409	10616.25
904.646	10511.25
904.884	10404.25
905.121	10254.25
905.359	10156.25
905.596	10071.25
905.833	9899.25
906.071	9954.25
906.308	9918.25
906.545	9872.25
906.783	9832.25
907.02	9812.25
907.257	9730.25
907.494	9740.25
907.731	9798.25
907.968	9689.25
908.205	9553.25
908.442	9463.25
908.679	9468.25
908.915	9441.25
909.152	9361.25
909.389	9204.25
909.626	9196.25
909.862	9102.25
910.099	9089.25
910.335	9174.25
910.572	8916.25
910.808	9036.25
911.045	8936.25
911.281	8893.25
911.518	8985.25
911.754	8819.25
911.99	8790.25
912.226	8655.25
912.463	8664.25
912.699	8623.25
912.935	8554.25
913.171	8436.25
913.407	8377.25
913.643	8347.25
913.879	8278.25
914.114	8166.25
914.35	8079.25
914.586	8009.25
914.822	7956.25
915.057	7949.25
915.293	7828.25
915.529	7727.25
915.764	7802.25
916	7854.25
916.235	7783.25
916.471	7752.25
916.706	7651.25
916.941	7729.25
917.177	7706.25
917.412	7648.25
917.647	7691.25
917.882	7665.25
918.117	7629.25
918.352	7663.25
918.588	7613.25
918.823	7524.25
919.057	7474.25
919.292	7269.25
919.527	7322.25
919.762	7189.25
919.997	7219.25
920.232	7111.25
920.466	7091.25
920.701	6923.25
920.935	6973.25
921.17	6924.25
921.405	6851.25
921.639	6875.25
921.873	6773.25
922.108	6814.25
922.342	6820.25
922.576	6706.25
922.811	6701.25
923.045	6669.25
923.279	6703.25
923.513	6521.25
923.747	6598.25
923.981	6545.25
924.215	6410.25
924.449	6471.25
924.683	6431.25
924.917	6348.25
925.151	6310.25
925.385	6343.25
925.618	6281.25
925.852	6248.25
926.086	6210.25
926.319	6263.25
926.553	6231.25
926.786	6223.25
927.02	6188.25
927.253	6229.25
927.486	6209.25
927.72	6158.25
927.953	6194.25
928.186	6129.25
928.42	6185.25
928.653	6059.25
928.886	6047.25
929.119	6025.25
929.352	6014.25
929.585	6007.25
929.818	5884.25
930.051	5892.25
930.284	5873.25
930.516	5712.25
930.749	5678.25
930.982	5741.25
931.215	5721.25
931.447	5601.25
931.68	5604.25
931.912	5581.25
932.145	5558.25
932.377	5610.25
932.61	5739.25
932.842	5530.25
933.074	5605.25
933.307	5493.25
933.539	5615.25
933.771	5639.25
934.003	5499.25
934.236	5643.25
934.468	5635.25
934.7	5472.25
934.932	5608.25
935.164	5482.25
935.395	5449.25
935.627	5426.25
935.859	5479.25
936.091	5360.25
936.323	5406.25
936.554	5432.25
936.786	5323.25
937.017	5303.25
937.249	5298.25
937.481	5260.25
937.712	5366.25
937.943	5233.25
938.175	5264.25
938.406	5235.25
938.637	5295.25
938.869	5179.25
939.1	5158.25
939.331	5189.25
939.562	5194.25
939.793	5182.25
940.024	5135.25
940.255	5146.25
940.486	5076.25
940.717	5052.25
940.948	5022.25
941.179	5002.25
941.409	5019.25
941.64	4997.25
941.871	4990.25
942.102	4962.25
942.332	4906.25
942.563	4983.25
942.793	4967.25
943.024	4894.25
943.254	4939.25
943.484	5000.25
943.715	4991.25
943.945	4935.25
944.175	4868.25
944.405	4815.25
944.636	4880.25
944.866	4918.25
945.096	4902.25
945.326	4796.25
945.556	4891.25
945.786	4844.25
946.016	4795.25
946.245	4708.25
946.475	4719.25
946.705	4687.25
946.935	4691.25
947.164	4643.25
947.394	4603.25
947.624	4623.25
947.853	4637.25
948.083	4548.25
948.312	4584.25
948.542	4473.25
948.771	4413.25
949	4477.25
949.23	4418.25
949.459	4453.25
949.688	4531.25
949.917	4480.25
950.146	4415.25
950.375	4519.25
950.604	4378.25
950.833	4454.25
951.062	4485.25
951.291	4428.25
951.52	4406.25
951.749	4386.25
951.978	4337.25
952.206	4334.25
952.435	4311.25
952.664	4357.25
952.892	4345.25
953.121	4267.25
953.349	4293.25
953.578	4257.25
953.806	4257.25
954.035	4192.25
954.263	4223.25
954.491	4131.25
954.719	4188.25
954.948	4106.25
955.176	4058.25
955.404	3997.25
955.632	4038.25
955.86	4080.25
956.088	4048.25
956.316	4060.25
956.544	4018.25
956.772	3912.25
956.999	3923.25
957.227	3987.25
957.455	3920.25
957.683	3888.25
957.91	3858.25
958.138	3859.25
958.365	3842.25
958.593	3794.25
958.82	3752.25
959.048	3818.25
959.275	3795.25
959.502	3774.25
959.73	3743.25
959.957	3744.25
960.184	3762.25
960.411	3714.25
960.638	3726.25
960.865	3715.25
961.092	3770.25
961.319	3654.25
961.546	3724.25
961.773	3715.25
962	3679.25
962.227	3720.25
962.454	3666.25
962.68	3647.25
962.907	3674.25
963.134	3596.25
963.36	3559.25
963.587	3551.25
963.813	3512.25
964.04	3565.25
964.266	3508.25
964.493	3526.25
964.719	3505.25
964.945	3517.25
965.171	3374.25
965.398	3437.25
965.624	3433.25
965.85	3379.25
966.076	3352.25
966.302	3405.25
966.528	3354.25
966.754	3372.25
966.98	3314.25
967.206	3311.25
967.431	3257.25
967.657	3325.25
967.883	3321.25
968.109	3293.25
968.334	3239.25
968.56	3222.25
968.785	3183.25
969.011	3218.25
969.236	3328.25
969.462	3205.25
969.687	3184.25
969.912	3255.25
970.138	3250.25
970.363	3138.25
970.588	3172.25
970.813	3159.25
971.038	3095.25
971.263	3138.25
971.488	3133.25
971.713	3162.25
971.938	3099.25
972.163	3032.25
972.388	3036.25
972.613	3018.25
972.838	3009.25
973.062	2954.25
973.287	2970.25
973.512	2906.25
973.736	2946.25
973.961	2948.25
974.185	2917.25
974.41	2935.25
974.634	2826.25
974.858	2850.25
975.083	2854.25
975.307	2887.25
975.531	2829.25
975.755	2756.25
975.98	2763.25
976.204	2711.25
976.428	2688.25
976.652	2710.25
976.876	2675.25
977.1	2749.25
977.324	2678.25
977.547	2701.25
977.771	2703.25
977.995	2638.25
978.219	2629.25
978.442	2714.25
978.666	2675.25
978.89	2653.25
979.113	2647.25
979.337	2638.25
979.56	2620.25
979.783	2673.25
980.007	2581.25
980.23	2608.25
980.453	2551.25
980.677	2610.25
980.9	2588.25
981.123	2447.25
981.346	2560.25
981.569	2554.25
981.792	2540.25
982.015	2494.25
982.238	2472.25
982.461	2488.25
982.684	2446.25
982.907	2426.25
983.129	2403.25
983.352	2430.25
983.575	2402.25
983.797	2390.25
984.02	2337.25
984.242	2339.25
984.465	2365.25
984.687	2394.25
984.91	2389.25
985.132	2369.25
985.354	2384.25
985.577	2353.25
985.799	2312.25
986.021	2235.25
986.243	2252.25
986.465	2272.25
986.687	2328.25
986.909	2350.25
987.131	2262.25
987.353	2239.25
987.575	2275.25
987.797	2250.25
988.019	2203.25
988.241	2210.25
988.462	2160.25
988.684	2227.25
988.906	2277.25
989.127	2288.25
989.349	2166.25
989.57	2206.25
989.792	2232.25
990.013	2191.25
990.234	2210.25
990.456	2261.25
990.677	2241.25
990.898	2151.25
991.119	2147.25
991.341	2195.25
991.562	2111.25
991.783	2171.25
992.004	2064.25
992.225	2041.25
992.446	2087.25
992.667	2013.25
992.887	2080.25
993.108	1972.25
993.329	2118.25
993.55	2052.25
993.77	1940.25
993.991	1976.25
994.212	2013.25
994.432	2043.25
994.653	2032.25
994.873	2016.25
995.093	1888.25
995.314	1908.25
995.534	1982.25
995.754	2010.25
995.975	2004.25
996.195	1885.25
996.415	1951.25
996.635	1922.25
996.855	1950.25
997.075	1931.25
997.295	1905.25
997.515	1865.25
997.735	1945.25
997.955	1917.25
998.174	1910.25
998.394	1870.25
998.614	1906.25
998.834	1844.25
999.053	1937.25
999.273	1891.25
999.492	1923.25
999.712	1862.25
999.931	1847.25
1000.151	1859.25
1000.37	1858.25
1000.589	1911.25
1000.809	1814.25
1001.028	1912.25
1001.247	1844.25
1001.466	1729.25
1001.685	1863.25
1001.904	1860.25
1002.123	1788.25
1002.342	1783.25
1002.561	1733.25
1002.78	1778.25
1002.999	1842.25
1003.218	1755.25
1003.436	1756.25
1003.655	1830.25
1003.874	1706.25
1004.092	1774.25
1004.311	1783.25
1004.53	1737.25
1004.748	1813.25
1004.966	1733.25
1005.185	1813.25
1005.403	1782.25
1005.622	1763.25
1005.84	1807.25
1006.058	1700.25
1006.276	1744.25
1006.494	2231.25
1006.712	1733.25
1006.931	1792.25
1007.149	1706.25
1007.367	1728.25
1007.584	1746.25
1007.802	1795.25
1008.02	1702.25
1008.238	1842.25
1008.456	1806.25
1008.673	1660.25
1008.891	1793.25
1009.109	1747.25
1009.326	1793.25
1009.544	1896.25
1009.761	1790.25
1009.979	1925.25
1010.196	1939.25
1010.413	1995.25
1010.631	2040.25
1010.848	2103.25
1011.065	2135.25
1011.282	2043.25
1011.5	2009.25
1011.717	2136.25
1011.934	2058.25
1012.151	2085.25
1012.368	2043.25
1012.585	1998.25
1012.801	2037.25
1013.018	2036.25
1013.235	1987.25
1013.452	2000.25
1013.669	2021.25
1013.885	1998.25
1014.102	2032.25
1014.318	2002.25
1014.535	1962.25
1014.751	2016.25
1014.968	1990.25
1015.184	2012.25
1015.401	1945.25
1015.617	1926.25
1015.833	1890.25
1016.049	1868.25
1016.266	1867.25
1016.482	1834.25
1016.698	1812.25
1016.914	1817.25
1017.13	1784.25
1017.346	1772.25
1017.562	1817.25
1017.778	1779.25
1017.993	1740.25
1018.209	1795.25
1018.425	1757.25
1018.641	1739.25
1018.856	1713.25
1019.072	1716.25
1019.288	1772.25
1019.503	1723.25
1019.719	1626.25
1019.934	1649.25
1020.149	1738.25
1020.365	1637.25
1020.58	1596.25
1020.795	1644.25
1021.011	1553.25
1021.226	1527.25
1021.441	1525.25
1021.656	1479.25
1021.871	1384.25
1022.086	1407.25
1022.301	1384.25
1022.516	1364.25
1022.731	1411.25
1022.946	1337.25
1023.16	1324.25
1023.375	1287.25
1023.59	1276.25
1023.804	1217.25
1024.019	1300.25
1024.234	1178.25
1024.448	1201.25
1024.663	1148.25
1024.877	1145.25
1025.092	1163.25
1025.306	1172.25
1025.52	1067.25
1025.734	1159.25
1025.949	1067.25
1026.163	1009.25
1026.377	956.25
1026.591	1023.25
1026.805	949.25
1027.019	936.25
1027.233	899.25
1027.447	860.25
1027.661	930.25
1027.875	879.25
1028.088	874.25
1028.302	805.25
1028.516	814.25
1028.73	802.25
1028.943	791.25
1029.157	727.25
1029.37	675.25
1029.584	0.25
1029.797	1.25
1030.011	-0.75
1030.224	-3.75
