Data from QEP037381__138__15-46-29-881.txt Node

Date: Fri Dec 16 15:46:29 EST 2022
User: dcclab
Spectrometer: QEP03738
Trigger mode: 4
Integration Time (sec): 1.000000E1
Scans to average: 1
Electric dark correction enabled: true
Nonlinearity correction enabled: false
Boxcar width: 0
XAxis mode: Wavelengths
Number of Pixels in Spectrum: 1044
>>>>>Begin Spectral Data<<<<<
784.041	12.62
784.3	-1.38
784.558	-3.38
784.817	-5.38
785.075	106957.62
785.334	18608.62
785.592	8854.62
785.851	6097.62
786.109	4615.62
786.368	3584.62
786.626	2936.62
786.884	2384.62
787.143	2005.62
787.401	1678.62
787.659	1486.62
787.917	1277.62
788.175	1177.62
788.433	1033.62
788.691	925.62
788.949	865.62
789.207	829.62
789.465	697.62
789.723	688.62
789.98	634.62
790.238	654.62
790.496	627.62
790.753	583.62
791.011	618.62
791.268	574.62
791.526	569.62
791.783	586.62
792.041	549.62
792.298	469.62
792.556	541.62
792.813	527.62
793.07	503.62
793.327	487.62
793.584	580.62
793.841	481.62
794.099	514.62
794.356	582.62
794.613	471.62
794.869	504.62
795.126	467.62
795.383	461.62
795.64	477.62
795.897	435.62
796.153	477.62
796.41	452.62
796.667	455.62
796.923	471.62
797.18	474.62
797.436	485.62
797.693	459.62
797.949	499.62
798.206	544.62
798.462	460.62
798.718	532.62
798.974	490.62
799.231	541.62
799.487	528.62
799.743	548.62
799.999	566.62
800.255	584.62
800.511	563.62
800.767	625.62
801.023	612.62
801.279	659.62
801.534	712.62
801.79	773.62
802.046	833.62
802.302	1023.62
802.557	1194.62
802.813	1505.62
803.068	1894.62
803.324	2679.62
803.579	3703.62
803.835	5182.62
804.09	7136.62
804.345	9303.62
804.601	11855.62
804.856	14369.62
805.111	16745.62
805.366	18308.62
805.621	19790.62
805.876	20795.62
806.131	21216.62
806.386	21614.62
806.641	22158.62
806.896	22435.62
807.151	22895.62
807.406	23218.62
807.661	23691.62
807.915	24132.62
808.17	24525.62
808.425	24827.62
808.679	24988.62
808.934	25312.62
809.188	25527.62
809.443	25827.62
809.697	26012.62
809.951	26305.62
810.206	26482.62
810.46	26609.62
810.714	26948.62
810.968	27169.62
811.223	27445.62
811.477	27653.62
811.731	27851.62
811.985	27963.62
812.239	28197.62
812.493	28367.62
812.747	28418.62
813	28493.62
813.254	28715.62
813.508	28770.62
813.762	28869.62
814.015	29018.62
814.269	29169.62
814.522	29612.62
814.776	29727.62
815.03	30277.62
815.283	30635.62
815.536	31170.62
815.79	31638.62
816.043	31980.62
816.296	32363.62
816.55	32945.62
816.803	33240.62
817.056	33607.62
817.309	34044.62
817.562	34260.62
817.815	34641.62
818.068	34907.62
818.321	35349.62
818.574	35686.62
818.827	36117.62
819.079	36541.62
819.332	37144.62
819.585	37533.62
819.838	38078.62
820.09	38256.62
820.343	38678.62
820.595	38765.62
820.848	39167.62
821.1	39215.62
821.353	39243.62
821.605	39219.62
821.857	39158.62
822.11	39056.62
822.362	38944.62
822.614	38864.62
822.866	38745.62
823.118	38792.62
823.37	38994.62
823.622	39016.62
823.874	39170.62
824.126	39425.62
824.378	39432.62
824.63	39577.62
824.882	39493.62
825.134	39579.62
825.385	39429.62
825.637	39444.62
825.888	39212.62
826.14	39172.62
826.392	39053.62
826.643	38816.62
826.895	38709.62
827.146	38562.62
827.397	38461.62
827.649	38510.62
827.9	38495.62
828.151	38507.62
828.402	38588.62
828.653	38847.62
828.905	38839.62
829.156	38991.62
829.407	38800.62
829.658	38852.62
829.909	38814.62
830.159	38796.62
830.41	38617.62
830.661	38481.62
830.912	38221.62
831.162	38060.62
831.413	37902.62
831.664	37982.62
831.914	37991.62
832.165	37834.62
832.415	37864.62
832.666	37772.62
832.916	37790.62
833.167	37767.62
833.417	37748.62
833.667	37752.62
833.917	37586.62
834.168	37432.62
834.418	37272.62
834.668	37108.62
834.918	36986.62
835.168	36844.62
835.418	36773.62
835.668	36609.62
835.918	36415.62
836.167	36471.62
836.417	36305.62
836.667	36277.62
836.917	36229.62
837.166	36111.62
837.416	36226.62
837.666	36085.62
837.915	36135.62
838.165	35958.62
838.414	35945.62
838.663	35927.62
838.913	35833.62
839.162	35785.62
839.411	35822.62
839.661	35476.62
839.91	35504.62
840.159	35165.62
840.408	35220.62
840.657	35233.62
840.906	35248.62
841.155	35278.62
841.404	35219.62
841.653	35213.62
841.902	35354.62
842.15	35363.62
842.399	35383.62
842.648	35307.62
842.897	35170.62
843.145	34824.62
843.394	34612.62
843.642	34662.62
843.891	34338.62
844.139	34099.62
844.388	33968.62
844.636	33693.62
844.884	33857.62
845.133	33909.62
845.381	33792.62
845.629	33830.62
845.877	33649.62
846.125	33606.62
846.373	33584.62
846.621	33493.62
846.869	33286.62
847.117	33072.62
847.365	32843.62
847.613	32849.62
847.861	32797.62
848.108	32694.62
848.356	32619.62
848.604	32580.62
848.851	32487.62
849.099	32512.62
849.346	32634.62
849.594	32757.62
849.841	32748.62
850.089	32795.62
850.336	32811.62
850.583	32704.62
850.831	32608.62
851.078	32351.62
851.325	32414.62
851.572	32487.62
851.819	32078.62
852.066	31603.62
852.313	31258.62
852.56	31005.62
852.807	30770.62
853.054	30650.62
853.301	30675.62
853.548	30590.62
853.794	30684.62
854.041	30827.62
854.288	30949.62
854.534	31304.62
854.781	31086.62
855.028	30952.62
855.274	30942.62
855.52	30781.62
855.767	30527.62
856.013	30513.62
856.26	30736.62
856.506	30319.62
856.752	30283.62
856.998	30246.62
857.244	30219.62
857.49	30374.62
857.736	30561.62
857.982	30551.62
858.228	30356.62
858.474	30100.62
858.72	30013.62
858.966	29779.62
859.212	29420.62
859.458	29109.62
859.703	28865.62
859.949	28748.62
860.195	28487.62
860.44	28295.62
860.686	28042.62
860.931	28105.62
861.177	27927.62
861.422	28017.62
861.667	27825.62
861.913	27748.62
862.158	27825.62
862.403	27895.62
862.648	27937.62
862.893	28044.62
863.138	27858.62
863.384	27843.62
863.629	27731.62
863.873	27749.62
864.118	27671.62
864.363	27430.62
864.608	27469.62
864.853	27329.62
865.098	27220.62
865.342	27106.62
865.587	27075.62
865.832	26924.62
866.076	26926.62
866.321	26801.62
866.565	26777.62
866.81	26469.62
867.054	26524.62
867.298	26352.62
867.543	26296.62
867.787	26343.62
868.031	26259.62
868.275	26134.62
868.519	26080.62
868.764	26043.62
869.008	25824.62
869.252	25918.62
869.496	25768.62
869.739	25712.62
869.983	25658.62
870.227	25715.62
870.471	25654.62
870.715	25794.62
870.958	25806.62
871.202	25847.62
871.446	25837.62
871.689	25819.62
871.933	25769.62
872.176	25843.62
872.42	25739.62
872.663	25705.62
872.906	25503.62
873.15	25527.62
873.393	25292.62
873.636	25072.62
873.879	24891.62
874.122	24844.62
874.366	24479.62
874.609	24266.62
874.852	24173.62
875.095	24007.62
875.337	23817.62
875.58	23844.62
875.823	23697.62
876.066	23636.62
876.309	23598.62
876.551	23371.62
876.794	23275.62
877.037	23303.62
877.279	23156.62
877.522	23167.62
877.764	23249.62
878.007	23014.62
878.249	23273.62
878.491	23148.62
878.734	23111.62
878.976	23046.62
879.218	22780.62
879.46	22737.62
879.702	22622.62
879.945	22410.62
880.187	22237.62
880.429	22111.62
880.671	22071.62
880.912	21969.62
881.154	21842.62
881.396	21715.62
881.638	21770.62
881.88	21845.62
882.121	21661.62
882.363	21651.62
882.605	21624.62
882.846	21524.62
883.088	21497.62
883.329	21334.62
883.571	21321.62
883.812	21432.62
884.053	21658.62
884.295	21950.62
884.536	22041.62
884.777	21982.62
885.018	21832.62
885.259	21734.62
885.5	21566.62
885.742	22016.62
885.982	21479.62
886.223	21395.62
886.464	21336.62
886.705	21076.62
886.946	20897.62
887.187	20703.62
887.428	20583.62
887.668	20317.62
887.909	20031.62
888.15	19875.62
888.39	19803.62
888.631	19608.62
888.871	19501.62
889.111	19344.62
889.352	19270.62
889.592	19082.62
889.833	18981.62
890.073	18838.62
890.313	18777.62
890.553	18531.62
890.793	18499.62
891.033	18400.62
891.273	18329.62
891.513	18270.62
891.753	18289.62
891.993	18152.62
892.233	18174.62
892.473	18242.62
892.713	18247.62
892.952	18232.62
893.192	18194.62
893.432	18148.62
893.671	18172.62
893.911	18098.62
894.15	18032.62
894.39	17771.62
894.629	17669.62
894.869	17643.62
895.108	17485.62
895.347	17491.62
895.587	17452.62
895.826	17280.62
896.065	17231.62
896.304	17228.62
896.543	17271.62
896.782	17060.62
897.021	17046.62
897.26	16984.62
897.499	17100.62
897.738	17036.62
897.977	16814.62
898.216	16824.62
898.454	16495.62
898.693	16376.62
898.932	16385.62
899.17	16321.62
899.409	16341.62
899.647	16360.62
899.886	16213.62
900.124	16238.62
900.363	16236.62
900.601	16256.62
900.839	16247.62
901.078	16244.62
901.316	16300.62
901.554	16431.62
901.792	16358.62
902.03	16284.62
902.268	16308.62
902.506	16367.62
902.744	16182.62
902.982	16059.62
903.22	15884.62
903.458	15616.62
903.695	15512.62
903.933	15366.62
904.171	15072.62
904.409	14871.62
904.646	14716.62
904.884	14413.62
905.121	14433.62
905.359	14247.62
905.596	14138.62
905.833	13881.62
906.071	13875.62
906.308	13941.62
906.545	13726.62
906.783	13729.62
907.02	13728.62
907.257	13613.62
907.494	13629.62
907.731	13551.62
907.968	13577.62
908.205	13389.62
908.442	13365.62
908.679	13253.62
908.915	13205.62
909.152	13049.62
909.389	12864.62
909.626	12872.62
909.862	12741.62
910.099	12781.62
910.335	12759.62
910.572	12614.62
910.808	12604.62
911.045	12579.62
911.281	12540.62
911.518	12449.62
911.754	12333.62
911.99	12316.62
912.226	12171.62
912.463	12007.62
912.699	11940.62
912.935	11950.62
913.171	11862.62
913.407	11684.62
913.643	11606.62
913.879	11531.62
914.114	11417.62
914.35	11329.62
914.586	11181.62
914.822	11116.62
915.057	11241.62
915.293	10977.62
915.529	10800.62
915.764	10911.62
916	10872.62
916.235	10795.62
916.471	10855.62
916.706	10741.62
916.941	10739.62
917.177	10705.62
917.412	10727.62
917.647	10751.62
917.882	10651.62
918.117	10750.62
918.352	10589.62
918.588	10640.62
918.823	10512.62
919.057	10373.62
919.292	10212.62
919.527	10219.62
919.762	10076.62
919.997	10022.62
920.232	9836.62
920.466	9756.62
920.701	9645.62
920.935	9612.62
921.17	9584.62
921.405	9525.62
921.639	9517.62
921.873	9418.62
922.108	9481.62
922.342	9418.62
922.576	9311.62
922.811	9300.62
923.045	9306.62
923.279	9265.62
923.513	9076.62
923.747	9188.62
923.981	9081.62
924.215	9009.62
924.449	8907.62
924.683	8840.62
924.917	8799.62
925.151	8841.62
925.385	8778.62
925.618	8730.62
925.852	8657.62
926.086	8626.62
926.319	8643.62
926.553	8611.62
926.786	8661.62
927.02	8592.62
927.253	8637.62
927.486	8650.62
927.72	8532.62
927.953	8600.62
928.186	8473.62
928.42	8485.62
928.653	8431.62
928.886	8383.62
929.119	8449.62
929.352	8355.62
929.585	8241.62
929.818	8168.62
930.051	8117.62
930.284	8054.62
930.516	7965.62
930.749	7941.62
930.982	7909.62
931.215	7885.62
931.447	7810.62
931.68	7797.62
931.912	7709.62
932.145	7733.62
932.377	7721.62
932.61	7862.62
932.842	7719.62
933.074	7649.62
933.307	7630.62
933.539	7725.62
933.771	7649.62
934.003	7644.62
934.236	7712.62
934.468	7801.62
934.7	7628.62
934.932	7681.62
935.164	7587.62
935.395	7492.62
935.627	7538.62
935.859	7576.62
936.091	7449.62
936.323	7461.62
936.554	7440.62
936.786	7363.62
937.017	7263.62
937.249	7270.62
937.481	7233.62
937.712	7267.62
937.943	7248.62
938.175	7197.62
938.406	7240.62
938.637	7302.62
938.869	7121.62
939.1	7167.62
939.331	7151.62
939.562	7097.62
939.793	7063.62
940.024	7089.62
940.255	7088.62
940.486	6969.62
940.717	6993.62
940.948	6956.62
941.179	6889.62
941.409	6854.62
941.64	6836.62
941.871	6878.62
942.102	6798.62
942.332	6840.62
942.563	6866.62
942.793	6843.62
943.024	6783.62
943.254	6802.62
943.484	6847.62
943.715	6813.62
943.945	6791.62
944.175	6700.62
944.405	6697.62
944.636	6723.62
944.866	6774.62
945.096	6741.62
945.326	6621.62
945.556	6719.62
945.786	6730.62
946.016	6561.62
946.245	6529.62
946.475	6473.62
946.705	6438.62
946.935	6414.62
947.164	6367.62
947.394	6281.62
947.624	6286.62
947.853	6383.62
948.083	6289.62
948.312	6231.62
948.542	6170.62
948.771	6100.62
949	6177.62
949.23	6089.62
949.459	6153.62
949.688	6115.62
949.917	6054.62
950.146	6156.62
950.375	6166.62
950.604	6072.62
950.833	6158.62
951.062	6095.62
951.291	6017.62
951.52	6019.62
951.749	6005.62
951.978	5933.62
952.206	5919.62
952.435	5883.62
952.664	5952.62
952.892	5907.62
953.121	5849.62
953.349	5898.62
953.578	5823.62
953.806	5765.62
954.035	5713.62
954.263	5719.62
954.491	5626.62
954.719	5700.62
954.948	5640.62
955.176	5621.62
955.404	5537.62
955.632	5560.62
955.86	5589.62
956.088	5510.62
956.316	5491.62
956.544	5490.62
956.772	5421.62
956.999	5385.62
957.227	5413.62
957.455	5273.62
957.683	5355.62
957.91	5217.62
958.138	5244.62
958.365	5183.62
958.593	5178.62
958.82	5115.62
959.048	5177.62
959.275	5124.62
959.502	5119.62
959.73	5093.62
959.957	5118.62
960.184	5128.62
960.411	5059.62
960.638	5058.62
960.865	5042.62
961.092	5039.62
961.319	4942.62
961.546	5078.62
961.773	5056.62
962	5024.62
962.227	5094.62
962.454	5004.62
962.68	4966.62
962.907	4906.62
963.134	4886.62
963.36	4864.62
963.587	4904.62
963.813	4747.62
964.04	4776.62
964.266	4729.62
964.493	4787.62
964.719	4733.62
964.945	4713.62
965.171	4560.62
965.398	4646.62
965.624	4645.62
965.85	4569.62
966.076	4586.62
966.302	4566.62
966.528	4522.62
966.754	4513.62
966.98	4511.62
967.206	4498.62
967.431	4434.62
967.657	4502.62
967.883	4434.62
968.109	4408.62
968.334	4385.62
968.56	4381.62
968.785	4337.62
969.011	4325.62
969.236	4316.62
969.462	4301.62
969.687	4285.62
969.912	4373.62
970.138	4322.62
970.363	4227.62
970.588	4256.62
970.813	4246.62
971.038	4167.62
971.263	4178.62
971.488	4207.62
971.713	4264.62
971.938	4163.62
972.163	4045.62
972.388	4101.62
972.613	4016.62
972.838	4057.62
973.062	4028.62
973.287	4032.62
973.512	3932.62
973.736	3980.62
973.961	3902.62
974.185	3900.62
974.41	3926.62
974.634	3812.62
974.858	3832.62
975.083	3823.62
975.307	3864.62
975.531	3766.62
975.755	3705.62
975.98	3699.62
976.204	3615.62
976.428	3639.62
976.652	3658.62
976.876	3603.62
977.1	3615.62
977.324	3616.62
977.547	3634.62
977.771	3646.62
977.995	3560.62
978.219	3497.62
978.442	3625.62
978.666	3539.62
978.89	3571.62
979.113	3535.62
979.337	3505.62
979.56	3479.62
979.783	3564.62
980.007	3466.62
980.23	3461.62
980.453	3395.62
980.677	3405.62
980.9	3410.62
981.123	3332.62
981.346	3423.62
981.569	3384.62
981.792	3355.62
982.015	3325.62
982.238	3260.62
982.461	3313.62
982.684	3244.62
982.907	3225.62
983.129	3179.62
983.352	3248.62
983.575	3208.62
983.797	3193.62
984.02	3139.62
984.242	3116.62
984.465	3128.62
984.687	3131.62
984.91	3134.62
985.132	3134.62
985.354	3108.62
985.577	3063.62
985.799	3035.62
986.021	2977.62
986.243	2929.62
986.465	3021.62
986.687	3032.62
986.909	3061.62
987.131	2989.62
987.353	2917.62
987.575	2966.62
987.797	2943.62
988.019	2860.62
988.241	2920.62
988.462	2894.62
988.684	2961.62
988.906	2939.62
989.127	2974.62
989.349	2852.62
989.57	2889.62
989.792	2861.62
990.013	2867.62
990.234	2871.62
990.456	2903.62
990.677	2876.62
990.898	2836.62
991.119	2779.62
991.341	2795.62
991.562	2750.62
991.783	2763.62
992.004	2727.62
992.225	2655.62
992.446	2694.62
992.667	2614.62
992.887	2706.62
993.108	2530.62
993.329	2685.62
993.55	2622.62
993.77	2575.62
993.991	2551.62
994.212	2550.62
994.432	2551.62
994.653	2569.62
994.873	2555.62
995.093	2472.62
995.314	2444.62
995.534	2559.62
995.754	2573.62
995.975	2580.62
996.195	2465.62
996.415	2502.62
996.635	2498.62
996.855	2469.62
997.075	2439.62
997.295	2413.62
997.515	2424.62
997.735	2488.62
997.955	2414.62
998.174	2387.62
998.394	2388.62
998.614	2430.62
998.834	2362.62
999.053	2454.62
999.273	2352.62
999.492	2446.62
999.712	2360.62
999.931	2310.62
1000.151	2343.62
1000.37	2362.62
1000.589	2377.62
1000.809	2277.62
1001.028	2399.62
1001.247	2363.62
1001.466	2209.62
1001.685	2369.62
1001.904	2272.62
1002.123	2271.62
1002.342	2241.62
1002.561	2175.62
1002.78	2199.62
1002.999	2272.62
1003.218	2193.62
1003.436	2156.62
1003.655	2197.62
1003.874	2179.62
1004.092	2147.62
1004.311	2232.62
1004.53	2153.62
1004.748	2224.62
1004.966	2163.62
1005.185	2202.62
1005.403	2185.62
1005.622	2147.62
1005.84	2196.62
1006.058	2101.62
1006.276	2129.62
1006.494	2616.62
1006.712	2135.62
1006.931	2194.62
1007.149	2073.62
1007.367	2089.62
1007.584	2142.62
1007.802	2183.62
1008.02	2119.62
1008.238	2204.62
1008.456	2173.62
1008.673	2034.62
1008.891	2172.62
1009.109	2128.62
1009.326	2165.62
1009.544	2274.62
1009.761	2148.62
1009.979	2242.62
1010.196	2296.62
1010.413	2385.62
1010.631	2442.62
1010.848	2465.62
1011.065	2519.62
1011.282	2443.62
1011.5	2375.62
1011.717	2506.62
1011.934	2384.62
1012.151	2432.62
1012.368	2434.62
1012.585	2379.62
1012.801	2424.62
1013.018	2377.62
1013.235	2342.62
1013.452	2348.62
1013.669	2403.62
1013.885	2354.62
1014.102	2375.62
1014.318	2388.62
1014.535	2340.62
1014.751	2352.62
1014.968	2325.62
1015.184	2378.62
1015.401	2251.62
1015.617	2289.62
1015.833	2214.62
1016.049	2206.62
1016.266	2209.62
1016.482	2186.62
1016.698	2112.62
1016.914	2140.62
1017.13	2117.62
1017.346	2079.62
1017.562	2144.62
1017.778	2084.62
1017.993	2045.62
1018.209	2081.62
1018.425	2097.62
1018.641	2051.62
1018.856	2018.62
1019.072	2029.62
1019.288	2082.62
1019.503	2036.62
1019.719	1950.62
1019.934	1973.62
1020.149	2029.62
1020.365	1967.62
1020.58	1904.62
1020.795	1951.62
1021.011	1876.62
1021.226	1858.62
1021.441	1848.62
1021.656	1758.62
1021.871	1692.62
1022.086	1724.62
1022.301	1639.62
1022.516	1660.62
1022.731	1676.62
1022.946	1587.62
1023.16	1596.62
1023.375	1537.62
1023.59	1500.62
1023.804	1472.62
1024.019	1566.62
1024.234	1420.62
1024.448	1456.62
1024.663	1390.62
1024.877	1407.62
1025.092	1362.62
1025.306	1390.62
1025.52	1258.62
1025.734	1380.62
1025.949	1259.62
1026.163	1230.62
1026.377	1160.62
1026.591	1199.62
1026.805	1127.62
1027.019	1121.62
1027.233	1102.62
1027.447	1031.62
1027.661	1117.62
1027.875	1041.62
1028.088	1058.62
1028.302	974.62
1028.516	959.62
1028.73	940.62
1028.943	921.62
1029.157	861.62
1029.37	830.62
1029.584	0.62
1029.797	-4.38
1030.011	-1.38
1030.224	2.62
