Data from QEP037381__171__15-51-59-886.txt Node

Date: Fri Dec 16 15:51:59 EST 2022
User: dcclab
Spectrometer: QEP03738
Trigger mode: 4
Integration Time (sec): 1.000000E1
Scans to average: 1
Electric dark correction enabled: true
Nonlinearity correction enabled: false
Boxcar width: 0
XAxis mode: Wavelengths
Number of Pixels in Spectrum: 1044
>>>>>Begin Spectral Data<<<<<
784.041	8.12
784.3	2.12
784.558	0.12
784.817	-3.88
785.075	108203.12
785.334	19065.12
785.592	9029.12
785.851	6283.12
786.109	4704.12
786.368	3680.12
786.626	2952.12
786.884	2475.12
787.143	2058.12
787.401	1709.12
787.659	1538.12
787.917	1315.12
788.175	1180.12
788.433	1041.12
788.691	961.12
788.949	851.12
789.207	802.12
789.465	712.12
789.723	675.12
789.98	636.12
790.238	662.12
790.496	618.12
790.753	588.12
791.011	633.12
791.268	586.12
791.526	552.12
791.783	560.12
792.041	545.12
792.298	457.12
792.556	521.12
792.813	509.12
793.07	479.12
793.327	471.12
793.584	542.12
793.841	468.12
794.099	492.12
794.356	533.12
794.613	437.12
794.869	474.12
795.126	455.12
795.383	426.12
795.64	446.12
795.897	400.12
796.153	453.12
796.41	439.12
796.667	430.12
796.923	438.12
797.18	429.12
797.436	468.12
797.693	416.12
797.949	481.12
798.206	498.12
798.462	414.12
798.718	484.12
798.974	451.12
799.231	482.12
799.487	484.12
799.743	487.12
799.999	535.12
800.255	517.12
800.511	513.12
800.767	556.12
801.023	546.12
801.279	579.12
801.534	614.12
801.79	653.12
802.046	681.12
802.302	842.12
802.557	958.12
802.813	1202.12
803.068	1487.12
803.324	2039.12
803.579	2770.12
803.835	3830.12
804.09	5268.12
804.345	6894.12
804.601	8652.12
804.856	10426.12
805.111	12076.12
805.366	13247.12
805.621	14232.12
805.876	14761.12
806.131	15145.12
806.386	15376.12
806.641	15741.12
806.896	15914.12
807.151	16255.12
807.406	16478.12
807.661	16905.12
807.915	17174.12
808.17	17275.12
808.425	17505.12
808.679	17585.12
808.934	17825.12
809.188	17941.12
809.443	18174.12
809.697	18370.12
809.951	18381.12
810.206	18637.12
810.46	18827.12
810.714	18913.12
810.968	19087.12
811.223	19185.12
811.477	19399.12
811.731	19511.12
811.985	19592.12
812.239	19687.12
812.493	19659.12
812.747	19835.12
813	19809.12
813.254	19987.12
813.508	20108.12
813.762	20143.12
814.015	20167.12
814.269	20258.12
814.522	20459.12
814.776	20676.12
815.03	20833.12
815.283	21232.12
815.536	21561.12
815.79	21867.12
816.043	22202.12
816.296	22425.12
816.55	22669.12
816.803	22820.12
817.056	23177.12
817.309	23363.12
817.562	23546.12
817.815	23771.12
818.068	23853.12
818.321	24127.12
818.574	24430.12
818.827	24637.12
819.079	24941.12
819.332	25380.12
819.585	25575.12
819.838	25999.12
820.09	26044.12
820.343	26224.12
820.595	26269.12
820.848	26531.12
821.1	26677.12
821.353	26509.12
821.605	26588.12
821.857	26497.12
822.11	26510.12
822.362	26416.12
822.614	26210.12
822.866	26305.12
823.118	26268.12
823.37	26329.12
823.622	26535.12
823.874	26517.12
824.126	26677.12
824.378	26595.12
824.63	26782.12
824.882	26729.12
825.134	26721.12
825.385	26708.12
825.637	26632.12
825.888	26566.12
826.14	26516.12
826.392	26294.12
826.643	26163.12
826.895	26055.12
827.146	25902.12
827.397	25804.12
827.649	25956.12
827.9	25838.12
828.151	25972.12
828.402	25931.12
828.653	25929.12
828.905	26030.12
829.156	26152.12
829.407	26091.12
829.658	26034.12
829.909	26155.12
830.159	26145.12
830.41	26076.12
830.661	25788.12
830.912	25585.12
831.162	25504.12
831.413	25529.12
831.664	25545.12
831.914	25506.12
832.165	25348.12
832.415	25419.12
832.666	25395.12
832.916	25563.12
833.167	25337.12
833.417	25258.12
833.667	25156.12
833.917	25216.12
834.168	25148.12
834.418	24999.12
834.668	24927.12
834.918	24824.12
835.168	24751.12
835.418	24514.12
835.668	24523.12
835.918	24415.12
836.167	24377.12
836.417	24105.12
836.667	24192.12
836.917	24263.12
837.166	24244.12
837.416	24272.12
837.666	24153.12
837.915	24089.12
838.165	23992.12
838.414	23988.12
838.663	23994.12
838.913	24020.12
839.162	23900.12
839.411	23883.12
839.661	23693.12
839.91	23684.12
840.159	23588.12
840.408	23744.12
840.657	23630.12
840.906	23633.12
841.155	23631.12
841.404	23571.12
841.653	23548.12
841.902	23631.12
842.15	23675.12
842.399	23602.12
842.648	23709.12
842.897	23442.12
843.145	23260.12
843.394	23192.12
843.642	23014.12
843.891	23091.12
844.139	22785.12
844.388	22722.12
844.636	22626.12
844.884	22508.12
845.133	22467.12
845.381	22458.12
845.629	22410.12
845.877	22431.12
846.125	22356.12
846.373	22386.12
846.621	22249.12
846.869	22138.12
847.117	22042.12
847.365	21964.12
847.613	21955.12
847.861	21874.12
848.108	21779.12
848.356	21680.12
848.604	21720.12
848.851	21634.12
849.099	21656.12
849.346	21647.12
849.594	21787.12
849.841	21759.12
850.089	21829.12
850.336	21825.12
850.583	21737.12
850.831	21658.12
851.078	21589.12
851.325	21496.12
851.572	21639.12
851.819	21429.12
852.066	21123.12
852.313	20917.12
852.56	20646.12
852.807	20476.12
853.054	20484.12
853.301	20392.12
853.548	20418.12
853.794	20625.12
854.041	20657.12
854.288	20557.12
854.534	20849.12
854.781	20745.12
855.028	20705.12
855.274	20704.12
855.52	20588.12
855.767	20502.12
856.013	20613.12
856.26	20836.12
856.506	20175.12
856.752	20252.12
856.998	20312.12
857.244	20306.12
857.49	20458.12
857.736	20425.12
857.982	20505.12
858.228	20253.12
858.474	20100.12
858.72	20073.12
858.966	19851.12
859.212	19623.12
859.458	19419.12
859.703	19231.12
859.949	19044.12
860.195	18964.12
860.44	18914.12
860.686	18778.12
860.931	18916.12
861.177	18575.12
861.422	18518.12
861.667	18500.12
861.913	18426.12
862.158	18513.12
862.403	18498.12
862.648	18478.12
862.893	18537.12
863.138	18512.12
863.384	18426.12
863.629	18451.12
863.873	18386.12
864.118	18349.12
864.363	18235.12
864.608	18238.12
864.853	18150.12
865.098	17998.12
865.342	17840.12
865.587	17869.12
865.832	17846.12
866.076	17854.12
866.321	17653.12
866.565	17562.12
866.81	17608.12
867.054	17678.12
867.298	17575.12
867.543	17524.12
867.787	17381.12
868.031	17388.12
868.275	17331.12
868.519	17333.12
868.764	17307.12
869.008	17100.12
869.252	17253.12
869.496	17081.12
869.739	17118.12
869.983	17142.12
870.227	17039.12
870.471	16974.12
870.715	17150.12
870.958	17305.12
871.202	17241.12
871.446	17280.12
871.689	17190.12
871.933	17204.12
872.176	17198.12
872.42	17210.12
872.663	17135.12
872.906	17157.12
873.15	17109.12
873.393	16994.12
873.636	17076.12
873.879	16880.12
874.122	16735.12
874.366	16364.12
874.609	16300.12
874.852	16090.12
875.095	16031.12
875.337	15833.12
875.58	15773.12
875.823	15776.12
876.066	15727.12
876.309	15811.12
876.551	15542.12
876.794	15526.12
877.037	15461.12
877.279	15412.12
877.522	15486.12
877.764	15426.12
878.007	15364.12
878.249	15314.12
878.491	15323.12
878.734	15402.12
878.976	15214.12
879.218	15068.12
879.46	15006.12
879.702	14946.12
879.945	14767.12
880.187	14705.12
880.429	14631.12
880.671	14445.12
880.912	14369.12
881.154	14405.12
881.396	14344.12
881.638	14394.12
881.88	14346.12
882.121	14373.12
882.363	14143.12
882.605	14372.12
882.846	14288.12
883.088	14246.12
883.329	14221.12
883.571	14235.12
883.812	14438.12
884.053	14733.12
884.295	14933.12
884.536	15201.12
884.777	15084.12
885.018	14885.12
885.259	14852.12
885.5	14721.12
885.742	14958.12
885.982	14595.12
886.223	14540.12
886.464	14429.12
886.705	14201.12
886.946	14129.12
887.187	13858.12
887.428	13699.12
887.668	13507.12
887.909	13325.12
888.15	13124.12
888.39	13117.12
888.631	13014.12
888.871	12888.12
889.111	12763.12
889.352	12694.12
889.592	12520.12
889.833	12496.12
890.073	12439.12
890.313	12308.12
890.553	12173.12
890.793	12174.12
891.033	12103.12
891.273	12034.12
891.513	11926.12
891.753	11982.12
891.993	11973.12
892.233	12006.12
892.473	12022.12
892.713	12001.12
892.952	11934.12
893.192	11982.12
893.432	11882.12
893.671	11918.12
893.911	11886.12
894.15	11807.12
894.39	11733.12
894.629	11654.12
894.869	11618.12
895.108	11576.12
895.347	11466.12
895.587	11430.12
895.826	11359.12
896.065	11320.12
896.304	11420.12
896.543	11391.12
896.782	11225.12
897.021	11369.12
897.26	11232.12
897.499	11268.12
897.738	11223.12
897.977	11185.12
898.216	11073.12
898.454	10982.12
898.693	10936.12
898.932	10914.12
899.17	10846.12
899.409	10800.12
899.647	10783.12
899.886	10733.12
900.124	10747.12
900.363	10746.12
900.601	10742.12
900.839	10782.12
901.078	10862.12
901.316	10887.12
901.554	10936.12
901.792	10985.12
902.03	10942.12
902.268	10916.12
902.506	10924.12
902.744	10835.12
902.982	10784.12
903.22	10555.12
903.458	10468.12
903.695	10325.12
903.933	10205.12
904.171	9930.12
904.409	9816.12
904.646	9748.12
904.884	9518.12
905.121	9458.12
905.359	9375.12
905.596	9282.12
905.833	9176.12
906.071	9158.12
906.308	9185.12
906.545	9052.12
906.783	9058.12
907.02	9032.12
907.257	9005.12
907.494	9002.12
907.731	8964.12
907.968	8944.12
908.205	8831.12
908.442	8766.12
908.679	8745.12
908.915	8648.12
909.152	8593.12
909.389	8508.12
909.626	8421.12
909.862	8377.12
910.099	8380.12
910.335	8393.12
910.572	8274.12
910.808	8325.12
911.045	8283.12
911.281	8182.12
911.518	8201.12
911.754	8153.12
911.99	8083.12
912.226	7986.12
912.463	7899.12
912.699	7856.12
912.935	7842.12
913.171	7761.12
913.407	7692.12
913.643	7652.12
913.879	7598.12
914.114	7482.12
914.35	7424.12
914.586	7384.12
914.822	7284.12
915.057	7334.12
915.293	7170.12
915.529	7139.12
915.764	7180.12
916	7152.12
916.235	7156.12
916.471	7156.12
916.706	7019.12
916.941	7047.12
917.177	7034.12
917.412	7051.12
917.647	7051.12
917.882	6969.12
918.117	7045.12
918.352	6994.12
918.588	7019.12
918.823	6956.12
919.057	6830.12
919.292	6673.12
919.527	6741.12
919.762	6619.12
919.997	6604.12
920.232	6493.12
920.466	6511.12
920.701	6326.12
920.935	6353.12
921.17	6264.12
921.405	6255.12
921.639	6276.12
921.873	6194.12
922.108	6209.12
922.342	6242.12
922.576	6154.12
922.811	6086.12
923.045	6118.12
923.279	6122.12
923.513	5999.12
923.747	6040.12
923.981	6009.12
924.215	5955.12
924.449	5906.12
924.683	5857.12
924.917	5817.12
925.151	5804.12
925.385	5849.12
925.618	5762.12
925.852	5732.12
926.086	5742.12
926.319	5722.12
926.553	5705.12
926.786	5722.12
927.02	5675.12
927.253	5739.12
927.486	5693.12
927.72	5602.12
927.953	5663.12
928.186	5564.12
928.42	5618.12
928.653	5592.12
928.886	5515.12
929.119	5562.12
929.352	5425.12
929.585	5488.12
929.818	5380.12
930.051	5328.12
930.284	5372.12
930.516	5234.12
930.749	5204.12
930.982	5270.12
931.215	5236.12
931.447	5114.12
931.68	5217.12
931.912	5160.12
932.145	5134.12
932.377	5115.12
932.61	5239.12
932.842	5086.12
933.074	5169.12
933.307	5062.12
933.539	5143.12
933.771	5122.12
934.003	5054.12
934.236	5133.12
934.468	5130.12
934.7	5008.12
934.932	5112.12
935.164	4986.12
935.395	4995.12
935.627	4965.12
935.859	5027.12
936.091	4958.12
936.323	4960.12
936.554	4920.12
936.786	4883.12
937.017	4864.12
937.249	4849.12
937.481	4805.12
937.712	4833.12
937.943	4827.12
938.175	4811.12
938.406	4790.12
938.637	4870.12
938.869	4736.12
939.1	4789.12
939.331	4710.12
939.562	4765.12
939.793	4758.12
940.024	4778.12
940.255	4663.12
940.486	4652.12
940.717	4712.12
940.948	4638.12
941.179	4546.12
941.409	4557.12
941.64	4517.12
941.871	4581.12
942.102	4542.12
942.332	4526.12
942.563	4593.12
942.793	4557.12
943.024	4493.12
943.254	4571.12
943.484	4601.12
943.715	4563.12
943.945	4522.12
944.175	4416.12
944.405	4442.12
944.636	4424.12
944.866	4517.12
945.096	4486.12
945.326	4412.12
945.556	4405.12
945.786	4467.12
946.016	4349.12
946.245	4317.12
946.475	4269.12
946.705	4286.12
946.935	4305.12
947.164	4224.12
947.394	4187.12
947.624	4226.12
947.853	4234.12
948.083	4247.12
948.312	4126.12
948.542	4033.12
948.771	4058.12
949	4042.12
949.23	4072.12
949.459	4108.12
949.688	4120.12
949.917	4097.12
950.146	4063.12
950.375	4108.12
950.604	4012.12
950.833	4104.12
951.062	4070.12
951.291	3998.12
951.52	4012.12
951.749	4007.12
951.978	3950.12
952.206	3992.12
952.435	3952.12
952.664	3976.12
952.892	3997.12
953.121	3909.12
953.349	3922.12
953.578	3875.12
953.806	3840.12
954.035	3801.12
954.263	3872.12
954.491	3780.12
954.719	3800.12
954.948	3773.12
955.176	3724.12
955.404	3699.12
955.632	3708.12
955.86	3719.12
956.088	3661.12
956.316	3690.12
956.544	3719.12
956.772	3646.12
956.999	3598.12
957.227	3650.12
957.455	3533.12
957.683	3599.12
957.91	3485.12
958.138	3487.12
958.365	3499.12
958.593	3482.12
958.82	3440.12
959.048	3501.12
959.275	3485.12
959.502	3448.12
959.73	3417.12
959.957	3463.12
960.184	3432.12
960.411	3391.12
960.638	3446.12
960.865	3377.12
961.092	3420.12
961.319	3338.12
961.546	3371.12
961.773	3386.12
962	3363.12
962.227	3365.12
962.454	3279.12
962.68	3283.12
962.907	3332.12
963.134	3307.12
963.36	3281.12
963.587	3280.12
963.813	3179.12
964.04	3246.12
964.266	3195.12
964.493	3260.12
964.719	3174.12
964.945	3214.12
965.171	3108.12
965.398	3136.12
965.624	3138.12
965.85	3072.12
966.076	3058.12
966.302	3155.12
966.528	3077.12
966.754	3103.12
966.98	3065.12
967.206	3034.12
967.431	2976.12
967.657	3054.12
967.883	3032.12
968.109	3037.12
968.334	2982.12
968.56	2958.12
968.785	2950.12
969.011	2922.12
969.236	3036.12
969.462	2893.12
969.687	2902.12
969.912	2968.12
970.138	2945.12
970.363	2875.12
970.588	2921.12
970.813	2861.12
971.038	2840.12
971.263	2847.12
971.488	2846.12
971.713	2891.12
971.938	2874.12
972.163	2759.12
972.388	2777.12
972.613	2801.12
972.838	2768.12
973.062	2762.12
973.287	2782.12
973.512	2715.12
973.736	2709.12
973.961	2686.12
974.185	2663.12
974.41	2669.12
974.634	2613.12
974.858	2633.12
975.083	2636.12
975.307	2656.12
975.531	2554.12
975.755	2516.12
975.98	2542.12
976.204	2486.12
976.428	2464.12
976.652	2476.12
976.876	2461.12
977.1	2488.12
977.324	2456.12
977.547	2471.12
977.771	2512.12
977.995	2435.12
978.219	2417.12
978.442	2490.12
978.666	2431.12
978.89	2409.12
979.113	2404.12
979.337	2406.12
979.56	2400.12
979.783	2458.12
980.007	2313.12
980.23	2390.12
980.453	2345.12
980.677	2391.12
980.9	2360.12
981.123	2247.12
981.346	2366.12
981.569	2325.12
981.792	2330.12
982.015	2302.12
982.238	2250.12
982.461	2270.12
982.684	2245.12
982.907	2207.12
983.129	2179.12
983.352	2258.12
983.575	2210.12
983.797	2203.12
984.02	2171.12
984.242	2170.12
984.465	2152.12
984.687	2183.12
984.91	2219.12
985.132	2189.12
985.354	2215.12
985.577	2165.12
985.799	2147.12
986.021	2051.12
986.243	2076.12
986.465	2105.12
986.687	2137.12
986.909	2173.12
987.131	2097.12
987.353	2067.12
987.575	2102.12
987.797	2032.12
988.019	1997.12
988.241	2046.12
988.462	2015.12
988.684	2099.12
988.906	2077.12
989.127	2089.12
989.349	2002.12
989.57	2041.12
989.792	2063.12
990.013	2058.12
990.234	2066.12
990.456	2095.12
990.677	2048.12
990.898	1991.12
991.119	1956.12
991.341	2009.12
991.562	1946.12
991.783	1991.12
992.004	1915.12
992.225	1900.12
992.446	1954.12
992.667	1874.12
992.887	1911.12
993.108	1839.12
993.329	1986.12
993.55	1895.12
993.77	1845.12
993.991	1836.12
994.212	1893.12
994.432	1865.12
994.653	1890.12
994.873	1843.12
995.093	1752.12
995.314	1754.12
995.534	1861.12
995.754	1874.12
995.975	1872.12
996.195	1764.12
996.415	1799.12
996.635	1781.12
996.855	1809.12
997.075	1775.12
997.295	1798.12
997.515	1755.12
997.735	1845.12
997.955	1774.12
998.174	1756.12
998.394	1736.12
998.614	1803.12
998.834	1754.12
999.053	1795.12
999.273	1779.12
999.492	1833.12
999.712	1724.12
999.931	1718.12
1000.151	1775.12
1000.37	1747.12
1000.589	1778.12
1000.809	1727.12
1001.028	1824.12
1001.247	1750.12
1001.466	1672.12
1001.685	1766.12
1001.904	1709.12
1002.123	1709.12
1002.342	1702.12
1002.561	1659.12
1002.78	1697.12
1002.999	1717.12
1003.218	1652.12
1003.436	1640.12
1003.655	1701.12
1003.874	1632.12
1004.092	1628.12
1004.311	1679.12
1004.53	1648.12
1004.748	1715.12
1004.966	1648.12
1005.185	1688.12
1005.403	1677.12
1005.622	1633.12
1005.84	1737.12
1006.058	1613.12
1006.276	1645.12
1006.494	2118.12
1006.712	1639.12
1006.931	1691.12
1007.149	1614.12
1007.367	1597.12
1007.584	1662.12
1007.802	1691.12
1008.02	1631.12
1008.238	1745.12
1008.456	1747.12
1008.673	1592.12
1008.891	1724.12
1009.109	1662.12
1009.326	1738.12
1009.544	1851.12
1009.761	1731.12
1009.979	1838.12
1010.196	1895.12
1010.413	2000.12
1010.631	2041.12
1010.848	2087.12
1011.065	2096.12
1011.282	2058.12
1011.5	1994.12
1011.717	2075.12
1011.934	2031.12
1012.151	2077.12
1012.368	2018.12
1012.585	1952.12
1012.801	2039.12
1013.018	1972.12
1013.235	1966.12
1013.452	1986.12
1013.669	1999.12
1013.885	1987.12
1014.102	2010.12
1014.318	2013.12
1014.535	1964.12
1014.751	1982.12
1014.968	1994.12
1015.184	1997.12
1015.401	1940.12
1015.617	1956.12
1015.833	1871.12
1016.049	1847.12
1016.266	1854.12
1016.482	1844.12
1016.698	1777.12
1016.914	1816.12
1017.13	1772.12
1017.346	1755.12
1017.562	1830.12
1017.778	1757.12
1017.993	1707.12
1018.209	1774.12
1018.425	1749.12
1018.641	1684.12
1018.856	1655.12
1019.072	1705.12
1019.288	1753.12
1019.503	1703.12
1019.719	1625.12
1019.934	1621.12
1020.149	1682.12
1020.365	1657.12
1020.58	1594.12
1020.795	1613.12
1021.011	1555.12
1021.226	1532.12
1021.441	1550.12
1021.656	1442.12
1021.871	1389.12
1022.086	1396.12
1022.301	1347.12
1022.516	1384.12
1022.731	1397.12
1022.946	1339.12
1023.16	1273.12
1023.375	1249.12
1023.59	1238.12
1023.804	1206.12
1024.019	1302.12
1024.234	1148.12
1024.448	1195.12
1024.663	1125.12
1024.877	1108.12
1025.092	1122.12
1025.306	1103.12
1025.52	1025.12
1025.734	1118.12
1025.949	1029.12
1026.163	1017.12
1026.377	942.12
1026.591	1012.12
1026.805	904.12
1027.019	927.12
1027.233	838.12
1027.447	835.12
1027.661	930.12
1027.875	845.12
1028.088	874.12
1028.302	786.12
1028.516	782.12
1028.73	759.12
1028.943	774.12
1029.157	719.12
1029.37	669.12
1029.584	1.12
1029.797	0.12
1030.011	-4.88
1030.224	-2.88
