Data from QEP037381__213__15-58-59-892.txt Node

Date: Fri Dec 16 15:58:59 EST 2022
User: dcclab
Spectrometer: QEP03738
Trigger mode: 4
Integration Time (sec): 1.000000E1
Scans to average: 1
Electric dark correction enabled: true
Nonlinearity correction enabled: false
Boxcar width: 0
XAxis mode: Wavelengths
Number of Pixels in Spectrum: 1044
>>>>>Begin Spectral Data<<<<<
784.041	14.62
784.3	-1.38
784.558	-6.38
784.817	-3.38
785.075	109489.62
785.334	19319.62
785.592	9157.62
785.851	6386.62
786.109	4802.62
786.368	3701.62
786.626	2965.62
786.884	2470.62
787.143	2102.62
787.401	1717.62
787.659	1540.62
787.917	1312.62
788.175	1204.62
788.433	1070.62
788.691	922.62
788.949	858.62
789.207	822.62
789.465	715.62
789.723	698.62
789.98	642.62
790.238	652.62
790.496	633.62
790.753	586.62
791.011	627.62
791.268	572.62
791.526	535.62
791.783	573.62
792.041	540.62
792.298	469.62
792.556	513.62
792.813	511.62
793.07	475.62
793.327	459.62
793.584	551.62
793.841	461.62
794.099	472.62
794.356	537.62
794.613	443.62
794.869	474.62
795.126	440.62
795.383	427.62
795.64	446.62
795.897	400.62
796.153	451.62
796.41	436.62
796.667	427.62
796.923	428.62
797.18	448.62
797.436	460.62
797.693	417.62
797.949	465.62
798.206	503.62
798.462	420.62
798.718	468.62
798.974	458.62
799.231	487.62
799.487	480.62
799.743	485.62
799.999	522.62
800.255	512.62
800.511	503.62
800.767	553.62
801.023	535.62
801.279	575.62
801.534	608.62
801.79	672.62
802.046	688.62
802.302	825.62
802.557	935.62
802.813	1175.62
803.068	1438.62
803.324	1981.62
803.579	2718.62
803.835	3731.62
804.09	5129.62
804.345	6639.62
804.601	8482.62
804.856	10294.62
805.111	11864.62
805.366	13138.62
805.621	13959.62
805.876	14596.62
806.131	15093.62
806.386	15308.62
806.641	15490.62
806.896	15771.62
807.151	16074.62
807.406	16275.62
807.661	16610.62
807.915	16906.62
808.17	17130.62
808.425	17375.62
808.679	17419.62
808.934	17686.62
809.188	17694.62
809.443	17926.62
809.697	18194.62
809.951	18251.62
810.206	18307.62
810.46	18564.62
810.714	18767.62
810.968	19017.62
811.223	19049.62
811.477	19135.62
811.731	19423.62
811.985	19469.62
812.239	19496.62
812.493	19655.62
812.747	19666.62
813	19680.62
813.254	19737.62
813.508	19875.62
813.762	19877.62
814.015	19960.62
814.269	20172.62
814.522	20327.62
814.776	20504.62
815.03	20811.62
815.283	21073.62
815.536	21455.62
815.79	21739.62
816.043	21947.62
816.296	22266.62
816.55	22517.62
816.803	22735.62
817.056	23149.62
817.309	23254.62
817.562	23336.62
817.815	23666.62
818.068	23848.62
818.321	24023.62
818.574	24331.62
818.827	24560.62
819.079	24845.62
819.332	25427.62
819.585	25657.62
819.838	25924.62
820.09	26039.62
820.343	26143.62
820.595	26238.62
820.848	26491.62
821.1	26572.62
821.353	26553.62
821.605	26569.62
821.857	26488.62
822.11	26306.62
822.362	26294.62
822.614	26230.62
822.866	26242.62
823.118	26149.62
823.37	26314.62
823.622	26392.62
823.874	26465.62
824.126	26511.62
824.378	26579.62
824.63	26673.62
824.882	26695.62
825.134	26593.62
825.385	26645.62
825.637	26575.62
825.888	26456.62
826.14	26409.62
826.392	26234.62
826.643	26190.62
826.895	26114.62
827.146	25919.62
827.397	25857.62
827.649	25947.62
827.9	25795.62
828.151	25947.62
828.402	25832.62
828.653	25965.62
828.905	25972.62
829.156	26098.62
829.407	25965.62
829.658	25962.62
829.909	26154.62
830.159	26111.62
830.41	25983.62
830.661	25699.62
830.912	25528.62
831.162	25624.62
831.413	25479.62
831.664	25356.62
831.914	25386.62
832.165	25475.62
832.415	25339.62
832.666	25338.62
832.916	25384.62
833.167	25288.62
833.417	25421.62
833.667	25256.62
833.917	25145.62
834.168	25070.62
834.418	24990.62
834.668	24877.62
834.918	24694.62
835.168	24689.62
835.418	24557.62
835.668	24443.62
835.918	24507.62
836.167	24221.62
836.417	24241.62
836.667	24183.62
836.917	24193.62
837.166	24227.62
837.416	24184.62
837.666	24100.62
837.915	24102.62
838.165	24117.62
838.414	23935.62
838.663	23977.62
838.913	24008.62
839.162	23778.62
839.411	23850.62
839.661	23686.62
839.91	23617.62
840.159	23536.62
840.408	23545.62
840.657	23584.62
840.906	23611.62
841.155	23614.62
841.404	23361.62
841.653	23526.62
841.902	23529.62
842.15	23565.62
842.399	23604.62
842.648	23457.62
842.897	23404.62
843.145	23192.62
843.394	23192.62
843.642	22979.62
843.891	22908.62
844.139	22807.62
844.388	22659.62
844.636	22566.62
844.884	22546.62
845.133	22517.62
845.381	22472.62
845.629	22403.62
845.877	22404.62
846.125	22331.62
846.373	22387.62
846.621	22191.62
846.869	22082.62
847.117	22016.62
847.365	21849.62
847.613	21836.62
847.861	21682.62
848.108	21753.62
848.356	21622.62
848.604	21551.62
848.851	21560.62
849.099	21612.62
849.346	21594.62
849.594	21730.62
849.841	21653.62
850.089	21714.62
850.336	21715.62
850.583	21807.62
850.831	21568.62
851.078	21503.62
851.325	21466.62
851.572	21627.62
851.819	21369.62
852.066	21036.62
852.313	20813.62
852.56	20607.62
852.807	20496.62
853.054	20255.62
853.301	20232.62
853.548	20348.62
853.794	20478.62
854.041	20495.62
854.288	20508.62
854.534	20784.62
854.781	20725.62
855.028	20628.62
855.274	20676.62
855.52	20463.62
855.767	20321.62
856.013	20419.62
856.26	20680.62
856.506	20211.62
856.752	20200.62
856.998	20107.62
857.244	20205.62
857.49	20207.62
857.736	20305.62
857.982	20263.62
858.228	20187.62
858.474	19972.62
858.72	19908.62
858.966	19769.62
859.212	19504.62
859.458	19340.62
859.703	19148.62
859.949	18963.62
860.195	18873.62
860.44	18855.62
860.686	18634.62
860.931	18673.62
861.177	18576.62
861.422	18504.62
861.667	18395.62
861.913	18348.62
862.158	18351.62
862.403	18445.62
862.648	18435.62
862.893	18414.62
863.138	18353.62
863.384	18408.62
863.629	18408.62
863.873	18398.62
864.118	18235.62
864.363	18035.62
864.608	18106.62
864.853	18126.62
865.098	17881.62
865.342	17881.62
865.587	17760.62
865.832	17738.62
866.076	17662.62
866.321	17640.62
866.565	17550.62
866.81	17426.62
867.054	17467.62
867.298	17335.62
867.543	17235.62
867.787	17349.62
868.031	17226.62
868.275	17195.62
868.519	17139.62
868.764	17235.62
869.008	17088.62
869.252	17007.62
869.496	17014.62
869.739	17019.62
869.983	16995.62
870.227	16909.62
870.471	16919.62
870.715	17131.62
870.958	17128.62
871.202	17049.62
871.446	17091.62
871.689	17082.62
871.933	17025.62
872.176	17102.62
872.42	17011.62
872.663	16979.62
872.906	16903.62
873.15	16823.62
873.393	16812.62
873.636	16778.62
873.879	16608.62
874.122	16408.62
874.366	16191.62
874.609	16086.62
874.852	15985.62
875.095	15934.62
875.337	15789.62
875.58	15707.62
875.823	15763.62
876.066	15622.62
876.309	15560.62
876.551	15390.62
876.794	15441.62
877.037	15327.62
877.279	15302.62
877.522	15269.62
877.764	15346.62
878.007	15229.62
878.249	15231.62
878.491	15212.62
878.734	15132.62
878.976	15070.62
879.218	14984.62
879.46	14939.62
879.702	14894.62
879.945	14709.62
880.187	14536.62
880.429	14499.62
880.671	14375.62
880.912	14472.62
881.154	14302.62
881.396	14176.62
881.638	14240.62
881.88	14321.62
882.121	14249.62
882.363	14157.62
882.605	14258.62
882.846	14134.62
883.088	14153.62
883.329	14186.62
883.571	14072.62
883.812	14228.62
884.053	14493.62
884.295	14743.62
884.536	14953.62
884.777	14782.62
885.018	14738.62
885.259	14528.62
885.5	14434.62
885.742	14652.62
885.982	14404.62
886.223	14288.62
886.464	14114.62
886.705	13958.62
886.946	13898.62
887.187	13669.62
887.428	13552.62
887.668	13348.62
887.909	13121.62
888.15	13068.62
888.39	12937.62
888.631	12904.62
888.871	12779.62
889.111	12644.62
889.352	12577.62
889.592	12420.62
889.833	12313.62
890.073	12258.62
890.313	12350.62
890.553	12152.62
890.793	12094.62
891.033	11989.62
891.273	11962.62
891.513	11902.62
891.753	11935.62
891.993	11780.62
892.233	11896.62
892.473	11935.62
892.713	11822.62
892.952	11853.62
893.192	11904.62
893.432	11825.62
893.671	11888.62
893.911	11841.62
894.15	11756.62
894.39	11597.62
894.629	11585.62
894.869	11529.62
895.108	11486.62
895.347	11366.62
895.587	11299.62
895.826	11310.62
896.065	11175.62
896.304	11277.62
896.543	11274.62
896.782	11140.62
897.021	11201.62
897.26	11148.62
897.499	11153.62
897.738	11151.62
897.977	11000.62
898.216	10913.62
898.454	10807.62
898.693	10784.62
898.932	10772.62
899.17	10679.62
899.409	10715.62
899.647	10668.62
899.886	10588.62
900.124	10665.62
900.363	10585.62
900.601	10602.62
900.839	10649.62
901.078	10693.62
901.316	10754.62
901.554	10689.62
901.792	10762.62
902.03	10754.62
902.268	10750.62
902.506	10773.62
902.744	10647.62
902.982	10671.62
903.22	10458.62
903.458	10338.62
903.695	10186.62
903.933	10064.62
904.171	9895.62
904.409	9711.62
904.646	9609.62
904.884	9518.62
905.121	9362.62
905.359	9307.62
905.596	9189.62
905.833	9115.62
906.071	9029.62
906.308	9054.62
906.545	9036.62
906.783	8902.62
907.02	8927.62
907.257	8854.62
907.494	8858.62
907.731	8817.62
907.968	8855.62
908.205	8727.62
908.442	8673.62
908.679	8632.62
908.915	8605.62
909.152	8534.62
909.389	8440.62
909.626	8399.62
909.862	8337.62
910.099	8258.62
910.335	8379.62
910.572	8199.62
910.808	8205.62
911.045	8165.62
911.281	8112.62
911.518	8165.62
911.754	8037.62
911.99	8058.62
912.226	7910.62
912.463	7869.62
912.699	7792.62
912.935	7727.62
913.171	7754.62
913.407	7585.62
913.643	7595.62
913.879	7493.62
914.114	7464.62
914.35	7329.62
914.586	7355.62
914.822	7189.62
915.057	7301.62
915.293	7064.62
915.529	7079.62
915.764	7124.62
916	7112.62
916.235	7092.62
916.471	7061.62
916.706	7022.62
916.941	6961.62
917.177	6997.62
917.412	6971.62
917.647	6957.62
917.882	6897.62
918.117	6973.62
918.352	6956.62
918.588	6946.62
918.823	6811.62
919.057	6748.62
919.292	6609.62
919.527	6675.62
919.762	6475.62
919.997	6573.62
920.232	6402.62
920.466	6415.62
920.701	6249.62
920.935	6316.62
921.17	6200.62
921.405	6179.62
921.639	6193.62
921.873	6184.62
922.108	6198.62
922.342	6166.62
922.576	6106.62
922.811	6016.62
923.045	6062.62
923.279	6041.62
923.513	5957.62
923.747	6020.62
923.981	5967.62
924.215	5849.62
924.449	5854.62
924.683	5720.62
924.917	5729.62
925.151	5798.62
925.385	5810.62
925.618	5732.62
925.852	5724.62
926.086	5623.62
926.319	5719.62
926.553	5684.62
926.786	5619.62
927.02	5667.62
927.253	5689.62
927.486	5670.62
927.72	5548.62
927.953	5651.62
928.186	5519.62
928.42	5554.62
928.653	5562.62
928.886	5440.62
929.119	5493.62
929.352	5475.62
929.585	5455.62
929.818	5359.62
930.051	5345.62
930.284	5362.62
930.516	5212.62
930.749	5150.62
930.982	5236.62
931.215	5180.62
931.447	5075.62
931.68	5107.62
931.912	5081.62
932.145	5053.62
932.377	5143.62
932.61	5213.62
932.842	4983.62
933.074	5092.62
933.307	5023.62
933.539	5087.62
933.771	5058.62
934.003	5017.62
934.236	5075.62
934.468	5101.62
934.7	4972.62
934.932	5033.62
935.164	4939.62
935.395	4915.62
935.627	4953.62
935.859	4965.62
936.091	4902.62
936.323	4925.62
936.554	4886.62
936.786	4873.62
937.017	4773.62
937.249	4821.62
937.481	4770.62
937.712	4813.62
937.943	4735.62
938.175	4779.62
938.406	4736.62
938.637	4739.62
938.869	4681.62
939.1	4731.62
939.331	4633.62
939.562	4695.62
939.793	4714.62
940.024	4675.62
940.255	4661.62
940.486	4613.62
940.717	4603.62
940.948	4566.62
941.179	4469.62
941.409	4570.62
941.64	4526.62
941.871	4574.62
942.102	4448.62
942.332	4498.62
942.563	4539.62
942.793	4508.62
943.024	4454.62
943.254	4474.62
943.484	4535.62
943.715	4510.62
943.945	4458.62
944.175	4429.62
944.405	4395.62
944.636	4401.62
944.866	4442.62
945.096	4445.62
945.326	4334.62
945.556	4435.62
945.786	4432.62
946.016	4329.62
946.245	4268.62
946.475	4266.62
946.705	4276.62
946.935	4243.62
947.164	4199.62
947.394	4125.62
947.624	4156.62
947.853	4195.62
948.083	4134.62
948.312	4090.62
948.542	4057.62
948.771	4029.62
949	4045.62
949.23	4037.62
949.459	4027.62
949.688	4098.62
949.917	4028.62
950.146	4038.62
950.375	4049.62
950.604	4000.62
950.833	4069.62
951.062	4059.62
951.291	4001.62
951.52	3950.62
951.749	3961.62
951.978	3942.62
952.206	3906.62
952.435	3885.62
952.664	3937.62
952.892	3926.62
953.121	3899.62
953.349	3875.62
953.578	3888.62
953.806	3812.62
954.035	3763.62
954.263	3779.62
954.491	3742.62
954.719	3803.62
954.948	3713.62
955.176	3706.62
955.404	3619.62
955.632	3670.62
955.86	3670.62
956.088	3679.62
956.316	3654.62
956.544	3677.62
956.772	3589.62
956.999	3595.62
957.227	3640.62
957.455	3519.62
957.683	3546.62
957.91	3491.62
958.138	3457.62
958.365	3436.62
958.593	3405.62
958.82	3377.62
959.048	3463.62
959.275	3433.62
959.502	3403.62
959.73	3410.62
959.957	3361.62
960.184	3403.62
960.411	3347.62
960.638	3449.62
960.865	3392.62
961.092	3402.62
961.319	3304.62
961.546	3391.62
961.773	3363.62
962	3321.62
962.227	3404.62
962.454	3309.62
962.68	3289.62
962.907	3300.62
963.134	3231.62
963.36	3269.62
963.587	3318.62
963.813	3182.62
964.04	3241.62
964.266	3143.62
964.493	3214.62
964.719	3160.62
964.945	3163.62
965.171	3085.62
965.398	3102.62
965.624	3135.62
965.85	3061.62
966.076	3030.62
966.302	3087.62
966.528	3072.62
966.754	3043.62
966.98	3085.62
967.206	3014.62
967.431	2937.62
967.657	3052.62
967.883	2998.62
968.109	2965.62
968.334	2918.62
968.56	2892.62
968.785	2963.62
969.011	2898.62
969.236	2967.62
969.462	2855.62
969.687	2901.62
969.912	2942.62
970.138	2933.62
970.363	2836.62
970.588	2863.62
970.813	2834.62
971.038	2792.62
971.263	2843.62
971.488	2858.62
971.713	2844.62
971.938	2827.62
972.163	2753.62
972.388	2775.62
972.613	2741.62
972.838	2749.62
973.062	2762.62
973.287	2716.62
973.512	2649.62
973.736	2688.62
973.961	2691.62
974.185	2669.62
974.41	2669.62
974.634	2544.62
974.858	2601.62
975.083	2582.62
975.307	2643.62
975.531	2530.62
975.755	2513.62
975.98	2488.62
976.204	2462.62
976.428	2465.62
976.652	2465.62
976.876	2468.62
977.1	2443.62
977.324	2443.62
977.547	2481.62
977.771	2418.62
977.995	2421.62
978.219	2355.62
978.442	2473.62
978.666	2431.62
978.89	2430.62
979.113	2404.62
979.337	2385.62
979.56	2367.62
979.783	2462.62
980.007	2342.62
980.23	2342.62
980.453	2294.62
980.677	2337.62
980.9	2307.62
981.123	2232.62
981.346	2377.62
981.569	2312.62
981.792	2340.62
982.015	2289.62
982.238	2248.62
982.461	2250.62
982.684	2200.62
982.907	2196.62
983.129	2196.62
983.352	2237.62
983.575	2174.62
983.797	2216.62
984.02	2160.62
984.242	2195.62
984.465	2171.62
984.687	2156.62
984.91	2168.62
985.132	2166.62
985.354	2193.62
985.577	2147.62
985.799	2137.62
986.021	2075.62
986.243	2084.62
986.465	2105.62
986.687	2124.62
986.909	2149.62
987.131	2086.62
987.353	2040.62
987.575	2083.62
987.797	2044.62
988.019	1990.62
988.241	2040.62
988.462	2003.62
988.684	2062.62
988.906	2053.62
989.127	2092.62
989.349	1984.62
989.57	1995.62
989.792	2051.62
990.013	2037.62
990.234	2043.62
990.456	2024.62
990.677	2016.62
990.898	1950.62
991.119	1982.62
991.341	2011.62
991.562	1950.62
991.783	1994.62
992.004	1895.62
992.225	1871.62
992.446	1921.62
992.667	1828.62
992.887	1934.62
993.108	1802.62
993.329	1918.62
993.55	1891.62
993.77	1833.62
993.991	1825.62
994.212	1858.62
994.432	1827.62
994.653	1827.62
994.873	1834.62
995.093	1734.62
995.314	1806.62
995.534	1816.62
995.754	1863.62
995.975	1862.62
996.195	1737.62
996.415	1813.62
996.635	1792.62
996.855	1794.62
997.075	1785.62
997.295	1771.62
997.515	1764.62
997.735	1794.62
997.955	1765.62
998.174	1749.62
998.394	1714.62
998.614	1759.62
998.834	1732.62
999.053	1779.62
999.273	1758.62
999.492	1818.62
999.712	1727.62
999.931	1697.62
1000.151	1742.62
1000.37	1699.62
1000.589	1749.62
1000.809	1704.62
1001.028	1786.62
1001.247	1713.62
1001.466	1614.62
1001.685	1765.62
1001.904	1672.62
1002.123	1692.62
1002.342	1698.62
1002.561	1632.62
1002.78	1662.62
1002.999	1723.62
1003.218	1673.62
1003.436	1625.62
1003.655	1672.62
1003.874	1606.62
1004.092	1620.62
1004.311	1700.62
1004.53	1610.62
1004.748	1691.62
1004.966	1615.62
1005.185	1679.62
1005.403	1653.62
1005.622	1658.62
1005.84	1707.62
1006.058	1609.62
1006.276	1638.62
1006.494	2115.62
1006.712	1658.62
1006.931	1668.62
1007.149	1601.62
1007.367	1598.62
1007.584	1643.62
1007.802	1672.62
1008.02	1601.62
1008.238	1706.62
1008.456	1705.62
1008.673	1607.62
1008.891	1693.62
1009.109	1665.62
1009.326	1740.62
1009.544	1805.62
1009.761	1697.62
1009.979	1785.62
1010.196	1833.62
1010.413	1921.62
1010.631	2014.62
1010.848	2060.62
1011.065	2075.62
1011.282	1987.62
1011.5	1937.62
1011.717	2023.62
1011.934	1969.62
1012.151	2010.62
1012.368	1972.62
1012.585	1932.62
1012.801	1975.62
1013.018	1940.62
1013.235	1889.62
1013.452	1929.62
1013.669	1932.62
1013.885	1915.62
1014.102	1941.62
1014.318	1942.62
1014.535	1901.62
1014.751	1913.62
1014.968	1930.62
1015.184	1940.62
1015.401	1852.62
1015.617	1869.62
1015.833	1798.62
1016.049	1807.62
1016.266	1801.62
1016.482	1788.62
1016.698	1699.62
1016.914	1751.62
1017.13	1698.62
1017.346	1715.62
1017.562	1763.62
1017.778	1675.62
1017.993	1656.62
1018.209	1691.62
1018.425	1700.62
1018.641	1658.62
1018.856	1630.62
1019.072	1671.62
1019.288	1677.62
1019.503	1648.62
1019.719	1550.62
1019.934	1588.62
1020.149	1658.62
1020.365	1543.62
1020.58	1551.62
1020.795	1561.62
1021.011	1502.62
1021.226	1478.62
1021.441	1495.62
1021.656	1396.62
1021.871	1342.62
1022.086	1335.62
1022.301	1319.62
1022.516	1319.62
1022.731	1357.62
1022.946	1283.62
1023.16	1260.62
1023.375	1229.62
1023.59	1217.62
1023.804	1150.62
1024.019	1263.62
1024.234	1139.62
1024.448	1155.62
1024.663	1081.62
1024.877	1091.62
1025.092	1113.62
1025.306	1111.62
1025.52	1030.62
1025.734	1123.62
1025.949	1016.62
1026.163	984.62
1026.377	913.62
1026.591	989.62
1026.805	896.62
1027.019	882.62
1027.233	869.62
1027.447	827.62
1027.661	894.62
1027.875	841.62
1028.088	849.62
1028.302	764.62
1028.516	751.62
1028.73	755.62
1028.943	728.62
1029.157	709.62
1029.37	634.62
1029.584	-4.38
1029.797	3.62
1030.011	-2.38
1030.224	-0.38
