Data from QEP037381__222__16-00-29-894.txt Node

Date: Fri Dec 16 16:00:29 EST 2022
User: dcclab
Spectrometer: QEP03738
Trigger mode: 4
Integration Time (sec): 1.000000E1
Scans to average: 1
Electric dark correction enabled: true
Nonlinearity correction enabled: false
Boxcar width: 0
XAxis mode: Wavelengths
Number of Pixels in Spectrum: 1044
>>>>>Begin Spectral Data<<<<<
784.041	13.12
784.3	-1.88
784.558	-0.88
784.817	-3.88
785.075	110744.12
785.334	19133.12
785.592	9051.12
785.851	6234.12
786.109	4704.12
786.368	3657.12
786.626	2935.12
786.884	2436.12
787.143	2015.12
787.401	1669.12
787.659	1547.12
787.917	1282.12
788.175	1202.12
788.433	1042.12
788.691	937.12
788.949	857.12
789.207	821.12
789.465	700.12
789.723	671.12
789.98	639.12
790.238	658.12
790.496	616.12
790.753	590.12
791.011	645.12
791.268	568.12
791.526	538.12
791.783	570.12
792.041	539.12
792.298	476.12
792.556	531.12
792.813	512.12
793.07	475.12
793.327	475.12
793.584	553.12
793.841	475.12
794.099	499.12
794.356	565.12
794.613	440.12
794.869	493.12
795.126	442.12
795.383	425.12
795.64	452.12
795.897	410.12
796.153	457.12
796.41	460.12
796.667	432.12
796.923	455.12
797.18	434.12
797.436	465.12
797.693	433.12
797.949	467.12
798.206	519.12
798.462	422.12
798.718	501.12
798.974	469.12
799.231	495.12
799.487	498.12
799.743	508.12
799.999	537.12
800.255	545.12
800.511	504.12
800.767	577.12
801.023	543.12
801.279	595.12
801.534	615.12
801.79	689.12
802.046	739.12
802.302	850.12
802.557	978.12
802.813	1229.12
803.068	1550.12
803.324	2151.12
803.579	2897.12
803.835	4049.12
804.09	5618.12
804.345	7308.12
804.601	9268.12
804.856	11246.12
805.111	12997.12
805.366	14382.12
805.621	15263.12
805.876	16085.12
806.131	16556.12
806.386	16790.12
806.641	17136.12
806.896	17325.12
807.151	17673.12
807.406	18011.12
807.661	18252.12
807.915	18677.12
808.17	18866.12
808.425	19099.12
808.679	19195.12
808.934	19454.12
809.188	19508.12
809.443	19745.12
809.697	19947.12
809.951	20120.12
810.206	20223.12
810.46	20484.12
810.714	20598.12
810.968	20886.12
811.223	20934.12
811.477	21118.12
811.731	21281.12
811.985	21403.12
812.239	21528.12
812.493	21527.12
812.747	21710.12
813	21721.12
813.254	21936.12
813.508	21940.12
813.762	21969.12
814.015	22080.12
814.269	22351.12
814.522	22430.12
814.776	22733.12
815.03	22909.12
815.283	23347.12
815.536	23562.12
815.79	23997.12
816.043	24325.12
816.296	24691.12
816.55	24868.12
816.803	25018.12
817.056	25484.12
817.309	25639.12
817.562	25907.12
817.815	26059.12
818.068	26231.12
818.321	26585.12
818.574	26909.12
818.827	27088.12
819.079	27462.12
819.332	27954.12
819.585	28268.12
819.838	28646.12
820.09	28736.12
820.343	28934.12
820.595	29108.12
820.848	29306.12
821.1	29404.12
821.353	29336.12
821.605	29304.12
821.857	29312.12
822.11	29264.12
822.362	29170.12
822.614	29071.12
822.866	29127.12
823.118	29097.12
823.37	29147.12
823.622	29238.12
823.874	29276.12
824.126	29394.12
824.378	29414.12
824.63	29500.12
824.882	29649.12
825.134	29531.12
825.385	29442.12
825.637	29375.12
825.888	29317.12
826.14	29235.12
826.392	29123.12
826.643	29030.12
826.895	28790.12
827.146	28788.12
827.397	28723.12
827.649	28771.12
827.9	28575.12
828.151	28750.12
828.402	28776.12
828.653	28839.12
828.905	28890.12
829.156	28952.12
829.407	28773.12
829.658	28895.12
829.909	28906.12
830.159	28879.12
830.41	28782.12
830.661	28604.12
830.912	28280.12
831.162	28282.12
831.413	28144.12
831.664	28200.12
831.914	28117.12
832.165	28104.12
832.415	28157.12
832.666	28071.12
832.916	28090.12
833.167	27997.12
833.417	28028.12
833.667	27861.12
833.917	27823.12
834.168	27746.12
834.418	27825.12
834.668	27649.12
834.918	27245.12
835.168	27354.12
835.418	27132.12
835.668	27133.12
835.918	26981.12
836.167	27048.12
836.417	26919.12
836.667	26808.12
836.917	26974.12
837.166	26792.12
837.416	26787.12
837.666	26768.12
837.915	26714.12
838.165	26685.12
838.414	26479.12
838.663	26469.12
838.913	26441.12
839.162	26414.12
839.411	26415.12
839.661	26086.12
839.91	26179.12
840.159	26162.12
840.408	26034.12
840.657	26195.12
840.906	26206.12
841.155	26129.12
841.404	26057.12
841.653	26071.12
841.902	26038.12
842.15	26119.12
842.399	26221.12
842.648	26033.12
842.897	25893.12
843.145	25788.12
843.394	25632.12
843.642	25525.12
843.891	25315.12
844.139	25233.12
844.388	25097.12
844.636	24919.12
844.884	25058.12
845.133	24893.12
845.381	24920.12
845.629	24867.12
845.877	24874.12
846.125	24802.12
846.373	24685.12
846.621	24646.12
846.869	24559.12
847.117	24339.12
847.365	24219.12
847.613	24140.12
847.861	24013.12
848.108	23943.12
848.356	24009.12
848.604	23848.12
848.851	23924.12
849.099	23963.12
849.346	23933.12
849.594	24129.12
849.841	24161.12
850.089	24083.12
850.336	24141.12
850.583	24168.12
850.831	24048.12
851.078	23690.12
851.325	23818.12
851.572	23840.12
851.819	23644.12
852.066	23203.12
852.313	22992.12
852.56	22716.12
852.807	22582.12
853.054	22612.12
853.301	22559.12
853.548	22514.12
853.794	22750.12
854.041	22749.12
854.288	22712.12
854.534	22995.12
854.781	22871.12
855.028	22751.12
855.274	22813.12
855.52	22605.12
855.767	22521.12
856.013	22563.12
856.26	22844.12
856.506	22343.12
856.752	22367.12
856.998	22307.12
857.244	22397.12
857.49	22270.12
857.736	22412.12
857.982	22437.12
858.228	22331.12
858.474	22118.12
858.72	22067.12
858.966	21848.12
859.212	21702.12
859.458	21269.12
859.703	21327.12
859.949	20969.12
860.195	20905.12
860.44	20756.12
860.686	20657.12
860.931	20721.12
861.177	20465.12
861.422	20400.12
861.667	20399.12
861.913	20429.12
862.158	20394.12
862.403	20384.12
862.648	20437.12
862.893	20439.12
863.138	20447.12
863.384	20380.12
863.629	20387.12
863.873	20303.12
864.118	20321.12
864.363	20064.12
864.608	20120.12
864.853	19968.12
865.098	19970.12
865.342	19800.12
865.587	19691.12
865.832	19700.12
866.076	19587.12
866.321	19529.12
866.565	19511.12
866.81	19490.12
867.054	19297.12
867.298	19245.12
867.543	19145.12
867.787	19176.12
868.031	19199.12
868.275	19034.12
868.519	19020.12
868.764	18985.12
869.008	18947.12
869.252	18958.12
869.496	18807.12
869.739	18767.12
869.983	18900.12
870.227	18829.12
870.471	18691.12
870.715	18831.12
870.958	18913.12
871.202	18828.12
871.446	18890.12
871.689	18881.12
871.933	18957.12
872.176	18877.12
872.42	18814.12
872.663	18732.12
872.906	18797.12
873.15	18616.12
873.393	18579.12
873.636	18588.12
873.879	18374.12
874.122	18207.12
874.366	17954.12
874.609	17867.12
874.852	17666.12
875.095	17520.12
875.337	17448.12
875.58	17427.12
875.823	17330.12
876.066	17358.12
876.309	17232.12
876.551	17048.12
876.794	16975.12
877.037	17034.12
877.279	16931.12
877.522	16886.12
877.764	16970.12
878.007	16950.12
878.249	16949.12
878.491	16832.12
878.734	16933.12
878.976	16751.12
879.218	16583.12
879.46	16590.12
879.702	16429.12
879.945	16275.12
880.187	16145.12
880.429	16082.12
880.671	15993.12
880.912	15971.12
881.154	15772.12
881.396	15736.12
881.638	15881.12
881.88	15835.12
882.121	15671.12
882.363	15723.12
882.605	15822.12
882.846	15628.12
883.088	15646.12
883.329	15542.12
883.571	15591.12
883.812	15724.12
884.053	15925.12
884.295	16185.12
884.536	16276.12
884.777	16172.12
885.018	16064.12
885.259	15997.12
885.5	15956.12
885.742	16064.12
885.982	15798.12
886.223	15734.12
886.464	15597.12
886.705	15492.12
886.946	15363.12
887.187	15069.12
887.428	14999.12
887.668	14772.12
887.909	14572.12
888.15	14461.12
888.39	14375.12
888.631	14296.12
888.871	14132.12
889.111	14054.12
889.352	14016.12
889.592	13757.12
889.833	13780.12
890.073	13683.12
890.313	13624.12
890.553	13403.12
890.793	13495.12
891.033	13400.12
891.273	13275.12
891.513	13314.12
891.753	13265.12
891.993	13183.12
892.233	13197.12
892.473	13334.12
892.713	13211.12
892.952	13126.12
893.192	13293.12
893.432	13179.12
893.671	13231.12
893.911	13054.12
894.15	13064.12
894.39	12858.12
894.629	12804.12
894.869	12832.12
895.108	12679.12
895.347	12556.12
895.587	12617.12
895.826	12593.12
896.065	12559.12
896.304	12515.12
896.543	12504.12
896.782	12380.12
897.021	12450.12
897.26	12415.12
897.499	12400.12
897.738	12336.12
897.977	12202.12
898.216	12107.12
898.454	12065.12
898.693	11934.12
898.932	11976.12
899.17	11861.12
899.409	11793.12
899.647	11774.12
899.886	11801.12
900.124	11794.12
900.363	11753.12
900.601	11751.12
900.839	11736.12
901.078	11778.12
901.316	11786.12
901.554	11795.12
901.792	11887.12
902.03	11901.12
902.268	11854.12
902.506	11832.12
902.744	11731.12
902.982	11713.12
903.22	11468.12
903.458	11386.12
903.695	11271.12
903.933	11158.12
904.171	10936.12
904.409	10761.12
904.646	10612.12
904.884	10417.12
905.121	10438.12
905.359	10319.12
905.596	10271.12
905.833	10097.12
906.071	10034.12
906.308	10089.12
906.545	10042.12
906.783	9928.12
907.02	9907.12
907.257	9833.12
907.494	9877.12
907.731	9863.12
907.968	9777.12
908.205	9670.12
908.442	9691.12
908.679	9596.12
908.915	9511.12
909.152	9431.12
909.389	9399.12
909.626	9341.12
909.862	9267.12
910.099	9146.12
910.335	9203.12
910.572	9068.12
910.808	9074.12
911.045	9101.12
911.281	9024.12
911.518	8977.12
911.754	8882.12
911.99	8873.12
912.226	8791.12
912.463	8706.12
912.699	8670.12
912.935	8632.12
913.171	8604.12
913.407	8421.12
913.643	8462.12
913.879	8325.12
914.114	8257.12
914.35	8241.12
914.586	8139.12
914.822	8060.12
915.057	8037.12
915.293	7856.12
915.529	7888.12
915.764	7877.12
916	7891.12
916.235	7879.12
916.471	7850.12
916.706	7715.12
916.941	7718.12
917.177	7751.12
917.412	7780.12
917.647	7748.12
917.882	7684.12
918.117	7718.12
918.352	7676.12
918.588	7635.12
918.823	7553.12
919.057	7462.12
919.292	7285.12
919.527	7321.12
919.762	7229.12
919.997	7251.12
920.232	7088.12
920.466	7200.12
920.701	6982.12
920.935	6990.12
921.17	6933.12
921.405	6883.12
921.639	6960.12
921.873	6813.12
922.108	6832.12
922.342	6832.12
922.576	6752.12
922.811	6722.12
923.045	6714.12
923.279	6707.12
923.513	6566.12
923.747	6651.12
923.981	6550.12
924.215	6515.12
924.449	6489.12
924.683	6391.12
924.917	6384.12
925.151	6336.12
925.385	6428.12
925.618	6337.12
925.852	6387.12
926.086	6252.12
926.319	6311.12
926.553	6263.12
926.786	6259.12
927.02	6196.12
927.253	6248.12
927.486	6225.12
927.72	6187.12
927.953	6197.12
928.186	6142.12
928.42	6210.12
928.653	6068.12
928.886	6025.12
929.119	6121.12
929.352	6006.12
929.585	6004.12
929.818	5900.12
930.051	5878.12
930.284	5871.12
930.516	5699.12
930.749	5709.12
930.982	5737.12
931.215	5704.12
931.447	5689.12
931.68	5617.12
931.912	5623.12
932.145	5633.12
932.377	5635.12
932.61	5737.12
932.842	5536.12
933.074	5588.12
933.307	5514.12
933.539	5657.12
933.771	5619.12
934.003	5617.12
934.236	5598.12
934.468	5616.12
934.7	5500.12
934.932	5530.12
935.164	5516.12
935.395	5450.12
935.627	5438.12
935.859	5468.12
936.091	5440.12
936.323	5407.12
936.554	5420.12
936.786	5354.12
937.017	5313.12
937.249	5354.12
937.481	5228.12
937.712	5319.12
937.943	5244.12
938.175	5238.12
938.406	5258.12
938.637	5372.12
938.869	5202.12
939.1	5276.12
939.331	5171.12
939.562	5211.12
939.793	5187.12
940.024	5185.12
940.255	5153.12
940.486	5111.12
940.717	5102.12
940.948	5065.12
941.179	4952.12
941.409	5023.12
941.64	4995.12
941.871	5012.12
942.102	4973.12
942.332	4933.12
942.563	4985.12
942.793	4952.12
943.024	4955.12
943.254	4963.12
943.484	4966.12
943.715	4967.12
943.945	4960.12
944.175	4895.12
944.405	4839.12
944.636	4825.12
944.866	4905.12
945.096	4912.12
945.326	4844.12
945.556	4906.12
945.786	4844.12
946.016	4826.12
946.245	4720.12
946.475	4703.12
946.705	4676.12
946.935	4721.12
947.164	4728.12
947.394	4596.12
947.624	4591.12
947.853	4606.12
948.083	4550.12
948.312	4534.12
948.542	4540.12
948.771	4492.12
949	4498.12
949.23	4486.12
949.459	4480.12
949.688	4528.12
949.917	4442.12
950.146	4447.12
950.375	4501.12
950.604	4380.12
950.833	4485.12
951.062	4476.12
951.291	4375.12
951.52	4340.12
951.749	4404.12
951.978	4312.12
952.206	4293.12
952.435	4293.12
952.664	4333.12
952.892	4349.12
953.121	4258.12
953.349	4326.12
953.578	4301.12
953.806	4201.12
954.035	4180.12
954.263	4157.12
954.491	4133.12
954.719	4181.12
954.948	4086.12
955.176	4126.12
955.404	3993.12
955.632	4079.12
955.86	4055.12
956.088	4036.12
956.316	4054.12
956.544	4034.12
956.772	3969.12
956.999	3910.12
957.227	3965.12
957.455	3897.12
957.683	3941.12
957.91	3826.12
958.138	3806.12
958.365	3775.12
958.593	3806.12
958.82	3725.12
959.048	3823.12
959.275	3774.12
959.502	3771.12
959.73	3733.12
959.957	3760.12
960.184	3735.12
960.411	3691.12
960.638	3800.12
960.865	3694.12
961.092	3696.12
961.319	3650.12
961.546	3713.12
961.773	3710.12
962	3673.12
962.227	3746.12
962.454	3667.12
962.68	3589.12
962.907	3651.12
963.134	3576.12
963.36	3598.12
963.587	3575.12
963.813	3523.12
964.04	3534.12
964.266	3429.12
964.493	3539.12
964.719	3467.12
964.945	3482.12
965.171	3348.12
965.398	3408.12
965.624	3449.12
965.85	3391.12
966.076	3346.12
966.302	3403.12
966.528	3359.12
966.754	3364.12
966.98	3334.12
967.206	3353.12
967.431	3225.12
967.657	3327.12
967.883	3276.12
968.109	3287.12
968.334	3216.12
968.56	3190.12
968.785	3206.12
969.011	3185.12
969.236	3201.12
969.462	3176.12
969.687	3190.12
969.912	3209.12
970.138	3180.12
970.363	3142.12
970.588	3155.12
970.813	3088.12
971.038	3102.12
971.263	3122.12
971.488	3127.12
971.713	3125.12
971.938	3097.12
972.163	2988.12
972.388	3026.12
972.613	3000.12
972.838	2977.12
973.062	2981.12
973.287	2957.12
973.512	2918.12
973.736	2927.12
973.961	2925.12
974.185	2905.12
974.41	2960.12
974.634	2828.12
974.858	2824.12
975.083	2885.12
975.307	2854.12
975.531	2807.12
975.755	2757.12
975.98	2774.12
976.204	2679.12
976.428	2699.12
976.652	2730.12
976.876	2706.12
977.1	2675.12
977.324	2671.12
977.547	2716.12
977.771	2677.12
977.995	2650.12
978.219	2565.12
978.442	2700.12
978.666	2664.12
978.89	2634.12
979.113	2627.12
979.337	2636.12
979.56	2568.12
979.783	2702.12
980.007	2564.12
980.23	2566.12
980.453	2522.12
980.677	2580.12
980.9	2563.12
981.123	2427.12
981.346	2536.12
981.569	2519.12
981.792	2539.12
982.015	2476.12
982.238	2439.12
982.461	2494.12
982.684	2440.12
982.907	2405.12
983.129	2379.12
983.352	2406.12
983.575	2385.12
983.797	2406.12
984.02	2355.12
984.242	2333.12
984.465	2344.12
984.687	2352.12
984.91	2386.12
985.132	2333.12
985.354	2380.12
985.577	2343.12
985.799	2328.12
986.021	2226.12
986.243	2258.12
986.465	2285.12
986.687	2301.12
986.909	2337.12
987.131	2269.12
987.353	2192.12
987.575	2253.12
987.797	2221.12
988.019	2197.12
988.241	2232.12
988.462	2171.12
988.684	2220.12
988.906	2259.12
989.127	2290.12
989.349	2160.12
989.57	2177.12
989.792	2196.12
990.013	2198.12
990.234	2231.12
990.456	2239.12
990.677	2203.12
990.898	2142.12
991.119	2131.12
991.341	2166.12
991.562	2112.12
991.783	2109.12
992.004	2070.12
992.225	2045.12
992.446	2104.12
992.667	2019.12
992.887	2097.12
993.108	1950.12
993.329	2100.12
993.55	2037.12
993.77	1960.12
993.991	1982.12
994.212	2006.12
994.432	1998.12
994.653	1958.12
994.873	1996.12
995.093	1859.12
995.314	1908.12
995.534	1985.12
995.754	1998.12
995.975	2008.12
996.195	1892.12
996.415	1903.12
996.635	1906.12
996.855	1916.12
997.075	1902.12
997.295	1917.12
997.515	1843.12
997.735	1921.12
997.955	1889.12
998.174	1860.12
998.394	1854.12
998.614	1885.12
998.834	1836.12
999.053	1882.12
999.273	1892.12
999.492	1939.12
999.712	1840.12
999.931	1819.12
1000.151	1840.12
1000.37	1853.12
1000.589	1900.12
1000.809	1798.12
1001.028	1912.12
1001.247	1860.12
1001.466	1726.12
1001.685	1877.12
1001.904	1808.12
1002.123	1799.12
1002.342	1767.12
1002.561	1760.12
1002.78	1778.12
1002.999	1827.12
1003.218	1762.12
1003.436	1721.12
1003.655	1790.12
1003.874	1714.12
1004.092	1722.12
1004.311	1766.12
1004.53	1762.12
1004.748	1814.12
1004.966	1718.12
1005.185	1761.12
1005.403	1742.12
1005.622	1729.12
1005.84	1795.12
1006.058	1713.12
1006.276	1741.12
1006.494	2207.12
1006.712	1705.12
1006.931	1775.12
1007.149	1685.12
1007.367	1704.12
1007.584	1735.12
1007.802	1773.12
1008.02	1732.12
1008.238	1816.12
1008.456	1799.12
1008.673	1660.12
1008.891	1749.12
1009.109	1763.12
1009.326	1799.12
1009.544	1889.12
1009.761	1775.12
1009.979	1888.12
1010.196	1887.12
1010.413	1991.12
1010.631	2062.12
1010.848	2074.12
1011.065	2086.12
1011.282	2011.12
1011.5	1982.12
1011.717	2077.12
1011.934	2046.12
1012.151	2029.12
1012.368	2014.12
1012.585	1958.12
1012.801	2026.12
1013.018	2006.12
1013.235	1956.12
1013.452	1988.12
1013.669	1975.12
1013.885	1974.12
1014.102	2010.12
1014.318	1968.12
1014.535	1953.12
1014.751	1972.12
1014.968	1933.12
1015.184	1970.12
1015.401	1897.12
1015.617	1947.12
1015.833	1876.12
1016.049	1840.12
1016.266	1837.12
1016.482	1847.12
1016.698	1774.12
1016.914	1811.12
1017.13	1763.12
1017.346	1707.12
1017.562	1793.12
1017.778	1716.12
1017.993	1724.12
1018.209	1724.12
1018.425	1733.12
1018.641	1704.12
1018.856	1667.12
1019.072	1704.12
1019.288	1724.12
1019.503	1694.12
1019.719	1611.12
1019.934	1619.12
1020.149	1696.12
1020.365	1647.12
1020.58	1565.12
1020.795	1605.12
1021.011	1549.12
1021.226	1517.12
1021.441	1537.12
1021.656	1441.12
1021.871	1378.12
1022.086	1391.12
1022.301	1387.12
1022.516	1364.12
1022.731	1389.12
1022.946	1314.12
1023.16	1298.12
1023.375	1268.12
1023.59	1244.12
1023.804	1189.12
1024.019	1307.12
1024.234	1158.12
1024.448	1216.12
1024.663	1111.12
1024.877	1138.12
1025.092	1152.12
1025.306	1154.12
1025.52	1042.12
1025.734	1132.12
1025.949	1040.12
1026.163	1000.12
1026.377	961.12
1026.591	1001.12
1026.805	932.12
1027.019	924.12
1027.233	887.12
1027.447	836.12
1027.661	954.12
1027.875	881.12
1028.088	886.12
1028.302	794.12
1028.516	790.12
1028.73	776.12
1028.943	776.12
1029.157	722.12
1029.37	673.12
1029.584	-2.88
1029.797	-2.88
1030.011	0.12
1030.224	-0.88
