Data from QEP037381__151__15-48-39-884.txt Node

Date: Fri Dec 16 15:48:39 EST 2022
User: dcclab
Spectrometer: QEP03738
Trigger mode: 4
Integration Time (sec): 1.000000E1
Scans to average: 1
Electric dark correction enabled: true
Nonlinearity correction enabled: false
Boxcar width: 0
XAxis mode: Wavelengths
Number of Pixels in Spectrum: 1044
>>>>>Begin Spectral Data<<<<<
784.041	12.88
784.3	2.88
784.558	-2.12
784.817	-2.12
785.075	110778.88
785.334	19334.88
785.592	9090.88
785.851	6263.88
786.109	4676.88
786.368	3684.88
786.626	2936.88
786.884	2428.88
787.143	2009.88
787.401	1699.88
787.659	1518.88
787.917	1287.88
788.175	1190.88
788.433	1028.88
788.691	914.88
788.949	858.88
789.207	827.88
789.465	726.88
789.723	688.88
789.98	630.88
790.238	663.88
790.496	627.88
790.753	610.88
791.011	649.88
791.268	574.88
791.526	573.88
791.783	591.88
792.041	555.88
792.298	475.88
792.556	556.88
792.813	521.88
793.07	499.88
793.327	481.88
793.584	564.88
793.841	491.88
794.099	511.88
794.356	551.88
794.613	481.88
794.869	504.88
795.126	460.88
795.383	441.88
795.64	471.88
795.897	424.88
796.153	485.88
796.41	474.88
796.667	467.88
796.923	470.88
797.18	479.88
797.436	496.88
797.693	457.88
797.949	520.88
798.206	550.88
798.462	450.88
798.718	516.88
798.974	494.88
799.231	539.88
799.487	543.88
799.743	534.88
799.999	583.88
800.255	574.88
800.511	564.88
800.767	610.88
801.023	624.88
801.279	655.88
801.534	710.88
801.79	788.88
802.046	854.88
802.302	1018.88
802.557	1201.88
802.813	1529.88
803.068	1933.88
803.324	2707.88
803.579	3764.88
803.835	5311.88
804.09	7307.88
804.345	9703.88
804.601	12269.88
804.856	14915.88
805.111	17275.88
805.366	19025.88
805.621	20462.88
805.876	21438.88
806.131	21934.88
806.386	22400.88
806.641	22772.88
806.896	23140.88
807.151	23665.88
807.406	23990.88
807.661	24398.88
807.915	24903.88
808.17	25133.88
808.425	25365.88
808.679	25638.88
808.934	25998.88
809.188	26165.88
809.443	26432.88
809.697	26724.88
809.951	26825.88
810.206	27168.88
810.46	27423.88
810.714	27690.88
810.968	27999.88
811.223	28072.88
811.477	28339.88
811.731	28594.88
811.985	28758.88
812.239	28798.88
812.493	28996.88
812.747	29063.88
813	29144.88
813.254	29355.88
813.508	29424.88
813.762	29597.88
814.015	29640.88
814.269	29875.88
814.522	30230.88
814.776	30599.88
815.03	30974.88
815.283	31398.88
815.536	31955.88
815.79	32233.88
816.043	32666.88
816.296	33150.88
816.55	33506.88
816.803	33988.88
817.056	34360.88
817.309	34608.88
817.562	35019.88
817.815	35419.88
818.068	35452.88
818.321	35936.88
818.574	36293.88
818.827	36706.88
819.079	37272.88
819.332	37879.88
819.585	38280.88
819.838	38820.88
820.09	38942.88
820.343	39211.88
820.595	39431.88
820.848	39631.88
821.1	39861.88
821.353	39868.88
821.605	39800.88
821.857	39718.88
822.11	39562.88
822.362	39630.88
822.614	39377.88
822.866	39420.88
823.118	39499.88
823.37	39561.88
823.622	39628.88
823.874	39813.88
824.126	39945.88
824.378	40059.88
824.63	40157.88
824.882	40136.88
825.134	40153.88
825.385	40288.88
825.637	40045.88
825.888	39929.88
826.14	39877.88
826.392	39655.88
826.643	39298.88
826.895	39437.88
827.146	39246.88
827.397	39108.88
827.649	39115.88
827.9	38979.88
828.151	39077.88
828.402	39138.88
828.653	39240.88
828.905	39541.88
829.156	39385.88
829.407	39557.88
829.658	39374.88
829.909	39427.88
830.159	39386.88
830.41	39162.88
830.661	38827.88
830.912	38628.88
831.162	38522.88
831.413	38535.88
831.664	38486.88
831.914	38446.88
832.165	38514.88
832.415	38438.88
832.666	38463.88
832.916	38345.88
833.167	38451.88
833.417	38261.88
833.667	38230.88
833.917	38035.88
834.168	37837.88
834.418	37861.88
834.668	37815.88
834.918	37692.88
835.168	37461.88
835.418	37196.88
835.668	37170.88
835.918	36999.88
836.167	37035.88
836.417	36732.88
836.667	36852.88
836.917	36781.88
837.166	36838.88
837.416	36739.88
837.666	36698.88
837.915	36565.88
838.165	36601.88
838.414	36371.88
838.663	36288.88
838.913	36330.88
839.162	36210.88
839.411	36230.88
839.661	35832.88
839.91	35718.88
840.159	35787.88
840.408	35779.88
840.657	35805.88
840.906	35877.88
841.155	35698.88
841.404	35703.88
841.653	35758.88
841.902	35599.88
842.15	35706.88
842.399	35818.88
842.648	35786.88
842.897	35508.88
843.145	35380.88
843.394	35087.88
843.642	34912.88
843.891	34768.88
844.139	34673.88
844.388	34428.88
844.636	34216.88
844.884	34197.88
845.133	34189.88
845.381	34109.88
845.629	34057.88
845.877	33970.88
846.125	33997.88
846.373	33921.88
846.621	33714.88
846.869	33717.88
847.117	33502.88
847.365	33148.88
847.613	33118.88
847.861	32984.88
848.108	33034.88
848.356	32856.88
848.604	32813.88
848.851	32882.88
849.099	32837.88
849.346	33002.88
849.594	33094.88
849.841	33223.88
850.089	33068.88
850.336	33180.88
850.583	33112.88
850.831	32914.88
851.078	32664.88
851.325	32601.88
851.572	32690.88
851.819	32419.88
852.066	31871.88
852.313	31470.88
852.56	31264.88
852.807	31204.88
853.054	30933.88
853.301	31041.88
853.548	31007.88
853.794	31235.88
854.041	31156.88
854.288	31260.88
854.534	31488.88
854.781	31579.88
855.028	31229.88
855.274	31275.88
855.52	31026.88
855.767	30919.88
856.013	31072.88
856.26	31194.88
856.506	30582.88
856.752	30670.88
856.998	30599.88
857.244	30555.88
857.49	30901.88
857.736	30846.88
857.982	30789.88
858.228	30637.88
858.474	30466.88
858.72	30128.88
858.966	30006.88
859.212	29754.88
859.458	29428.88
859.703	29137.88
859.949	28889.88
860.195	28764.88
860.44	28560.88
860.686	28424.88
860.931	28344.88
861.177	28229.88
861.422	28145.88
861.667	28040.88
861.913	28110.88
862.158	28129.88
862.403	28117.88
862.648	28226.88
862.893	28173.88
863.138	28175.88
863.384	28143.88
863.629	28120.88
863.873	28047.88
864.118	27920.88
864.363	27623.88
864.608	27638.88
864.853	27527.88
865.098	27397.88
865.342	27239.88
865.587	27211.88
865.832	27173.88
866.076	27076.88
866.321	26921.88
866.565	26859.88
866.81	26717.88
867.054	26557.88
867.298	26581.88
867.543	26470.88
867.787	26400.88
868.031	26396.88
868.275	26268.88
868.519	26182.88
868.764	26360.88
869.008	26074.88
869.252	25931.88
869.496	25900.88
869.739	25885.88
869.983	25842.88
870.227	25786.88
870.471	25836.88
870.715	25728.88
870.958	25876.88
871.202	25873.88
871.446	25873.88
871.689	25888.88
871.933	25935.88
872.176	25757.88
872.42	25851.88
872.663	25794.88
872.906	25610.88
873.15	25596.88
873.393	25460.88
873.636	25466.88
873.879	25152.88
874.122	24941.88
874.366	24597.88
874.609	24445.88
874.852	24260.88
875.095	24112.88
875.337	24082.88
875.58	23848.88
875.823	23874.88
876.066	23661.88
876.309	23824.88
876.551	23564.88
876.794	23375.88
877.037	23439.88
877.279	23165.88
877.522	23306.88
877.764	23214.88
878.007	23141.88
878.249	23281.88
878.491	23125.88
878.734	23085.88
878.976	23074.88
879.218	22890.88
879.46	22820.88
879.702	22706.88
879.945	22536.88
880.187	22325.88
880.429	22144.88
880.671	22037.88
880.912	22024.88
881.154	21920.88
881.396	21739.88
881.638	21777.88
881.88	21844.88
882.121	21744.88
882.363	21596.88
882.605	21668.88
882.846	21582.88
883.088	21550.88
883.329	21513.88
883.571	21423.88
883.812	21725.88
884.053	21762.88
884.295	22071.88
884.536	22263.88
884.777	22023.88
885.018	21847.88
885.259	21899.88
885.5	21750.88
885.742	21907.88
885.982	21548.88
886.223	21448.88
886.464	21397.88
886.705	21317.88
886.946	21113.88
887.187	20775.88
887.428	20625.88
887.668	20420.88
887.909	20132.88
888.15	19884.88
888.39	19831.88
888.631	19735.88
888.871	19502.88
889.111	19369.88
889.352	19195.88
889.592	19139.88
889.833	18951.88
890.073	18863.88
890.313	18811.88
890.553	18632.88
890.793	18531.88
891.033	18386.88
891.273	18354.88
891.513	18271.88
891.753	18229.88
891.993	18234.88
892.233	18135.88
892.473	18250.88
892.713	18219.88
892.952	18228.88
893.192	18223.88
893.432	18139.88
893.671	18097.88
893.911	18083.88
894.15	17918.88
894.39	17817.88
894.629	17698.88
894.869	17613.88
895.108	17536.88
895.347	17396.88
895.587	17320.88
895.826	17278.88
896.065	17239.88
896.304	17274.88
896.543	17199.88
896.782	17125.88
897.021	17161.88
897.26	17096.88
897.499	17056.88
897.738	16949.88
897.977	16767.88
898.216	16598.88
898.454	16490.88
898.693	16362.88
898.932	16417.88
899.17	16287.88
899.409	16228.88
899.647	16128.88
899.886	16078.88
900.124	16183.88
900.363	16096.88
900.601	16096.88
900.839	16126.88
901.078	16138.88
901.316	16200.88
901.554	16284.88
901.792	16167.88
902.03	16176.88
902.268	16166.88
902.506	16260.88
902.744	16044.88
902.982	16034.88
903.22	15832.88
903.458	15630.88
903.695	15392.88
903.933	15216.88
904.171	14876.88
904.409	14796.88
904.646	14620.88
904.884	14423.88
905.121	14329.88
905.359	14131.88
905.596	13967.88
905.833	13919.88
906.071	13770.88
906.308	13837.88
906.545	13706.88
906.783	13663.88
907.02	13695.88
907.257	13607.88
907.494	13567.88
907.731	13521.88
907.968	13414.88
908.205	13397.88
908.442	13206.88
908.679	13158.88
908.915	13137.88
909.152	13056.88
909.389	12862.88
909.626	12760.88
909.862	12719.88
910.099	12729.88
910.335	12670.88
910.572	12437.88
910.808	12563.88
911.045	12507.88
911.281	12427.88
911.518	12445.88
911.754	12322.88
911.99	12350.88
912.226	12080.88
912.463	12090.88
912.699	11977.88
912.935	11853.88
913.171	11763.88
913.407	11672.88
913.643	11580.88
913.879	11509.88
914.114	11321.88
914.35	11321.88
914.586	11197.88
914.822	11096.88
915.057	11007.88
915.293	10874.88
915.529	10844.88
915.764	10821.88
916	10793.88
916.235	10754.88
916.471	10788.88
916.706	10638.88
916.941	10647.88
917.177	10749.88
917.412	10729.88
917.647	10677.88
917.882	10585.88
918.117	10611.88
918.352	10613.88
918.588	10600.88
918.823	10369.88
919.057	10344.88
919.292	10176.88
919.527	10110.88
919.762	9976.88
919.997	9980.88
920.232	9840.88
920.466	9805.88
920.701	9535.88
920.935	9561.88
921.17	9558.88
921.405	9391.88
921.639	9500.88
921.873	9419.88
922.108	9399.88
922.342	9354.88
922.576	9331.88
922.811	9311.88
923.045	9234.88
923.279	9229.88
923.513	9007.88
923.747	9091.88
923.981	9050.88
924.215	8920.88
924.449	8852.88
924.683	8853.88
924.917	8734.88
925.151	8725.88
925.385	8800.88
925.618	8660.88
925.852	8727.88
926.086	8501.88
926.319	8621.88
926.553	8593.88
926.786	8591.88
927.02	8587.88
927.253	8567.88
927.486	8534.88
927.72	8444.88
927.953	8519.88
928.186	8478.88
928.42	8534.88
928.653	8361.88
928.886	8340.88
929.119	8267.88
929.352	8275.88
929.585	8255.88
929.818	8125.88
930.051	8119.88
930.284	8024.88
930.516	8001.88
930.749	7913.88
930.982	7902.88
931.215	7831.88
931.447	7653.88
931.68	7745.88
931.912	7713.88
932.145	7696.88
932.377	7666.88
932.61	7781.88
932.842	7613.88
933.074	7703.88
933.307	7636.88
933.539	7724.88
933.771	7700.88
934.003	7645.88
934.236	7676.88
934.468	7612.88
934.7	7569.88
934.932	7601.88
935.164	7524.88
935.395	7510.88
935.627	7455.88
935.859	7504.88
936.091	7413.88
936.323	7421.88
936.554	7367.88
936.786	7365.88
937.017	7286.88
937.249	7279.88
937.481	7174.88
937.712	7322.88
937.943	7261.88
938.175	7253.88
938.406	7157.88
938.637	7220.88
938.869	7101.88
939.1	7145.88
939.331	7094.88
939.562	7072.88
939.793	7076.88
940.024	7038.88
940.255	7035.88
940.486	6906.88
940.717	6938.88
940.948	6897.88
941.179	6797.88
941.409	6849.88
941.64	6810.88
941.871	6794.88
942.102	6793.88
942.332	6794.88
942.563	6835.88
942.793	6832.88
943.024	6750.88
943.254	6717.88
943.484	6792.88
943.715	6849.88
943.945	6792.88
944.175	6676.88
944.405	6651.88
944.636	6645.88
944.866	6665.88
945.096	6693.88
945.326	6576.88
945.556	6625.88
945.786	6629.88
946.016	6597.88
946.245	6496.88
946.475	6435.88
946.705	6360.88
946.935	6330.88
947.164	6335.88
947.394	6289.88
947.624	6243.88
947.853	6257.88
948.083	6232.88
948.312	6174.88
948.542	6112.88
948.771	6130.88
949	6093.88
949.23	6095.88
949.459	6079.88
949.688	6100.88
949.917	6086.88
950.146	6085.88
950.375	6088.88
950.604	5995.88
950.833	6122.88
951.062	6043.88
951.291	5956.88
951.52	5926.88
951.749	5962.88
951.978	5905.88
952.206	5889.88
952.435	5886.88
952.664	5908.88
952.892	5845.88
953.121	5773.88
953.349	5780.88
953.578	5762.88
953.806	5729.88
954.035	5708.88
954.263	5693.88
954.491	5622.88
954.719	5683.88
954.948	5543.88
955.176	5580.88
955.404	5480.88
955.632	5509.88
955.86	5499.88
956.088	5433.88
956.316	5485.88
956.544	5454.88
956.772	5359.88
956.999	5322.88
957.227	5433.88
957.455	5317.88
957.683	5271.88
957.91	5198.88
958.138	5183.88
958.365	5183.88
958.593	5188.88
958.82	5094.88
959.048	5188.88
959.275	5084.88
959.502	5098.88
959.73	5002.88
959.957	5100.88
960.184	5065.88
960.411	5065.88
960.638	5096.88
960.865	5004.88
961.092	5042.88
961.319	4929.88
961.546	5014.88
961.773	5008.88
962	5006.88
962.227	4995.88
962.454	4984.88
962.68	4922.88
962.907	4918.88
963.134	4870.88
963.36	4852.88
963.587	4855.88
963.813	4782.88
964.04	4776.88
964.266	4649.88
964.493	4744.88
964.719	4685.88
964.945	4694.88
965.171	4495.88
965.398	4605.88
965.624	4581.88
965.85	4505.88
966.076	4499.88
966.302	4529.88
966.528	4486.88
966.754	4501.88
966.98	4512.88
967.206	4413.88
967.431	4367.88
967.657	4501.88
967.883	4399.88
968.109	4408.88
968.334	4347.88
968.56	4346.88
968.785	4325.88
969.011	4228.88
969.236	4328.88
969.462	4262.88
969.687	4268.88
969.912	4305.88
970.138	4326.88
970.363	4173.88
970.588	4221.88
970.813	4179.88
971.038	4167.88
971.263	4164.88
971.488	4159.88
971.713	4173.88
971.938	4109.88
972.163	4022.88
972.388	4019.88
972.613	4021.88
972.838	4036.88
973.062	4003.88
973.287	4007.88
973.512	3952.88
973.736	3943.88
973.961	3884.88
974.185	3881.88
974.41	3925.88
974.634	3795.88
974.858	3804.88
975.083	3823.88
975.307	3820.88
975.531	3746.88
975.755	3677.88
975.98	3698.88
976.204	3613.88
976.428	3664.88
976.652	3577.88
976.876	3609.88
977.1	3596.88
977.324	3586.88
977.547	3587.88
977.771	3584.88
977.995	3607.88
978.219	3514.88
978.442	3553.88
978.666	3498.88
978.89	3467.88
979.113	3501.88
979.337	3476.88
979.56	3436.88
979.783	3517.88
980.007	3448.88
980.23	3408.88
980.453	3338.88
980.677	3411.88
980.9	3382.88
981.123	3290.88
981.346	3388.88
981.569	3355.88
981.792	3331.88
982.015	3293.88
982.238	3236.88
982.461	3277.88
982.684	3204.88
982.907	3195.88
983.129	3156.88
983.352	3253.88
983.575	3172.88
983.797	3133.88
984.02	3138.88
984.242	3102.88
984.465	3105.88
984.687	3149.88
984.91	3151.88
985.132	3072.88
985.354	3107.88
985.577	3065.88
985.799	3031.88
986.021	2912.88
986.243	2991.88
986.465	2953.88
986.687	2991.88
986.909	3022.88
987.131	2917.88
987.353	2909.88
987.575	2962.88
987.797	2926.88
988.019	2852.88
988.241	2910.88
988.462	2820.88
988.684	2926.88
988.906	2928.88
989.127	2899.88
989.349	2783.88
989.57	2843.88
989.792	2871.88
990.013	2832.88
990.234	2885.88
990.456	2861.88
990.677	2827.88
990.898	2835.88
991.119	2755.88
991.341	2766.88
991.562	2666.88
991.783	2739.88
992.004	2679.88
992.225	2648.88
992.446	2689.88
992.667	2553.88
992.887	2667.88
993.108	2572.88
993.329	2697.88
993.55	2627.88
993.77	2552.88
993.991	2540.88
994.212	2587.88
994.432	2548.88
994.653	2555.88
994.873	2543.88
995.093	2412.88
995.314	2472.88
995.534	2508.88
995.754	2509.88
995.975	2546.88
996.195	2410.88
996.415	2480.88
996.635	2468.88
996.855	2454.88
997.075	2425.88
997.295	2414.88
997.515	2408.88
997.735	2420.88
997.955	2444.88
998.174	2405.88
998.394	2378.88
998.614	2418.88
998.834	2365.88
999.053	2438.88
999.273	2420.88
999.492	2413.88
999.712	2343.88
999.931	2332.88
1000.151	2371.88
1000.37	2322.88
1000.589	2381.88
1000.809	2275.88
1001.028	2368.88
1001.247	2318.88
1001.466	2182.88
1001.685	2337.88
1001.904	2247.88
1002.123	2262.88
1002.342	2257.88
1002.561	2230.88
1002.78	2205.88
1002.999	2286.88
1003.218	2220.88
1003.436	2157.88
1003.655	2219.88
1003.874	2118.88
1004.092	2150.88
1004.311	2207.88
1004.53	2144.88
1004.748	2211.88
1004.966	2147.88
1005.185	2190.88
1005.403	2166.88
1005.622	2155.88
1005.84	2194.88
1006.058	2130.88
1006.276	2130.88
1006.494	2619.88
1006.712	2102.88
1006.931	2161.88
1007.149	2095.88
1007.367	2107.88
1007.584	2112.88
1007.802	2140.88
1008.02	2081.88
1008.238	2176.88
1008.456	2157.88
1008.673	2060.88
1008.891	2162.88
1009.109	2110.88
1009.326	2133.88
1009.544	2259.88
1009.761	2158.88
1009.979	2250.88
1010.196	2273.88
1010.413	2400.88
1010.631	2432.88
1010.848	2467.88
1011.065	2472.88
1011.282	2419.88
1011.5	2376.88
1011.717	2478.88
1011.934	2372.88
1012.151	2439.88
1012.368	2403.88
1012.585	2358.88
1012.801	2411.88
1013.018	2386.88
1013.235	2342.88
1013.452	2346.88
1013.669	2331.88
1013.885	2341.88
1014.102	2348.88
1014.318	2322.88
1014.535	2285.88
1014.751	2330.88
1014.968	2315.88
1015.184	2330.88
1015.401	2242.88
1015.617	2244.88
1015.833	2164.88
1016.049	2190.88
1016.266	2152.88
1016.482	2157.88
1016.698	2088.88
1016.914	2112.88
1017.13	2047.88
1017.346	2040.88
1017.562	2093.88
1017.778	2052.88
1017.993	1995.88
1018.209	2079.88
1018.425	2034.88
1018.641	2026.88
1018.856	1988.88
1019.072	2022.88
1019.288	2029.88
1019.503	2019.88
1019.719	1906.88
1019.934	1920.88
1020.149	2004.88
1020.365	1947.88
1020.58	1873.88
1020.795	1891.88
1021.011	1798.88
1021.226	1816.88
1021.441	1817.88
1021.656	1692.88
1021.871	1631.88
1022.086	1643.88
1022.301	1646.88
1022.516	1615.88
1022.731	1633.88
1022.946	1566.88
1023.16	1545.88
1023.375	1506.88
1023.59	1490.88
1023.804	1426.88
1024.019	1543.88
1024.234	1400.88
1024.448	1442.88
1024.663	1339.88
1024.877	1338.88
1025.092	1354.88
1025.306	1377.88
1025.52	1259.88
1025.734	1318.88
1025.949	1238.88
1026.163	1178.88
1026.377	1137.88
1026.591	1166.88
1026.805	1119.88
1027.019	1104.88
1027.233	1048.88
1027.447	1002.88
1027.661	1100.88
1027.875	1045.88
1028.088	1026.88
1028.302	978.88
1028.516	956.88
1028.73	931.88
1028.943	910.88
1029.157	848.88
1029.37	798.88
1029.584	-4.12
1029.797	-3.12
1030.011	-3.12
1030.224	-1.12
