Data from QEP037381__211__15-58-39-892.txt Node

Date: Fri Dec 16 15:58:39 EST 2022
User: dcclab
Spectrometer: QEP03738
Trigger mode: 4
Integration Time (sec): 1.000000E1
Scans to average: 1
Electric dark correction enabled: true
Nonlinearity correction enabled: false
Boxcar width: 0
XAxis mode: Wavelengths
Number of Pixels in Spectrum: 1044
>>>>>Begin Spectral Data<<<<<
784.041	14.5
784.3	-2.5
784.558	-4.5
784.817	-1.5
785.075	109232.5
785.334	19168.5
785.592	9143.5
785.851	6302.5
786.109	4787.5
786.368	3729.5
786.626	2940.5
786.884	2437.5
787.143	2051.5
787.401	1676.5
787.659	1534.5
787.917	1342.5
788.175	1195.5
788.433	1031.5
788.691	928.5
788.949	856.5
789.207	812.5
789.465	730.5
789.723	694.5
789.98	645.5
790.238	674.5
790.496	615.5
790.753	608.5
791.011	637.5
791.268	570.5
791.526	556.5
791.783	549.5
792.041	553.5
792.298	474.5
792.556	512.5
792.813	510.5
793.07	477.5
793.327	465.5
793.584	559.5
793.841	470.5
794.099	487.5
794.356	548.5
794.613	444.5
794.869	468.5
795.126	452.5
795.383	429.5
795.64	450.5
795.897	391.5
796.153	455.5
796.41	441.5
796.667	439.5
796.923	436.5
797.18	438.5
797.436	471.5
797.693	432.5
797.949	489.5
798.206	501.5
798.462	423.5
798.718	494.5
798.974	462.5
799.231	514.5
799.487	512.5
799.743	496.5
799.999	524.5
800.255	534.5
800.511	521.5
800.767	564.5
801.023	557.5
801.279	578.5
801.534	619.5
801.79	687.5
802.046	728.5
802.302	859.5
802.557	968.5
802.813	1254.5
803.068	1525.5
803.324	2106.5
803.579	2882.5
803.835	4010.5
804.09	5512.5
804.345	7227.5
804.601	9114.5
804.856	11063.5
805.111	12786.5
805.366	14140.5
805.621	15191.5
805.876	15833.5
806.131	16231.5
806.386	16551.5
806.641	16879.5
806.896	17195.5
807.151	17485.5
807.406	17781.5
807.661	18089.5
807.915	18265.5
808.17	18566.5
808.425	18822.5
808.679	18925.5
808.934	19203.5
809.188	19294.5
809.443	19489.5
809.697	19773.5
809.951	19867.5
810.206	20113.5
810.46	20201.5
810.714	20314.5
810.968	20627.5
811.223	20687.5
811.477	20938.5
811.731	21106.5
811.985	21196.5
812.239	21192.5
812.493	21373.5
812.747	21435.5
813	21406.5
813.254	21576.5
813.508	21614.5
813.762	21783.5
814.015	21936.5
814.269	22027.5
814.522	22175.5
814.776	22413.5
815.03	22696.5
815.283	22966.5
815.536	23356.5
815.79	23666.5
816.043	24056.5
816.296	24416.5
816.55	24610.5
816.803	24958.5
817.056	25143.5
817.309	25385.5
817.562	25705.5
817.815	26003.5
818.068	26072.5
818.321	26330.5
818.574	26566.5
818.827	26933.5
819.079	27270.5
819.332	27711.5
819.585	28065.5
819.838	28489.5
820.09	28504.5
820.343	28691.5
820.595	28783.5
820.848	28975.5
821.1	29160.5
821.353	29122.5
821.605	29102.5
821.857	29169.5
822.11	28932.5
822.362	28855.5
822.614	28748.5
822.866	28886.5
823.118	28811.5
823.37	28925.5
823.622	28962.5
823.874	29041.5
824.126	29221.5
824.378	29123.5
824.63	29248.5
824.882	29435.5
825.134	29300.5
825.385	29263.5
825.637	29187.5
825.888	29054.5
826.14	29035.5
826.392	28927.5
826.643	28729.5
826.895	28700.5
827.146	28506.5
827.397	28305.5
827.649	28405.5
827.9	28495.5
828.151	28440.5
828.402	28483.5
828.653	28719.5
828.905	28711.5
829.156	28800.5
829.407	28622.5
829.658	28695.5
829.909	28750.5
830.159	28634.5
830.41	28695.5
830.661	28377.5
830.912	28060.5
831.162	28160.5
831.413	27952.5
831.664	28027.5
831.914	28001.5
832.165	27984.5
832.415	27906.5
832.666	27854.5
832.916	27902.5
833.167	27826.5
833.417	27777.5
833.667	27778.5
833.917	27615.5
834.168	27693.5
834.418	27508.5
834.668	27472.5
834.918	27313.5
835.168	27260.5
835.418	27097.5
835.668	26976.5
835.918	26947.5
836.167	26925.5
836.417	26729.5
836.667	26670.5
836.917	26734.5
837.166	26759.5
837.416	26750.5
837.666	26595.5
837.915	26561.5
838.165	26612.5
838.414	26393.5
838.663	26442.5
838.913	26393.5
839.162	26346.5
839.411	26387.5
839.661	26141.5
839.91	26124.5
840.159	26106.5
840.408	26024.5
840.657	26042.5
840.906	25933.5
841.155	26044.5
841.404	25973.5
841.653	25988.5
841.902	26027.5
842.15	26033.5
842.399	26067.5
842.648	26014.5
842.897	25957.5
843.145	25711.5
843.394	25493.5
843.642	25452.5
843.891	25294.5
844.139	25224.5
844.388	25028.5
844.636	24869.5
844.884	24916.5
845.133	24827.5
845.381	24807.5
845.629	24913.5
845.877	24676.5
846.125	24697.5
846.373	24758.5
846.621	24600.5
846.869	24477.5
847.117	24275.5
847.365	24248.5
847.613	24151.5
847.861	23971.5
848.108	24008.5
848.356	23854.5
848.604	23887.5
848.851	23919.5
849.099	23898.5
849.346	23989.5
849.594	24016.5
849.841	24164.5
850.089	24026.5
850.336	24115.5
850.583	24057.5
850.831	23938.5
851.078	23752.5
851.325	23709.5
851.572	23870.5
851.819	23584.5
852.066	23170.5
852.313	22907.5
852.56	22704.5
852.807	22756.5
853.054	22457.5
853.301	22602.5
853.548	22490.5
853.794	22629.5
854.041	22674.5
854.288	22728.5
854.534	23026.5
854.781	22900.5
855.028	22775.5
855.274	22852.5
855.52	22636.5
855.767	22703.5
856.013	22555.5
856.26	22850.5
856.506	22340.5
856.752	22370.5
856.998	22336.5
857.244	22346.5
857.49	22458.5
857.736	22547.5
857.982	22513.5
858.228	22500.5
858.474	22269.5
858.72	22137.5
858.966	21973.5
859.212	21672.5
859.458	21401.5
859.703	21229.5
859.949	20992.5
860.195	20927.5
860.44	20907.5
860.686	20698.5
860.931	20716.5
861.177	20590.5
861.422	20505.5
861.667	20465.5
861.913	20384.5
862.158	20315.5
862.403	20415.5
862.648	20512.5
862.893	20485.5
863.138	20451.5
863.384	20326.5
863.629	20407.5
863.873	20406.5
864.118	20234.5
864.363	20182.5
864.608	20087.5
864.853	19971.5
865.098	19876.5
865.342	19805.5
865.587	19639.5
865.832	19665.5
866.076	19620.5
866.321	19566.5
866.565	19523.5
866.81	19401.5
867.054	19362.5
867.298	19306.5
867.543	19221.5
867.787	19259.5
868.031	19158.5
868.275	19118.5
868.519	19094.5
868.764	19075.5
869.008	18981.5
869.252	18952.5
869.496	18903.5
869.739	18887.5
869.983	18892.5
870.227	18872.5
870.471	18832.5
870.715	18871.5
870.958	18861.5
871.202	18911.5
871.446	18955.5
871.689	18955.5
871.933	18885.5
872.176	18920.5
872.42	18871.5
872.663	18808.5
872.906	18767.5
873.15	18688.5
873.393	18582.5
873.636	18557.5
873.879	18416.5
874.122	18226.5
874.366	17875.5
874.609	17808.5
874.852	17711.5
875.095	17643.5
875.337	17477.5
875.58	17353.5
875.823	17327.5
876.066	17316.5
876.309	17251.5
876.551	17091.5
876.794	17059.5
877.037	17067.5
877.279	16996.5
877.522	17082.5
877.764	17006.5
878.007	16843.5
878.249	16860.5
878.491	16763.5
878.734	16778.5
878.976	16758.5
879.218	16655.5
879.46	16646.5
879.702	16450.5
879.945	16314.5
880.187	16234.5
880.429	16136.5
880.671	16083.5
880.912	15975.5
881.154	15833.5
881.396	15767.5
881.638	15811.5
881.88	15829.5
882.121	15782.5
882.363	15785.5
882.605	15710.5
882.846	15757.5
883.088	15732.5
883.329	15688.5
883.571	15619.5
883.812	15736.5
884.053	15974.5
884.295	16316.5
884.536	16419.5
884.777	16261.5
885.018	16217.5
885.259	16108.5
885.5	15929.5
885.742	16109.5
885.982	15920.5
886.223	15790.5
886.464	15714.5
886.705	15495.5
886.946	15407.5
887.187	15183.5
887.428	15042.5
887.668	14852.5
887.909	14516.5
888.15	14393.5
888.39	14396.5
888.631	14276.5
888.871	14111.5
889.111	14141.5
889.352	13944.5
889.592	13797.5
889.833	13788.5
890.073	13656.5
890.313	13596.5
890.553	13403.5
890.793	13372.5
891.033	13397.5
891.273	13327.5
891.513	13327.5
891.753	13158.5
891.993	13214.5
892.233	13194.5
892.473	13356.5
892.713	13220.5
892.952	13211.5
893.192	13232.5
893.432	13196.5
893.671	13141.5
893.911	13111.5
894.15	13013.5
894.39	12900.5
894.629	12853.5
894.869	12738.5
895.108	12634.5
895.347	12589.5
895.587	12618.5
895.826	12534.5
896.065	12531.5
896.304	12512.5
896.543	12559.5
896.782	12325.5
897.021	12414.5
897.26	12338.5
897.499	12389.5
897.738	12404.5
897.977	12248.5
898.216	12125.5
898.454	12002.5
898.693	11992.5
898.932	11946.5
899.17	11887.5
899.409	11820.5
899.647	11722.5
899.886	11782.5
900.124	11742.5
900.363	11744.5
900.601	11784.5
900.839	11793.5
901.078	11744.5
901.316	11813.5
901.554	11850.5
901.792	11893.5
902.03	11936.5
902.268	11905.5
902.506	11798.5
902.744	11812.5
902.982	11787.5
903.22	11503.5
903.458	11322.5
903.695	11286.5
903.933	11149.5
904.171	10876.5
904.409	10747.5
904.646	10660.5
904.884	10491.5
905.121	10416.5
905.359	10312.5
905.596	10190.5
905.833	10103.5
906.071	10068.5
906.308	10061.5
906.545	9967.5
906.783	9920.5
907.02	9929.5
907.257	9880.5
907.494	9910.5
907.731	9867.5
907.968	9882.5
908.205	9693.5
908.442	9617.5
908.679	9523.5
908.915	9504.5
909.152	9470.5
909.389	9242.5
909.626	9366.5
909.862	9168.5
910.099	9209.5
910.335	9183.5
910.572	9074.5
910.808	9092.5
911.045	8987.5
911.281	8981.5
911.518	9008.5
911.754	8891.5
911.99	8875.5
912.226	8735.5
912.463	8753.5
912.699	8748.5
912.935	8629.5
913.171	8567.5
913.407	8485.5
913.643	8419.5
913.879	8298.5
914.114	8242.5
914.35	8124.5
914.586	8075.5
914.822	8036.5
915.057	8071.5
915.293	7884.5
915.529	7804.5
915.764	7895.5
916	7915.5
916.235	7808.5
916.471	7902.5
916.706	7727.5
916.941	7725.5
917.177	7712.5
917.412	7758.5
917.647	7729.5
917.882	7623.5
918.117	7713.5
918.352	7710.5
918.588	7668.5
918.823	7617.5
919.057	7544.5
919.292	7318.5
919.527	7437.5
919.762	7180.5
919.997	7247.5
920.232	7112.5
920.466	7107.5
920.701	6998.5
920.935	6949.5
921.17	6938.5
921.405	6927.5
921.639	6940.5
921.873	6793.5
922.108	6844.5
922.342	6807.5
922.576	6716.5
922.811	6736.5
923.045	6728.5
923.279	6724.5
923.513	6563.5
923.747	6595.5
923.981	6556.5
924.215	6479.5
924.449	6449.5
924.683	6418.5
924.917	6333.5
925.151	6382.5
925.385	6357.5
925.618	6344.5
925.852	6312.5
926.086	6207.5
926.319	6285.5
926.553	6236.5
926.786	6208.5
927.02	6214.5
927.253	6289.5
927.486	6263.5
927.72	6141.5
927.953	6184.5
928.186	6133.5
928.42	6186.5
928.653	6085.5
928.886	6026.5
929.119	6064.5
929.352	6030.5
929.585	5945.5
929.818	5960.5
930.051	5864.5
930.284	5879.5
930.516	5732.5
930.749	5679.5
930.982	5727.5
931.215	5733.5
931.447	5617.5
931.68	5617.5
931.912	5638.5
932.145	5576.5
932.377	5597.5
932.61	5767.5
932.842	5531.5
933.074	5601.5
933.307	5541.5
933.539	5643.5
933.771	5576.5
934.003	5536.5
934.236	5691.5
934.468	5590.5
934.7	5464.5
934.932	5537.5
935.164	5456.5
935.395	5468.5
935.627	5516.5
935.859	5406.5
936.091	5351.5
936.323	5425.5
936.554	5378.5
936.786	5314.5
937.017	5316.5
937.249	5341.5
937.481	5281.5
937.712	5306.5
937.943	5292.5
938.175	5249.5
938.406	5212.5
938.637	5267.5
938.869	5148.5
939.1	5228.5
939.331	5144.5
939.562	5166.5
939.793	5150.5
940.024	5125.5
940.255	5133.5
940.486	5070.5
940.717	5042.5
940.948	5049.5
941.179	4974.5
941.409	4938.5
941.64	4966.5
941.871	4991.5
942.102	4934.5
942.332	4941.5
942.563	4990.5
942.793	5024.5
943.024	4902.5
943.254	4947.5
943.484	4966.5
943.715	5002.5
943.945	4915.5
944.175	4885.5
944.405	4834.5
944.636	4835.5
944.866	4887.5
945.096	4876.5
945.326	4809.5
945.556	4845.5
945.786	4856.5
946.016	4811.5
946.245	4713.5
946.475	4679.5
946.705	4640.5
946.935	4641.5
947.164	4636.5
947.394	4593.5
947.624	4537.5
947.853	4594.5
948.083	4566.5
948.312	4520.5
948.542	4451.5
948.771	4397.5
949	4418.5
949.23	4415.5
949.459	4432.5
949.688	4474.5
949.917	4440.5
950.146	4429.5
950.375	4472.5
950.604	4405.5
950.833	4478.5
951.062	4439.5
951.291	4409.5
951.52	4306.5
951.749	4365.5
951.978	4336.5
952.206	4296.5
952.435	4267.5
952.664	4297.5
952.892	4291.5
953.121	4241.5
953.349	4281.5
953.578	4252.5
953.806	4201.5
954.035	4129.5
954.263	4186.5
954.491	4100.5
954.719	4067.5
954.948	4093.5
955.176	4085.5
955.404	4035.5
955.632	4039.5
955.86	4050.5
956.088	3973.5
956.316	4010.5
956.544	4029.5
956.772	3905.5
956.999	3897.5
957.227	3957.5
957.455	3836.5
957.683	3840.5
957.91	3791.5
958.138	3772.5
958.365	3803.5
958.593	3767.5
958.82	3706.5
959.048	3797.5
959.275	3761.5
959.502	3731.5
959.73	3668.5
959.957	3718.5
960.184	3720.5
960.411	3674.5
960.638	3813.5
960.865	3676.5
961.092	3706.5
961.319	3606.5
961.546	3719.5
961.773	3656.5
962	3646.5
962.227	3680.5
962.454	3606.5
962.68	3603.5
962.907	3641.5
963.134	3561.5
963.36	3541.5
963.587	3558.5
963.813	3469.5
964.04	3521.5
964.266	3442.5
964.493	3516.5
964.719	3490.5
964.945	3457.5
965.171	3321.5
965.398	3383.5
965.624	3465.5
965.85	3321.5
966.076	3322.5
966.302	3344.5
966.528	3293.5
966.754	3355.5
966.98	3299.5
967.206	3303.5
967.431	3176.5
967.657	3280.5
967.883	3245.5
968.109	3231.5
968.334	3195.5
968.56	3169.5
968.785	3195.5
969.011	3145.5
969.236	3196.5
969.462	3146.5
969.687	3190.5
969.912	3190.5
970.138	3195.5
970.363	3093.5
970.588	3116.5
970.813	3112.5
971.038	3025.5
971.263	3105.5
971.488	3117.5
971.713	3096.5
971.938	3109.5
972.163	2950.5
972.388	2974.5
972.613	2962.5
972.838	2986.5
973.062	2984.5
973.287	2946.5
973.512	2868.5
973.736	2919.5
973.961	2900.5
974.185	2881.5
974.41	2883.5
974.634	2806.5
974.858	2839.5
975.083	2844.5
975.307	2824.5
975.531	2767.5
975.755	2705.5
975.98	2720.5
976.204	2677.5
976.428	2685.5
976.652	2705.5
976.876	2648.5
977.1	2676.5
977.324	2661.5
977.547	2673.5
977.771	2679.5
977.995	2654.5
978.219	2604.5
978.442	2689.5
978.666	2624.5
978.89	2607.5
979.113	2621.5
979.337	2575.5
979.56	2580.5
979.783	2632.5
980.007	2524.5
980.23	2562.5
980.453	2531.5
980.677	2567.5
980.9	2504.5
981.123	2470.5
981.346	2522.5
981.569	2499.5
981.792	2519.5
982.015	2450.5
982.238	2395.5
982.461	2397.5
982.684	2406.5
982.907	2357.5
983.129	2372.5
983.352	2416.5
983.575	2375.5
983.797	2381.5
984.02	2334.5
984.242	2321.5
984.465	2303.5
984.687	2360.5
984.91	2356.5
985.132	2373.5
985.354	2322.5
985.577	2305.5
985.799	2268.5
986.021	2233.5
986.243	2233.5
986.465	2274.5
986.687	2289.5
986.909	2345.5
987.131	2227.5
987.353	2222.5
987.575	2245.5
987.797	2193.5
988.019	2144.5
988.241	2215.5
988.462	2150.5
988.684	2226.5
988.906	2231.5
989.127	2254.5
989.349	2118.5
989.57	2143.5
989.792	2199.5
990.013	2194.5
990.234	2170.5
990.456	2205.5
990.677	2189.5
990.898	2130.5
991.119	2138.5
991.341	2156.5
991.562	2090.5
991.783	2124.5
992.004	2064.5
992.225	2026.5
992.446	2091.5
992.667	1970.5
992.887	2054.5
993.108	1978.5
993.329	2095.5
993.55	2039.5
993.77	1953.5
993.991	1961.5
994.212	1978.5
994.432	1954.5
994.653	1987.5
994.873	1976.5
995.093	1850.5
995.314	1922.5
995.534	1950.5
995.754	1967.5
995.975	1981.5
996.195	1865.5
996.415	1926.5
996.635	1917.5
996.855	1905.5
997.075	1911.5
997.295	1858.5
997.515	1878.5
997.735	1894.5
997.955	1891.5
998.174	1864.5
998.394	1843.5
998.614	1901.5
998.834	1840.5
999.053	1877.5
999.273	1868.5
999.492	1938.5
999.712	1831.5
999.931	1787.5
1000.151	1870.5
1000.37	1794.5
1000.589	1870.5
1000.809	1752.5
1001.028	1896.5
1001.247	1835.5
1001.466	1716.5
1001.685	1835.5
1001.904	1809.5
1002.123	1798.5
1002.342	1787.5
1002.561	1766.5
1002.78	1737.5
1002.999	1805.5
1003.218	1732.5
1003.436	1709.5
1003.655	1738.5
1003.874	1706.5
1004.092	1735.5
1004.311	1781.5
1004.53	1706.5
1004.748	1784.5
1004.966	1748.5
1005.185	1761.5
1005.403	1768.5
1005.622	1716.5
1005.84	1819.5
1006.058	1710.5
1006.276	1722.5
1006.494	2204.5
1006.712	1717.5
1006.931	1761.5
1007.149	1685.5
1007.367	1682.5
1007.584	1726.5
1007.802	1748.5
1008.02	1707.5
1008.238	1790.5
1008.456	1800.5
1008.673	1670.5
1008.891	1770.5
1009.109	1750.5
1009.326	1776.5
1009.544	1883.5
1009.761	1785.5
1009.979	1888.5
1010.196	1892.5
1010.413	2039.5
1010.631	2061.5
1010.848	2080.5
1011.065	2115.5
1011.282	2068.5
1011.5	2004.5
1011.717	2108.5
1011.934	2034.5
1012.151	2076.5
1012.368	2051.5
1012.585	1995.5
1012.801	2053.5
1013.018	2004.5
1013.235	1984.5
1013.452	2008.5
1013.669	1995.5
1013.885	1998.5
1014.102	2028.5
1014.318	1991.5
1014.535	1973.5
1014.751	2002.5
1014.968	1963.5
1015.184	1990.5
1015.401	1905.5
1015.617	1926.5
1015.833	1881.5
1016.049	1869.5
1016.266	1885.5
1016.482	1854.5
1016.698	1771.5
1016.914	1830.5
1017.13	1757.5
1017.346	1768.5
1017.562	1802.5
1017.778	1779.5
1017.993	1725.5
1018.209	1770.5
1018.425	1738.5
1018.641	1708.5
1018.856	1667.5
1019.072	1710.5
1019.288	1746.5
1019.503	1678.5
1019.719	1630.5
1019.934	1651.5
1020.149	1683.5
1020.365	1642.5
1020.58	1606.5
1020.795	1602.5
1021.011	1573.5
1021.226	1516.5
1021.441	1521.5
1021.656	1467.5
1021.871	1406.5
1022.086	1397.5
1022.301	1388.5
1022.516	1367.5
1022.731	1389.5
1022.946	1320.5
1023.16	1324.5
1023.375	1272.5
1023.59	1260.5
1023.804	1230.5
1024.019	1327.5
1024.234	1176.5
1024.448	1192.5
1024.663	1129.5
1024.877	1146.5
1025.092	1158.5
1025.306	1145.5
1025.52	1053.5
1025.734	1148.5
1025.949	1053.5
1026.163	1021.5
1026.377	959.5
1026.591	993.5
1026.805	943.5
1027.019	911.5
1027.233	905.5
1027.447	835.5
1027.661	929.5
1027.875	877.5
1028.088	857.5
1028.302	812.5
1028.516	792.5
1028.73	778.5
1028.943	772.5
1029.157	707.5
1029.37	686.5
1029.584	-4.5
1029.797	-0.5
1030.011	-0.5
1030.224	-0.5
