Data from QEP037381__152__15-48-49-883.txt Node

Date: Fri Dec 16 15:48:49 EST 2022
User: dcclab
Spectrometer: QEP03738
Trigger mode: 4
Integration Time (sec): 1.000000E1
Scans to average: 1
Electric dark correction enabled: true
Nonlinearity correction enabled: false
Boxcar width: 0
XAxis mode: Wavelengths
Number of Pixels in Spectrum: 1044
>>>>>Begin Spectral Data<<<<<
784.041	12.62
784.3	1.62
784.558	-0.38
784.817	-5.38
785.075	111500.62
785.334	19575.62
785.592	9357.62
785.851	6479.62
786.109	4892.62
786.368	3811.62
786.626	3053.62
786.884	2536.62
787.143	2106.62
787.401	1729.62
787.659	1555.62
787.917	1332.62
788.175	1246.62
788.433	1072.62
788.691	970.62
788.949	906.62
789.207	843.62
789.465	744.62
789.723	720.62
789.98	658.62
790.238	693.62
790.496	650.62
790.753	631.62
791.011	671.62
791.268	603.62
791.526	592.62
791.783	592.62
792.041	582.62
792.298	501.62
792.556	572.62
792.813	544.62
793.07	521.62
793.327	503.62
793.584	580.62
793.841	504.62
794.099	519.62
794.356	577.62
794.613	463.62
794.869	512.62
795.126	492.62
795.383	462.62
795.64	489.62
795.897	450.62
796.153	507.62
796.41	487.62
796.667	482.62
796.923	476.62
797.18	480.62
797.436	512.62
797.693	466.62
797.949	531.62
798.206	557.62
798.462	467.62
798.718	545.62
798.974	531.62
799.231	573.62
799.487	558.62
799.743	575.62
799.999	610.62
800.255	612.62
800.511	604.62
800.767	668.62
801.023	666.62
801.279	719.62
801.534	755.62
801.79	866.62
802.046	929.62
802.302	1130.62
802.557	1354.62
802.813	1723.62
803.068	2221.62
803.324	3163.62
803.579	4382.62
803.835	6132.62
804.09	8506.62
804.345	11304.62
804.601	14261.62
804.856	17193.62
805.111	19883.62
805.366	21999.62
805.621	23491.62
805.876	24472.62
806.131	25264.62
806.386	25777.62
806.641	26138.62
806.896	26567.62
807.151	27190.62
807.406	27503.62
807.661	28016.62
807.915	28448.62
808.17	28903.62
808.425	29172.62
808.679	29504.62
808.934	29950.62
809.188	30329.62
809.443	30391.62
809.697	30741.62
809.951	31059.62
810.206	31221.62
810.46	31563.62
810.714	31886.62
810.968	32060.62
811.223	32274.62
811.477	32631.62
811.731	32959.62
811.985	33087.62
812.239	33225.62
812.493	33481.62
812.747	33617.62
813	33674.62
813.254	33824.62
813.508	33999.62
813.762	34204.62
814.015	34266.62
814.269	34627.62
814.522	34916.62
814.776	35239.62
815.03	35722.62
815.283	36276.62
815.536	36877.62
815.79	37242.62
816.043	37845.62
816.296	38275.62
816.55	38727.62
816.803	39153.62
817.056	39715.62
817.309	40149.62
817.562	40492.62
817.815	40954.62
818.068	41199.62
818.321	41484.62
818.574	42063.62
818.827	42553.62
819.079	43202.62
819.332	43861.62
819.585	44328.62
819.838	44989.62
820.09	45163.62
820.343	45436.62
820.595	45793.62
820.848	46081.62
821.1	46222.62
821.353	46500.62
821.605	46309.62
821.857	46244.62
822.11	46122.62
822.362	45997.62
822.614	45883.62
822.866	45891.62
823.118	46038.62
823.37	46135.62
823.622	46097.62
823.874	46377.62
824.126	46618.62
824.378	46585.62
824.63	46780.62
824.882	46802.62
825.134	46666.62
825.385	46837.62
825.637	46836.62
825.888	46639.62
826.14	46375.62
826.392	46209.62
826.643	45878.62
826.895	45917.62
827.146	45756.62
827.397	45572.62
827.649	45704.62
827.9	45604.62
828.151	45806.62
828.402	45813.62
828.653	45939.62
828.905	46158.62
829.156	46250.62
829.407	46125.62
829.658	46213.62
829.909	46184.62
830.159	46038.62
830.41	45834.62
830.661	45523.62
830.912	45303.62
831.162	45146.62
831.413	44953.62
831.664	44984.62
831.914	45069.62
832.165	44922.62
832.415	44874.62
832.666	45092.62
832.916	45122.62
833.167	44908.62
833.417	44991.62
833.667	44666.62
833.917	44562.62
834.168	44642.62
834.418	44348.62
834.668	44298.62
834.918	44060.62
835.168	43814.62
835.418	43674.62
835.668	43593.62
835.918	43614.62
836.167	43300.62
836.417	43194.62
836.667	43228.62
836.917	43147.62
837.166	43170.62
837.416	43218.62
837.666	43040.62
837.915	43165.62
838.165	43038.62
838.414	42802.62
838.663	42723.62
838.913	42650.62
839.162	42462.62
839.411	42450.62
839.661	42267.62
839.91	42207.62
840.159	42157.62
840.408	42113.62
840.657	42024.62
840.906	41909.62
841.155	42100.62
841.404	42085.62
841.653	42057.62
841.902	42030.62
842.15	42234.62
842.399	42075.62
842.648	42047.62
842.897	41766.62
843.145	41729.62
843.394	41214.62
843.642	41086.62
843.891	40912.62
844.139	40903.62
844.388	40530.62
844.636	40287.62
844.884	40263.62
845.133	40173.62
845.381	40334.62
845.629	40283.62
845.877	40320.62
846.125	40332.62
846.373	40012.62
846.621	39863.62
846.869	39681.62
847.117	39510.62
847.365	39297.62
847.613	39180.62
847.861	39182.62
848.108	39065.62
848.356	39004.62
848.604	38670.62
848.851	38870.62
849.099	38835.62
849.346	39021.62
849.594	39032.62
849.841	39198.62
850.089	39272.62
850.336	39265.62
850.583	39212.62
850.831	39048.62
851.078	38746.62
851.325	38628.62
851.572	38628.62
851.819	38285.62
852.066	37734.62
852.313	37427.62
852.56	37087.62
852.807	36889.62
853.054	36775.62
853.301	36670.62
853.548	36760.62
853.794	36909.62
854.041	36827.62
854.288	37026.62
854.534	37351.62
854.781	37226.62
855.028	37140.62
855.274	37103.62
855.52	36897.62
855.767	36657.62
856.013	36544.62
856.26	36863.62
856.506	36239.62
856.752	36142.62
856.998	36265.62
857.244	36414.62
857.49	36397.62
857.736	36599.62
857.982	36421.62
858.228	36366.62
858.474	36102.62
858.72	35906.62
858.966	35735.62
859.212	35381.62
859.458	35007.62
859.703	34595.62
859.949	34265.62
860.195	34150.62
860.44	33872.62
860.686	33530.62
860.931	33658.62
861.177	33520.62
861.422	33448.62
861.667	33406.62
861.913	33208.62
862.158	33323.62
862.403	33485.62
862.648	33400.62
862.893	33579.62
863.138	33447.62
863.384	33478.62
863.629	33499.62
863.873	33251.62
864.118	33226.62
864.363	32945.62
864.608	32919.62
864.853	32764.62
865.098	32628.62
865.342	32607.62
865.587	32269.62
865.832	32343.62
866.076	32138.62
866.321	32046.62
866.565	32010.62
866.81	31817.62
867.054	31662.62
867.298	31648.62
867.543	31537.62
867.787	31595.62
868.031	31348.62
868.275	31341.62
868.519	31104.62
868.764	31118.62
869.008	30994.62
869.252	30925.62
869.496	30818.62
869.739	30797.62
869.983	30753.62
870.227	30740.62
870.471	30644.62
870.715	30774.62
870.958	30718.62
871.202	30782.62
871.446	30829.62
871.689	30835.62
871.933	30872.62
872.176	30795.62
872.42	30521.62
872.663	30598.62
872.906	30454.62
873.15	30406.62
873.393	30064.62
873.636	30065.62
873.879	29729.62
874.122	29458.62
874.366	29302.62
874.609	28827.62
874.852	28616.62
875.095	28552.62
875.337	28514.62
875.58	28289.62
875.823	28251.62
876.066	28162.62
876.309	28106.62
876.551	27872.62
876.794	27843.62
877.037	27753.62
877.279	27720.62
877.522	27751.62
877.764	27826.62
878.007	27606.62
878.249	27567.62
878.491	27689.62
878.734	27529.62
878.976	27573.62
879.218	27248.62
879.46	27229.62
879.702	26978.62
879.945	26761.62
880.187	26409.62
880.429	26414.62
880.671	26370.62
880.912	26240.62
881.154	26060.62
881.396	25913.62
881.638	26029.62
881.88	25960.62
882.121	25944.62
882.363	25825.62
882.605	25805.62
882.846	25637.62
883.088	25613.62
883.329	25516.62
883.571	25497.62
883.812	25568.62
884.053	25688.62
884.295	26017.62
884.536	26101.62
884.777	25952.62
885.018	25826.62
885.259	25753.62
885.5	25620.62
885.742	25864.62
885.982	25480.62
886.223	25365.62
886.464	25250.62
886.705	25080.62
886.946	25113.62
887.187	24605.62
887.428	24482.62
887.668	24183.62
887.909	23858.62
888.15	23638.62
888.39	23649.62
888.631	23426.62
888.871	23214.62
889.111	23156.62
889.352	23004.62
889.592	22813.62
889.833	22607.62
890.073	22382.62
890.313	22368.62
890.553	22117.62
890.793	22123.62
891.033	21853.62
891.273	21826.62
891.513	21837.62
891.753	21765.62
891.993	21683.62
892.233	21742.62
892.473	21873.62
892.713	21733.62
892.952	21764.62
893.192	21673.62
893.432	21616.62
893.671	21619.62
893.911	21443.62
894.15	21387.62
894.39	21142.62
894.629	21092.62
894.869	21000.62
895.108	20822.62
895.347	20654.62
895.587	20699.62
895.826	20670.62
896.065	20655.62
896.304	20621.62
896.543	20515.62
896.782	20552.62
897.021	20373.62
897.26	20275.62
897.499	20278.62
897.738	19995.62
897.977	20074.62
898.216	19772.62
898.454	19672.62
898.693	19553.62
898.932	19448.62
899.17	19395.62
899.409	19283.62
899.647	19246.62
899.886	19129.62
900.124	19158.62
900.363	19076.62
900.601	19128.62
900.839	19162.62
901.078	19063.62
901.316	19191.62
901.554	19288.62
901.792	19158.62
902.03	19104.62
902.268	19106.62
902.506	19119.62
902.744	19014.62
902.982	18791.62
903.22	18677.62
903.458	18452.62
903.695	18264.62
903.933	18132.62
904.171	17792.62
904.409	17600.62
904.646	17316.62
904.884	17055.62
905.121	17020.62
905.359	16776.62
905.596	16540.62
905.833	16476.62
906.071	16395.62
906.308	16474.62
906.545	16398.62
906.783	16223.62
907.02	16201.62
907.257	16119.62
907.494	16157.62
907.731	16113.62
907.968	15964.62
908.205	15909.62
908.442	15844.62
908.679	15757.62
908.915	15629.62
909.152	15578.62
909.389	15314.62
909.626	15312.62
909.862	15195.62
910.099	15140.62
910.335	15038.62
910.572	14869.62
910.808	14934.62
911.045	14826.62
911.281	14793.62
911.518	14787.62
911.754	14673.62
911.99	14567.62
912.226	14425.62
912.463	14280.62
912.699	14220.62
912.935	14095.62
913.171	14002.62
913.407	13852.62
913.643	13814.62
913.879	13681.62
914.114	13536.62
914.35	13405.62
914.586	13248.62
914.822	13174.62
915.057	13117.62
915.293	12889.62
915.529	12846.62
915.764	12889.62
916	12908.62
916.235	12788.62
916.471	12858.62
916.706	12591.62
916.941	12711.62
917.177	12668.62
917.412	12738.62
917.647	12654.62
917.882	12577.62
918.117	12659.62
918.352	12543.62
918.588	12480.62
918.823	12318.62
919.057	12280.62
919.292	12050.62
919.527	12048.62
919.762	11881.62
919.997	11770.62
920.232	11636.62
920.466	11530.62
920.701	11398.62
920.935	11346.62
921.17	11288.62
921.405	11113.62
921.639	11214.62
921.873	11104.62
922.108	11128.62
922.342	11050.62
922.576	11000.62
922.811	10950.62
923.045	10916.62
923.279	10853.62
923.513	10687.62
923.747	10741.62
923.981	10659.62
924.215	10517.62
924.449	10519.62
924.683	10425.62
924.917	10343.62
925.151	10316.62
925.385	10362.62
925.618	10301.62
925.852	10237.62
926.086	10113.62
926.319	10164.62
926.553	10135.62
926.786	10153.62
927.02	10153.62
927.253	10157.62
927.486	10099.62
927.72	10014.62
927.953	10024.62
928.186	10019.62
928.42	10006.62
928.653	9899.62
928.886	9804.62
929.119	9836.62
929.352	9746.62
929.585	9636.62
929.818	9605.62
930.051	9575.62
930.284	9421.62
930.516	9335.62
930.749	9246.62
930.982	9271.62
931.215	9229.62
931.447	9133.62
931.68	9122.62
931.912	9068.62
932.145	9074.62
932.377	9058.62
932.61	9213.62
932.842	8904.62
933.074	8983.62
933.307	8898.62
933.539	9034.62
933.771	8956.62
934.003	8996.62
934.236	9034.62
934.468	9053.62
934.7	8936.62
934.932	8950.62
935.164	8839.62
935.395	8789.62
935.627	8799.62
935.859	8783.62
936.091	8673.62
936.323	8713.62
936.554	8665.62
936.786	8584.62
937.017	8496.62
937.249	8530.62
937.481	8450.62
937.712	8506.62
937.943	8432.62
938.175	8431.62
938.406	8388.62
938.637	8449.62
938.869	8369.62
939.1	8414.62
939.331	8301.62
939.562	8359.62
939.793	8292.62
940.024	8343.62
940.255	8226.62
940.486	8133.62
940.717	8113.62
940.948	8120.62
941.179	7995.62
941.409	8025.62
941.64	7999.62
941.871	8008.62
942.102	7937.62
942.332	7892.62
942.563	7993.62
942.793	8005.62
943.024	7864.62
943.254	7938.62
943.484	7923.62
943.715	7973.62
943.945	7917.62
944.175	7796.62
944.405	7798.62
944.636	7783.62
944.866	7826.62
945.096	7773.62
945.326	7693.62
945.556	7734.62
945.786	7721.62
946.016	7676.62
946.245	7596.62
946.475	7572.62
946.705	7496.62
946.935	7486.62
947.164	7477.62
947.394	7366.62
947.624	7336.62
947.853	7358.62
948.083	7315.62
948.312	7263.62
948.542	7219.62
948.771	7130.62
949	7082.62
949.23	7119.62
949.459	7135.62
949.688	7198.62
949.917	7115.62
950.146	7080.62
950.375	7127.62
950.604	7050.62
950.833	7066.62
951.062	7068.62
951.291	6993.62
951.52	6981.62
951.749	6934.62
951.978	6880.62
952.206	6864.62
952.435	6833.62
952.664	6875.62
952.892	6847.62
953.121	6811.62
953.349	6771.62
953.578	6728.62
953.806	6669.62
954.035	6605.62
954.263	6611.62
954.491	6485.62
954.719	6601.62
954.948	6563.62
955.176	6477.62
955.404	6419.62
955.632	6436.62
955.86	6399.62
956.088	6345.62
956.316	6335.62
956.544	6365.62
956.772	6287.62
956.999	6155.62
957.227	6289.62
957.455	6168.62
957.683	6118.62
957.91	6098.62
958.138	6104.62
958.365	6065.62
958.593	6026.62
958.82	5924.62
959.048	6010.62
959.275	5879.62
959.502	5877.62
959.73	5873.62
959.957	5897.62
960.184	5908.62
960.411	5798.62
960.638	5884.62
960.865	5800.62
961.092	5846.62
961.319	5778.62
961.546	5827.62
961.773	5854.62
962	5784.62
962.227	5824.62
962.454	5754.62
962.68	5673.62
962.907	5705.62
963.134	5648.62
963.36	5630.62
963.587	5551.62
963.813	5481.62
964.04	5530.62
964.266	5432.62
964.493	5491.62
964.719	5439.62
964.945	5415.62
965.171	5291.62
965.398	5331.62
965.624	5369.62
965.85	5249.62
966.076	5196.62
966.302	5247.62
966.528	5120.62
966.754	5175.62
966.98	5213.62
967.206	5132.62
967.431	5044.62
967.657	5105.62
967.883	5051.62
968.109	5059.62
968.334	5004.62
968.56	4953.62
968.785	5033.62
969.011	4889.62
969.236	5013.62
969.462	4951.62
969.687	4927.62
969.912	4957.62
970.138	4948.62
970.363	4859.62
970.588	4879.62
970.813	4832.62
971.038	4802.62
971.263	4832.62
971.488	4786.62
971.713	4813.62
971.938	4739.62
972.163	4638.62
972.388	4621.62
972.613	4687.62
972.838	4686.62
973.062	4606.62
973.287	4566.62
973.512	4509.62
973.736	4515.62
973.961	4515.62
974.185	4425.62
974.41	4505.62
974.634	4326.62
974.858	4377.62
975.083	4384.62
975.307	4426.62
975.531	4296.62
975.755	4247.62
975.98	4209.62
976.204	4141.62
976.428	4152.62
976.652	4125.62
976.876	4147.62
977.1	4166.62
977.324	4092.62
977.547	4101.62
977.771	4084.62
977.995	4088.62
978.219	4039.62
978.442	4149.62
978.666	4091.62
978.89	4038.62
979.113	4056.62
979.337	4024.62
979.56	3978.62
979.783	4038.62
980.007	3906.62
980.23	3895.62
980.453	3887.62
980.677	3940.62
980.9	3898.62
981.123	3760.62
981.346	3840.62
981.569	3816.62
981.792	3822.62
982.015	3767.62
982.238	3702.62
982.461	3718.62
982.684	3661.62
982.907	3657.62
983.129	3644.62
983.352	3679.62
983.575	3631.62
983.797	3646.62
984.02	3530.62
984.242	3561.62
984.465	3518.62
984.687	3558.62
984.91	3553.62
985.132	3480.62
985.354	3522.62
985.577	3490.62
985.799	3458.62
986.021	3351.62
986.243	3380.62
986.465	3404.62
986.687	3430.62
986.909	3425.62
987.131	3359.62
987.353	3344.62
987.575	3371.62
987.797	3327.62
988.019	3281.62
988.241	3302.62
988.462	3249.62
988.684	3288.62
988.906	3301.62
989.127	3308.62
989.349	3188.62
989.57	3232.62
989.792	3240.62
990.013	3221.62
990.234	3248.62
990.456	3269.62
990.677	3226.62
990.898	3178.62
991.119	3138.62
991.341	3162.62
991.562	3085.62
991.783	3108.62
992.004	2996.62
992.225	3002.62
992.446	3080.62
992.667	2952.62
992.887	3019.62
993.108	2899.62
993.329	2997.62
993.55	2907.62
993.77	2882.62
993.991	2869.62
994.212	2898.62
994.432	2865.62
994.653	2875.62
994.873	2831.62
995.093	2719.62
995.314	2759.62
995.534	2815.62
995.754	2823.62
995.975	2813.62
996.195	2718.62
996.415	2783.62
996.635	2755.62
996.855	2735.62
997.075	2728.62
997.295	2739.62
997.515	2676.62
997.735	2734.62
997.955	2695.62
998.174	2668.62
998.394	2621.62
998.614	2714.62
998.834	2652.62
999.053	2685.62
999.273	2669.62
999.492	2707.62
999.712	2609.62
999.931	2591.62
1000.151	2608.62
1000.37	2568.62
1000.589	2654.62
1000.809	2550.62
1001.028	2656.62
1001.247	2590.62
1001.466	2433.62
1001.685	2595.62
1001.904	2517.62
1002.123	2522.62
1002.342	2502.62
1002.561	2404.62
1002.78	2457.62
1002.999	2479.62
1003.218	2451.62
1003.436	2395.62
1003.655	2451.62
1003.874	2379.62
1004.092	2392.62
1004.311	2425.62
1004.53	2350.62
1004.748	2458.62
1004.966	2343.62
1005.185	2418.62
1005.403	2414.62
1005.622	2353.62
1005.84	2415.62
1006.058	2293.62
1006.276	2337.62
1006.494	2814.62
1006.712	2328.62
1006.931	2403.62
1007.149	2344.62
1007.367	2310.62
1007.584	2334.62
1007.802	2366.62
1008.02	2318.62
1008.238	2417.62
1008.456	2384.62
1008.673	2245.62
1008.891	2353.62
1009.109	2292.62
1009.326	2359.62
1009.544	2458.62
1009.761	2343.62
1009.979	2461.62
1010.196	2456.62
1010.413	2555.62
1010.631	2636.62
1010.848	2679.62
1011.065	2674.62
1011.282	2630.62
1011.5	2540.62
1011.717	2634.62
1011.934	2577.62
1012.151	2622.62
1012.368	2549.62
1012.585	2490.62
1012.801	2595.62
1013.018	2533.62
1013.235	2508.62
1013.452	2503.62
1013.669	2520.62
1013.885	2525.62
1014.102	2546.62
1014.318	2514.62
1014.535	2421.62
1014.751	2494.62
1014.968	2443.62
1015.184	2470.62
1015.401	2399.62
1015.617	2388.62
1015.833	2314.62
1016.049	2361.62
1016.266	2328.62
1016.482	2347.62
1016.698	2251.62
1016.914	2255.62
1017.13	2222.62
1017.346	2182.62
1017.562	2276.62
1017.778	2182.62
1017.993	2142.62
1018.209	2209.62
1018.425	2177.62
1018.641	2148.62
1018.856	2121.62
1019.072	2120.62
1019.288	2190.62
1019.503	2117.62
1019.719	2015.62
1019.934	2063.62
1020.149	2120.62
1020.365	2055.62
1020.58	2012.62
1020.795	2039.62
1021.011	1964.62
1021.226	1925.62
1021.441	1968.62
1021.656	1844.62
1021.871	1767.62
1022.086	1779.62
1022.301	1745.62
1022.516	1715.62
1022.731	1756.62
1022.946	1679.62
1023.16	1645.62
1023.375	1598.62
1023.59	1596.62
1023.804	1583.62
1024.019	1648.62
1024.234	1497.62
1024.448	1535.62
1024.663	1467.62
1024.877	1458.62
1025.092	1427.62
1025.306	1454.62
1025.52	1353.62
1025.734	1419.62
1025.949	1327.62
1026.163	1306.62
1026.377	1218.62
1026.591	1265.62
1026.805	1184.62
1027.019	1173.62
1027.233	1117.62
1027.447	1084.62
1027.661	1176.62
1027.875	1112.62
1028.088	1111.62
1028.302	1016.62
1028.516	998.62
1028.73	1011.62
1028.943	973.62
1029.157	915.62
1029.37	864.62
1029.584	-3.38
1029.797	-2.38
1030.011	-2.38
1030.224	-0.38
