Data from QEP037381__202__15-57-09-892.txt Node

Date: Fri Dec 16 15:57:09 EST 2022
User: dcclab
Spectrometer: QEP03738
Trigger mode: 4
Integration Time (sec): 1.000000E1
Scans to average: 1
Electric dark correction enabled: true
Nonlinearity correction enabled: false
Boxcar width: 0
XAxis mode: Wavelengths
Number of Pixels in Spectrum: 1044
>>>>>Begin Spectral Data<<<<<
784.041	13.75
784.3	-2.25
784.558	-4.25
784.817	-2.25
785.075	109546.75
785.334	19235.75
785.592	9203.75
785.851	6266.75
786.109	4786.75
786.368	3686.75
786.626	2975.75
786.884	2480.75
787.143	2064.75
787.401	1693.75
787.659	1527.75
787.917	1306.75
788.175	1195.75
788.433	1057.75
788.691	946.75
788.949	856.75
789.207	827.75
789.465	707.75
789.723	682.75
789.98	634.75
790.238	659.75
790.496	629.75
790.753	605.75
791.011	642.75
791.268	583.75
791.526	550.75
791.783	558.75
792.041	571.75
792.298	473.75
792.556	531.75
792.813	507.75
793.07	489.75
793.327	480.75
793.584	550.75
793.841	480.75
794.099	502.75
794.356	538.75
794.613	458.75
794.869	491.75
795.126	476.75
795.383	432.75
795.64	460.75
795.897	410.75
796.153	472.75
796.41	462.75
796.667	447.75
796.923	458.75
797.18	458.75
797.436	473.75
797.693	457.75
797.949	487.75
798.206	508.75
798.462	438.75
798.718	502.75
798.974	488.75
799.231	526.75
799.487	523.75
799.743	525.75
799.999	547.75
800.255	555.75
800.511	568.75
800.767	590.75
801.023	593.75
801.279	620.75
801.534	656.75
801.79	723.75
802.046	777.75
802.302	931.75
802.557	1076.75
802.813	1379.75
803.068	1740.75
803.324	2412.75
803.579	3325.75
803.835	4630.75
804.09	6387.75
804.345	8427.75
804.601	10667.75
804.856	12966.75
805.111	14974.75
805.366	16481.75
805.621	17589.75
805.876	18385.75
806.131	19004.75
806.386	19328.75
806.641	19701.75
806.896	20058.75
807.151	20354.75
807.406	20654.75
807.661	21052.75
807.915	21374.75
808.17	21758.75
808.425	21988.75
808.679	22224.75
808.934	22509.75
809.188	22550.75
809.443	22816.75
809.697	23254.75
809.951	23277.75
810.206	23497.75
810.46	23748.75
810.714	23850.75
810.968	24129.75
811.223	24199.75
811.477	24551.75
811.731	24755.75
811.985	24888.75
812.239	25045.75
812.493	25034.75
812.747	25271.75
813	25221.75
813.254	25314.75
813.508	25565.75
813.762	25608.75
814.015	25723.75
814.269	25858.75
814.522	26164.75
814.776	26520.75
815.03	26705.75
815.283	27027.75
815.536	27569.75
815.79	27821.75
816.043	28344.75
816.296	28697.75
816.55	29056.75
816.803	29351.75
817.056	29698.75
817.309	29977.75
817.562	30220.75
817.815	30516.75
818.068	30700.75
818.321	31075.75
818.574	31423.75
818.827	31817.75
819.079	32131.75
819.332	32822.75
819.585	32997.75
819.838	33427.75
820.09	33649.75
820.343	34026.75
820.595	34107.75
820.848	34407.75
821.1	34493.75
821.353	34501.75
821.605	34508.75
821.857	34423.75
822.11	34301.75
822.362	34223.75
822.614	34142.75
822.866	34187.75
823.118	34122.75
823.37	34344.75
823.622	34327.75
823.874	34400.75
824.126	34744.75
824.378	34654.75
824.63	34822.75
824.882	34795.75
825.134	34690.75
825.385	34705.75
825.637	34686.75
825.888	34564.75
826.14	34493.75
826.392	34305.75
826.643	34136.75
826.895	34183.75
827.146	33858.75
827.397	33902.75
827.649	33939.75
827.9	33743.75
828.151	33937.75
828.402	33857.75
828.653	34145.75
828.905	34159.75
829.156	34134.75
829.407	34209.75
829.658	34118.75
829.909	34100.75
830.159	34187.75
830.41	33931.75
830.661	33681.75
830.912	33517.75
831.162	33407.75
831.413	33391.75
831.664	33445.75
831.914	33291.75
832.165	33326.75
832.415	33132.75
832.666	33167.75
832.916	33248.75
833.167	33083.75
833.417	33221.75
833.667	33104.75
833.917	32878.75
834.168	32891.75
834.418	32758.75
834.668	32633.75
834.918	32465.75
835.168	32364.75
835.418	32273.75
835.668	32080.75
835.918	32085.75
836.167	31900.75
836.417	31839.75
836.667	31768.75
836.917	31720.75
837.166	31846.75
837.416	31675.75
837.666	31807.75
837.915	31532.75
838.165	31498.75
838.414	31544.75
838.663	31397.75
838.913	31456.75
839.162	31248.75
839.411	31182.75
839.661	31126.75
839.91	30959.75
840.159	30953.75
840.408	30911.75
840.657	30894.75
840.906	30992.75
841.155	30978.75
841.404	30823.75
841.653	30810.75
841.902	30953.75
842.15	30954.75
842.399	30886.75
842.648	30819.75
842.897	30823.75
843.145	30538.75
843.394	30376.75
843.642	30299.75
843.891	30181.75
844.139	30005.75
844.388	29599.75
844.636	29703.75
844.884	29692.75
845.133	29562.75
845.381	29590.75
845.629	29699.75
845.877	29404.75
846.125	29418.75
846.373	29393.75
846.621	29215.75
846.869	29208.75
847.117	28989.75
847.365	28700.75
847.613	28772.75
847.861	28724.75
848.108	28445.75
848.356	28539.75
848.604	28360.75
848.851	28491.75
849.099	28412.75
849.346	28530.75
849.594	28680.75
849.841	28727.75
850.089	28730.75
850.336	28719.75
850.583	28535.75
850.831	28537.75
851.078	28292.75
851.325	28450.75
851.572	28256.75
851.819	28037.75
852.066	27539.75
852.313	27245.75
852.56	27097.75
852.807	27031.75
853.054	26819.75
853.301	26787.75
853.548	26749.75
853.794	26952.75
854.041	26924.75
854.288	27066.75
854.534	27403.75
854.781	27172.75
855.028	27197.75
855.274	27162.75
855.52	26866.75
855.767	26829.75
856.013	26882.75
856.26	27101.75
856.506	26497.75
856.752	26591.75
856.998	26527.75
857.244	26525.75
857.49	26689.75
857.736	26706.75
857.982	26682.75
858.228	26465.75
858.474	26458.75
858.72	26252.75
858.966	25955.75
859.212	25693.75
859.458	25545.75
859.703	25185.75
859.949	24890.75
860.195	24867.75
860.44	24641.75
860.686	24610.75
860.931	24614.75
861.177	24427.75
861.422	24435.75
861.667	24239.75
861.913	24216.75
862.158	24317.75
862.403	24435.75
862.648	24418.75
862.893	24428.75
863.138	24392.75
863.384	24287.75
863.629	24406.75
863.873	24364.75
864.118	24178.75
864.363	24050.75
864.608	24000.75
864.853	23902.75
865.098	23773.75
865.342	23636.75
865.587	23556.75
865.832	23548.75
866.076	23446.75
866.321	23336.75
866.565	23243.75
866.81	23146.75
867.054	23131.75
867.298	23037.75
867.543	22957.75
867.787	23073.75
868.031	22926.75
868.275	22798.75
868.519	22819.75
868.764	22696.75
869.008	22626.75
869.252	22488.75
869.496	22568.75
869.739	22412.75
869.983	22418.75
870.227	22343.75
870.471	22357.75
870.715	22417.75
870.958	22440.75
871.202	22517.75
871.446	22582.75
871.689	22495.75
871.933	22451.75
872.176	22362.75
872.42	22374.75
872.663	22223.75
872.906	22304.75
873.15	22195.75
873.393	22126.75
873.636	21987.75
873.879	21818.75
874.122	21685.75
874.366	21379.75
874.609	21137.75
874.852	21077.75
875.095	20965.75
875.337	20725.75
875.58	20705.75
875.823	20772.75
876.066	20679.75
876.309	20511.75
876.551	20472.75
876.794	20320.75
877.037	20297.75
877.279	20180.75
877.522	20157.75
877.764	20283.75
878.007	20263.75
878.249	20120.75
878.491	20097.75
878.734	20076.75
878.976	20125.75
879.218	19850.75
879.46	19787.75
879.702	19641.75
879.945	19460.75
880.187	19344.75
880.429	19236.75
880.671	19157.75
880.912	19071.75
881.154	18973.75
881.396	18864.75
881.638	18849.75
881.88	18935.75
882.121	18853.75
882.363	18743.75
882.605	18887.75
882.846	18735.75
883.088	18673.75
883.329	18608.75
883.571	18650.75
883.812	18653.75
884.053	18881.75
884.295	19103.75
884.536	19300.75
884.777	19192.75
885.018	19062.75
885.259	18963.75
885.5	18911.75
885.742	19164.75
885.982	18749.75
886.223	18668.75
886.464	18591.75
886.705	18375.75
886.946	18308.75
887.187	18013.75
887.428	17912.75
887.668	17599.75
887.909	17454.75
888.15	17244.75
888.39	17187.75
888.631	17031.75
888.871	16948.75
889.111	16718.75
889.352	16748.75
889.592	16600.75
889.833	16417.75
890.073	16319.75
890.313	16317.75
890.553	16155.75
890.793	16028.75
891.033	16021.75
891.273	15813.75
891.513	15813.75
891.753	15895.75
891.993	15751.75
892.233	15708.75
892.473	15835.75
892.713	15881.75
892.952	15760.75
893.192	15949.75
893.432	15771.75
893.671	15756.75
893.911	15645.75
894.15	15511.75
894.39	15430.75
894.629	15360.75
894.869	15326.75
895.108	15177.75
895.347	15150.75
895.587	15150.75
895.826	15041.75
896.065	14942.75
896.304	14942.75
896.543	14964.75
896.782	14777.75
897.021	14911.75
897.26	14695.75
897.499	14717.75
897.738	14799.75
897.977	14744.75
898.216	14510.75
898.454	14354.75
898.693	14327.75
898.932	14237.75
899.17	14140.75
899.409	14081.75
899.647	14095.75
899.886	13912.75
900.124	14030.75
900.363	13935.75
900.601	13993.75
900.839	14026.75
901.078	14035.75
901.316	14037.75
901.554	14129.75
901.792	14092.75
902.03	14047.75
902.268	13993.75
902.506	14060.75
902.744	13910.75
902.982	13857.75
903.22	13706.75
903.458	13568.75
903.695	13280.75
903.933	13232.75
904.171	13027.75
904.409	12820.75
904.646	12738.75
904.884	12503.75
905.121	12431.75
905.359	12306.75
905.596	12192.75
905.833	12105.75
906.071	11977.75
906.308	12011.75
906.545	11981.75
906.783	11834.75
907.02	11921.75
907.257	11800.75
907.494	11868.75
907.731	11771.75
907.968	11682.75
908.205	11588.75
908.442	11555.75
908.679	11506.75
908.915	11483.75
909.152	11363.75
909.389	11153.75
909.626	11093.75
909.862	11073.75
910.099	11035.75
910.335	10978.75
910.572	10867.75
910.808	10912.75
911.045	10849.75
911.281	10760.75
911.518	10768.75
911.754	10626.75
911.99	10651.75
912.226	10521.75
912.463	10467.75
912.699	10332.75
912.935	10263.75
913.171	10252.75
913.407	10147.75
913.643	10111.75
913.879	10026.75
914.114	9884.75
914.35	9697.75
914.586	9703.75
914.822	9527.75
915.057	9603.75
915.293	9424.75
915.529	9368.75
915.764	9494.75
916	9418.75
916.235	9344.75
916.471	9373.75
916.706	9332.75
916.941	9341.75
917.177	9253.75
917.412	9278.75
917.647	9285.75
917.882	9215.75
918.117	9231.75
918.352	9169.75
918.588	9197.75
918.823	9073.75
919.057	8944.75
919.292	8742.75
919.527	8806.75
919.762	8638.75
919.997	8632.75
920.232	8511.75
920.466	8482.75
920.701	8401.75
920.935	8273.75
921.17	8274.75
921.405	8230.75
921.639	8264.75
921.873	8162.75
922.108	8204.75
922.342	8075.75
922.576	8029.75
922.811	7983.75
923.045	8067.75
923.279	8024.75
923.513	7865.75
923.747	7900.75
923.981	7846.75
924.215	7744.75
924.449	7737.75
924.683	7680.75
924.917	7599.75
925.151	7616.75
925.385	7657.75
925.618	7548.75
925.852	7550.75
926.086	7465.75
926.319	7513.75
926.553	7452.75
926.786	7417.75
927.02	7454.75
927.253	7431.75
927.486	7511.75
927.72	7372.75
927.953	7364.75
928.186	7361.75
928.42	7357.75
928.653	7279.75
928.886	7194.75
929.119	7266.75
929.352	7170.75
929.585	7184.75
929.818	7074.75
930.051	7043.75
930.284	7008.75
930.516	6894.75
930.749	6812.75
930.982	6866.75
931.215	6832.75
931.447	6674.75
931.68	6744.75
931.912	6714.75
932.145	6717.75
932.377	6627.75
932.61	6838.75
932.842	6639.75
933.074	6719.75
933.307	6655.75
933.539	6697.75
933.771	6709.75
934.003	6600.75
934.236	6653.75
934.468	6693.75
934.7	6569.75
934.932	6609.75
935.164	6532.75
935.395	6521.75
935.627	6506.75
935.859	6479.75
936.091	6375.75
936.323	6444.75
936.554	6453.75
936.786	6406.75
937.017	6285.75
937.249	6377.75
937.481	6289.75
937.712	6345.75
937.943	6282.75
938.175	6274.75
938.406	6260.75
938.637	6320.75
938.869	6169.75
939.1	6240.75
939.331	6190.75
939.562	6152.75
939.793	6143.75
940.024	6192.75
940.255	6147.75
940.486	6089.75
940.717	6073.75
940.948	6021.75
941.179	5894.75
941.409	5960.75
941.64	5933.75
941.871	5929.75
942.102	5942.75
942.332	5969.75
942.563	5994.75
942.793	5885.75
943.024	5823.75
943.254	5930.75
943.484	5935.75
943.715	5900.75
943.945	5891.75
944.175	5816.75
944.405	5792.75
944.636	5790.75
944.866	5858.75
945.096	5789.75
945.326	5728.75
945.556	5747.75
945.786	5793.75
946.016	5665.75
946.245	5650.75
946.475	5662.75
946.705	5589.75
946.935	5555.75
947.164	5570.75
947.394	5461.75
947.624	5461.75
947.853	5436.75
948.083	5442.75
948.312	5347.75
948.542	5291.75
948.771	5267.75
949	5282.75
949.23	5232.75
949.459	5334.75
949.688	5380.75
949.917	5271.75
950.146	5315.75
950.375	5353.75
950.604	5212.75
950.833	5292.75
951.062	5271.75
951.291	5210.75
951.52	5180.75
951.749	5136.75
951.978	5175.75
952.206	5119.75
952.435	5102.75
952.664	5090.75
952.892	5092.75
953.121	5061.75
953.349	5098.75
953.578	5098.75
953.806	5010.75
954.035	4928.75
954.263	4957.75
954.491	4931.75
954.719	4952.75
954.948	4887.75
955.176	4814.75
955.404	4766.75
955.632	4823.75
955.86	4816.75
956.088	4766.75
956.316	4788.75
956.544	4765.75
956.772	4643.75
956.999	4632.75
957.227	4699.75
957.455	4619.75
957.683	4582.75
957.91	4520.75
958.138	4556.75
958.365	4497.75
958.593	4469.75
958.82	4396.75
959.048	4504.75
959.275	4437.75
959.502	4396.75
959.73	4407.75
959.957	4407.75
960.184	4458.75
960.411	4389.75
960.638	4487.75
960.865	4348.75
961.092	4397.75
961.319	4291.75
961.546	4384.75
961.773	4375.75
962	4333.75
962.227	4371.75
962.454	4356.75
962.68	4286.75
962.907	4278.75
963.134	4225.75
963.36	4237.75
963.587	4222.75
963.813	4150.75
964.04	4187.75
964.266	4092.75
964.493	4173.75
964.719	4105.75
964.945	4107.75
965.171	3989.75
965.398	4073.75
965.624	4007.75
965.85	3962.75
966.076	3979.75
966.302	3934.75
966.528	3884.75
966.754	3929.75
966.98	3931.75
967.206	3910.75
967.431	3831.75
967.657	3885.75
967.883	3889.75
968.109	3852.75
968.334	3783.75
968.56	3765.75
968.785	3797.75
969.011	3785.75
969.236	3785.75
969.462	3747.75
969.687	3714.75
969.912	3743.75
970.138	3780.75
970.363	3689.75
970.588	3703.75
970.813	3662.75
971.038	3659.75
971.263	3656.75
971.488	3664.75
971.713	3645.75
971.938	3654.75
972.163	3537.75
972.388	3601.75
972.613	3539.75
972.838	3589.75
973.062	3514.75
973.287	3486.75
973.512	3391.75
973.736	3469.75
973.961	3418.75
974.185	3428.75
974.41	3434.75
974.634	3340.75
974.858	3329.75
975.083	3383.75
975.307	3341.75
975.531	3321.75
975.755	3221.75
975.98	3244.75
976.204	3181.75
976.428	3181.75
976.652	3167.75
976.876	3131.75
977.1	3198.75
977.324	3115.75
977.547	3181.75
977.771	3198.75
977.995	3117.75
978.219	3071.75
978.442	3153.75
978.666	3109.75
978.89	3080.75
979.113	3090.75
979.337	3105.75
979.56	3056.75
979.783	3098.75
980.007	3013.75
980.23	3035.75
980.453	2965.75
980.677	3002.75
980.9	2958.75
981.123	2917.75
981.346	2953.75
981.569	2926.75
981.792	2961.75
982.015	2887.75
982.238	2859.75
982.461	2866.75
982.684	2856.75
982.907	2853.75
983.129	2816.75
983.352	2772.75
983.575	2777.75
983.797	2764.75
984.02	2770.75
984.242	2764.75
984.465	2721.75
984.687	2739.75
984.91	2783.75
985.132	2717.75
985.354	2763.75
985.577	2723.75
985.799	2650.75
986.021	2632.75
986.243	2610.75
986.465	2653.75
986.687	2663.75
986.909	2688.75
987.131	2651.75
987.353	2596.75
987.575	2584.75
987.797	2590.75
988.019	2519.75
988.241	2552.75
988.462	2519.75
988.684	2560.75
988.906	2599.75
989.127	2588.75
989.349	2523.75
989.57	2537.75
989.792	2532.75
990.013	2582.75
990.234	2517.75
990.456	2576.75
990.677	2567.75
990.898	2482.75
991.119	2490.75
991.341	2489.75
991.562	2419.75
991.783	2495.75
992.004	2360.75
992.225	2345.75
992.446	2394.75
992.667	2299.75
992.887	2382.75
993.108	2319.75
993.329	2409.75
993.55	2311.75
993.77	2283.75
993.991	2264.75
994.212	2291.75
994.432	2293.75
994.653	2266.75
994.873	2252.75
995.093	2152.75
995.314	2169.75
995.534	2279.75
995.754	2249.75
995.975	2280.75
996.195	2161.75
996.415	2216.75
996.635	2157.75
996.855	2204.75
997.075	2164.75
997.295	2176.75
997.515	2129.75
997.735	2183.75
997.955	2112.75
998.174	2154.75
998.394	2083.75
998.614	2178.75
998.834	2129.75
999.053	2159.75
999.273	2143.75
999.492	2158.75
999.712	2119.75
999.931	2067.75
1000.151	2104.75
1000.37	2082.75
1000.589	2114.75
1000.809	2078.75
1001.028	2183.75
1001.247	2053.75
1001.466	1969.75
1001.685	2092.75
1001.904	2052.75
1002.123	2038.75
1002.342	2004.75
1002.561	1936.75
1002.78	1977.75
1002.999	2047.75
1003.218	1971.75
1003.436	1934.75
1003.655	1983.75
1003.874	1915.75
1004.092	1923.75
1004.311	1991.75
1004.53	1933.75
1004.748	2022.75
1004.966	1920.75
1005.185	2002.75
1005.403	1970.75
1005.622	1942.75
1005.84	2018.75
1006.058	1900.75
1006.276	1936.75
1006.494	2412.75
1006.712	1947.75
1006.931	1989.75
1007.149	1895.75
1007.367	1900.75
1007.584	1930.75
1007.802	1939.75
1008.02	1913.75
1008.238	2015.75
1008.456	1977.75
1008.673	1828.75
1008.891	1960.75
1009.109	1933.75
1009.326	1994.75
1009.544	2080.75
1009.761	1974.75
1009.979	2037.75
1010.196	2098.75
1010.413	2183.75
1010.631	2233.75
1010.848	2281.75
1011.065	2276.75
1011.282	2217.75
1011.5	2166.75
1011.717	2268.75
1011.934	2198.75
1012.151	2204.75
1012.368	2204.75
1012.585	2150.75
1012.801	2189.75
1013.018	2151.75
1013.235	2106.75
1013.452	2131.75
1013.669	2139.75
1013.885	2162.75
1014.102	2151.75
1014.318	2132.75
1014.535	2094.75
1014.751	2123.75
1014.968	2095.75
1015.184	2113.75
1015.401	2057.75
1015.617	2068.75
1015.833	1967.75
1016.049	2016.75
1016.266	2018.75
1016.482	1964.75
1016.698	1909.75
1016.914	1940.75
1017.13	1901.75
1017.346	1864.75
1017.562	1966.75
1017.778	1893.75
1017.993	1798.75
1018.209	1864.75
1018.425	1848.75
1018.641	1812.75
1018.856	1821.75
1019.072	1850.75
1019.288	1878.75
1019.503	1856.75
1019.719	1718.75
1019.934	1739.75
1020.149	1813.75
1020.365	1744.75
1020.58	1697.75
1020.795	1723.75
1021.011	1690.75
1021.226	1623.75
1021.441	1661.75
1021.656	1583.75
1021.871	1485.75
1022.086	1521.75
1022.301	1468.75
1022.516	1472.75
1022.731	1509.75
1022.946	1420.75
1023.16	1444.75
1023.375	1404.75
1023.59	1359.75
1023.804	1338.75
1024.019	1401.75
1024.234	1281.75
1024.448	1309.75
1024.663	1243.75
1024.877	1247.75
1025.092	1255.75
1025.306	1261.75
1025.52	1153.75
1025.734	1251.75
1025.949	1147.75
1026.163	1113.75
1026.377	1050.75
1026.591	1083.75
1026.805	1010.75
1027.019	1000.75
1027.233	974.75
1027.447	923.75
1027.661	1016.75
1027.875	936.75
1028.088	957.75
1028.302	879.75
1028.516	828.75
1028.73	851.75
1028.943	847.75
1029.157	787.75
1029.37	744.75
1029.584	-2.25
1029.797	-1.25
1030.011	-1.25
1030.224	-0.25
