Data from QEP037381__227__16-01-19-894.txt Node

Date: Fri Dec 16 16:01:19 EST 2022
User: dcclab
Spectrometer: QEP03738
Trigger mode: 4
Integration Time (sec): 1.000000E1
Scans to average: 1
Electric dark correction enabled: true
Nonlinearity correction enabled: false
Boxcar width: 0
XAxis mode: Wavelengths
Number of Pixels in Spectrum: 1044
>>>>>Begin Spectral Data<<<<<
784.041	14.25
784.3	-2.75
784.558	0.25
784.817	-1.75
785.075	109698.25
785.334	19155.25
785.592	9062.25
785.851	6239.25
786.109	4725.25
786.368	3715.25
786.626	2944.25
786.884	2436.25
787.143	2056.25
787.401	1674.25
787.659	1497.25
787.917	1320.25
788.175	1154.25
788.433	1018.25
788.691	911.25
788.949	863.25
789.207	814.25
789.465	724.25
789.723	692.25
789.98	633.25
790.238	669.25
790.496	626.25
790.753	588.25
791.011	657.25
791.268	565.25
791.526	563.25
791.783	560.25
792.041	547.25
792.298	472.25
792.556	534.25
792.813	509.25
793.07	474.25
793.327	478.25
793.584	544.25
793.841	469.25
794.099	496.25
794.356	557.25
794.613	469.25
794.869	491.25
795.126	458.25
795.383	439.25
795.64	442.25
795.897	428.25
796.153	462.25
796.41	455.25
796.667	433.25
796.923	443.25
797.18	435.25
797.436	464.25
797.693	426.25
797.949	476.25
798.206	526.25
798.462	432.25
798.718	479.25
798.974	469.25
799.231	528.25
799.487	506.25
799.743	516.25
799.999	539.25
800.255	535.25
800.511	535.25
800.767	579.25
801.023	561.25
801.279	616.25
801.534	676.25
801.79	699.25
802.046	726.25
802.302	897.25
802.557	1039.25
802.813	1287.25
803.068	1617.25
803.324	2247.25
803.579	3099.25
803.835	4290.25
804.09	5892.25
804.345	7779.25
804.601	9835.25
804.856	11963.25
805.111	13738.25
805.366	15208.25
805.621	16195.25
805.876	16946.25
806.131	17372.25
806.386	17729.25
806.641	17997.25
806.896	18214.25
807.151	18698.25
807.406	18942.25
807.661	19246.25
807.915	19654.25
808.17	19929.25
808.425	20115.25
808.679	20358.25
808.934	20571.25
809.188	20742.25
809.443	20975.25
809.697	21215.25
809.951	21228.25
810.206	21411.25
810.46	21663.25
810.714	21803.25
810.968	22063.25
811.223	22148.25
811.477	22438.25
811.731	22484.25
811.985	22669.25
812.239	22734.25
812.493	22904.25
812.747	22885.25
813	22929.25
813.254	23151.25
813.508	23119.25
813.762	23395.25
814.015	23380.25
814.269	23671.25
814.522	23681.25
814.776	23920.25
815.03	24270.25
815.283	24634.25
815.536	24978.25
815.79	25332.25
816.043	25706.25
816.296	26071.25
816.55	26378.25
816.803	26641.25
817.056	26974.25
817.309	27350.25
817.562	27549.25
817.815	27771.25
818.068	28030.25
818.321	28268.25
818.574	28572.25
818.827	28935.25
819.079	29201.25
819.332	29730.25
819.585	30067.25
819.838	30362.25
820.09	30654.25
820.343	30872.25
820.595	30949.25
820.848	31160.25
821.1	31218.25
821.353	31236.25
821.605	31297.25
821.857	31291.25
822.11	31050.25
822.362	31031.25
822.614	30903.25
822.866	31045.25
823.118	30888.25
823.37	31076.25
823.622	31248.25
823.874	31232.25
824.126	31321.25
824.378	31281.25
824.63	31398.25
824.882	31596.25
825.134	31533.25
825.385	31387.25
825.637	31311.25
825.888	31308.25
826.14	31163.25
826.392	31085.25
826.643	30953.25
826.895	30722.25
827.146	30711.25
827.397	30523.25
827.649	30674.25
827.9	30537.25
828.151	30493.25
828.402	30622.25
828.653	30633.25
828.905	30763.25
829.156	30932.25
829.407	30827.25
829.658	30894.25
829.909	30748.25
830.159	30700.25
830.41	30705.25
830.661	30358.25
830.912	30330.25
831.162	30156.25
831.413	30035.25
831.664	30140.25
831.914	30106.25
832.165	29902.25
832.415	29935.25
832.666	29939.25
832.916	29985.25
833.167	29808.25
833.417	29873.25
833.667	29853.25
833.917	29615.25
834.168	29574.25
834.418	29500.25
834.668	29440.25
834.918	29162.25
835.168	29135.25
835.418	28951.25
835.668	28868.25
835.918	28868.25
836.167	28792.25
836.417	28702.25
836.667	28629.25
836.917	28523.25
837.166	28606.25
837.416	28542.25
837.666	28597.25
837.915	28529.25
838.165	28389.25
838.414	28285.25
838.663	28235.25
838.913	28218.25
839.162	28140.25
839.411	28098.25
839.661	27882.25
839.91	27874.25
840.159	27796.25
840.408	27704.25
840.657	27795.25
840.906	27674.25
841.155	27864.25
841.404	27677.25
841.653	27753.25
841.902	27713.25
842.15	27823.25
842.399	27851.25
842.648	27691.25
842.897	27709.25
843.145	27430.25
843.394	27209.25
843.642	27056.25
843.891	27033.25
844.139	26788.25
844.388	26614.25
844.636	26481.25
844.884	26608.25
845.133	26522.25
845.381	26489.25
845.629	26395.25
845.877	26356.25
846.125	26395.25
846.373	26333.25
846.621	26202.25
846.869	26173.25
847.117	25938.25
847.365	25844.25
847.613	25750.25
847.861	25674.25
848.108	25613.25
848.356	25529.25
848.604	25388.25
848.851	25442.25
849.099	25545.25
849.346	25555.25
849.594	25632.25
849.841	25642.25
850.089	25779.25
850.336	25599.25
850.583	25609.25
850.831	25491.25
851.078	25295.25
851.325	25288.25
851.572	25392.25
851.819	25093.25
852.066	24686.25
852.313	24484.25
852.56	24166.25
852.807	24089.25
853.054	24042.25
853.301	23987.25
853.548	24016.25
853.794	24153.25
854.041	24187.25
854.288	24166.25
854.534	24464.25
854.781	24378.25
855.028	24235.25
855.274	24139.25
855.52	24095.25
855.767	23884.25
856.013	23861.25
856.26	24224.25
856.506	23669.25
856.752	23699.25
856.998	23624.25
857.244	23699.25
857.49	23773.25
857.736	23884.25
857.982	23858.25
858.228	23758.25
858.474	23654.25
858.72	23424.25
858.966	23104.25
859.212	23071.25
859.458	22758.25
859.703	22506.25
859.949	22253.25
860.195	22170.25
860.44	22109.25
860.686	21983.25
860.931	21980.25
861.177	21745.25
861.422	21688.25
861.667	21768.25
861.913	21681.25
862.158	21638.25
862.403	21677.25
862.648	21588.25
862.893	21832.25
863.138	21727.25
863.384	21619.25
863.629	21682.25
863.873	21579.25
864.118	21496.25
864.363	21468.25
864.608	21309.25
864.853	21390.25
865.098	21114.25
865.342	21132.25
865.587	20981.25
865.832	20959.25
866.076	20908.25
866.321	20856.25
866.565	20703.25
866.81	20647.25
867.054	20588.25
867.298	20434.25
867.543	20481.25
867.787	20495.25
868.031	20259.25
868.275	20357.25
868.519	20250.25
868.764	20272.25
869.008	20124.25
869.252	20071.25
869.496	20034.25
869.739	20092.25
869.983	20011.25
870.227	19956.25
870.471	19902.25
870.715	19932.25
870.958	19940.25
871.202	20052.25
871.446	20151.25
871.689	20024.25
871.933	20101.25
872.176	20020.25
872.42	19992.25
872.663	19953.25
872.906	19883.25
873.15	19750.25
873.393	19668.25
873.636	19707.25
873.879	19472.25
874.122	19223.25
874.366	18920.25
874.609	18903.25
874.852	18668.25
875.095	18568.25
875.337	18574.25
875.58	18392.25
875.823	18456.25
876.066	18405.25
876.309	18319.25
876.551	18165.25
876.794	18024.25
877.037	18161.25
877.279	17987.25
877.522	18012.25
877.764	17967.25
878.007	17940.25
878.249	17936.25
878.491	17940.25
878.734	17952.25
878.976	17769.25
879.218	17636.25
879.46	17650.25
879.702	17523.25
879.945	17383.25
880.187	17106.25
880.429	17137.25
880.671	17004.25
880.912	16928.25
881.154	16852.25
881.396	16795.25
881.638	16887.25
881.88	16820.25
882.121	16784.25
882.363	16691.25
882.605	16684.25
882.846	16707.25
883.088	16715.25
883.329	16449.25
883.571	16591.25
883.812	16626.25
884.053	16803.25
884.295	17004.25
884.536	17204.25
884.777	17020.25
885.018	16931.25
885.259	16997.25
885.5	16901.25
885.742	16893.25
885.982	16825.25
886.223	16647.25
886.464	16590.25
886.705	16379.25
886.946	16251.25
887.187	15987.25
887.428	15877.25
887.668	15588.25
887.909	15506.25
888.15	15349.25
888.39	15285.25
888.631	15226.25
888.871	14989.25
889.111	15030.25
889.352	14838.25
889.592	14781.25
889.833	14577.25
890.073	14409.25
890.313	14512.25
890.553	14336.25
890.793	14350.25
891.033	14218.25
891.273	14051.25
891.513	14043.25
891.753	13992.25
891.993	14066.25
892.233	14091.25
892.473	14078.25
892.713	14159.25
892.952	14067.25
893.192	14021.25
893.432	14050.25
893.671	14013.25
893.911	13847.25
894.15	13825.25
894.39	13752.25
894.629	13581.25
894.869	13588.25
895.108	13426.25
895.347	13318.25
895.587	13394.25
895.826	13352.25
896.065	13303.25
896.304	13300.25
896.543	13261.25
896.782	13084.25
897.021	13101.25
897.26	13122.25
897.499	13172.25
897.738	13141.25
897.977	13027.25
898.216	12813.25
898.454	12725.25
898.693	12641.25
898.932	12618.25
899.17	12516.25
899.409	12500.25
899.647	12497.25
899.886	12494.25
900.124	12446.25
900.363	12342.25
900.601	12499.25
900.839	12435.25
901.078	12483.25
901.316	12491.25
901.554	12559.25
901.792	12599.25
902.03	12565.25
902.268	12480.25
902.506	12542.25
902.744	12423.25
902.982	12288.25
903.22	12156.25
903.458	12075.25
903.695	11921.25
903.933	11800.25
904.171	11543.25
904.409	11399.25
904.646	11396.25
904.884	11110.25
905.121	11023.25
905.359	10954.25
905.596	10790.25
905.833	10743.25
906.071	10719.25
906.308	10664.25
906.545	10654.25
906.783	10519.25
907.02	10571.25
907.257	10497.25
907.494	10436.25
907.731	10400.25
907.968	10385.25
908.205	10199.25
908.442	10272.25
908.679	10214.25
908.915	10128.25
909.152	10031.25
909.389	9810.25
909.626	9903.25
909.862	9787.25
910.099	9761.25
910.335	9731.25
910.572	9627.25
910.808	9611.25
911.045	9657.25
911.281	9548.25
911.518	9628.25
911.754	9527.25
911.99	9421.25
912.226	9406.25
912.463	9253.25
912.699	9205.25
912.935	9123.25
913.171	9067.25
913.407	8937.25
913.643	8968.25
913.879	8891.25
914.114	8811.25
914.35	8702.25
914.586	8590.25
914.822	8469.25
915.057	8501.25
915.293	8350.25
915.529	8268.25
915.764	8422.25
916	8369.25
916.235	8367.25
916.471	8364.25
916.706	8233.25
916.941	8250.25
917.177	8218.25
917.412	8265.25
917.647	8255.25
917.882	8148.25
918.117	8186.25
918.352	8143.25
918.588	8204.25
918.823	8008.25
919.057	7951.25
919.292	7791.25
919.527	7825.25
919.762	7641.25
919.997	7695.25
920.232	7553.25
920.466	7514.25
920.701	7420.25
920.935	7415.25
921.17	7326.25
921.405	7294.25
921.639	7339.25
921.873	7262.25
922.108	7256.25
922.342	7213.25
922.576	7174.25
922.811	7143.25
923.045	7159.25
923.279	7135.25
923.513	6955.25
923.747	7062.25
923.981	6925.25
924.215	6856.25
924.449	6828.25
924.683	6797.25
924.917	6778.25
925.151	6730.25
925.385	6752.25
925.618	6706.25
925.852	6685.25
926.086	6568.25
926.319	6600.25
926.553	6655.25
926.786	6648.25
927.02	6620.25
927.253	6632.25
927.486	6651.25
927.72	6488.25
927.953	6583.25
928.186	6555.25
928.42	6530.25
928.653	6485.25
928.886	6413.25
929.119	6428.25
929.352	6381.25
929.585	6355.25
929.818	6284.25
930.051	6231.25
930.284	6223.25
930.516	6140.25
930.749	6065.25
930.982	6102.25
931.215	6054.25
931.447	5924.25
931.68	5982.25
931.912	5952.25
932.145	5947.25
932.377	5983.25
932.61	6113.25
932.842	5863.25
933.074	5970.25
933.307	5860.25
933.539	5941.25
933.771	5942.25
934.003	5896.25
934.236	5915.25
934.468	6001.25
934.7	5885.25
934.932	5898.25
935.164	5774.25
935.395	5789.25
935.627	5834.25
935.859	5805.25
936.091	5721.25
936.323	5726.25
936.554	5757.25
936.786	5693.25
937.017	5605.25
937.249	5661.25
937.481	5575.25
937.712	5624.25
937.943	5626.25
938.175	5544.25
938.406	5527.25
938.637	5596.25
938.869	5503.25
939.1	5564.25
939.331	5440.25
939.562	5481.25
939.793	5455.25
940.024	5460.25
940.255	5468.25
940.486	5345.25
940.717	5402.25
940.948	5303.25
941.179	5270.25
941.409	5243.25
941.64	5288.25
941.871	5286.25
942.102	5278.25
942.332	5304.25
942.563	5342.25
942.793	5262.25
943.024	5199.25
943.254	5245.25
943.484	5290.25
943.715	5253.25
943.945	5246.25
944.175	5180.25
944.405	5162.25
944.636	5130.25
944.866	5223.25
945.096	5194.25
945.326	5108.25
945.556	5148.25
945.786	5146.25
946.016	5098.25
946.245	4978.25
946.475	4993.25
946.705	4964.25
946.935	4978.25
947.164	4937.25
947.394	4842.25
947.624	4887.25
947.853	4899.25
948.083	4841.25
948.312	4846.25
948.542	4721.25
948.771	4716.25
949	4750.25
949.23	4713.25
949.459	4760.25
949.688	4798.25
949.917	4727.25
950.146	4713.25
950.375	4790.25
950.604	4689.25
950.833	4701.25
951.062	4726.25
951.291	4656.25
951.52	4595.25
951.749	4671.25
951.978	4593.25
952.206	4533.25
952.435	4576.25
952.664	4555.25
952.892	4603.25
953.121	4527.25
953.349	4538.25
953.578	4504.25
953.806	4454.25
954.035	4421.25
954.263	4399.25
954.491	4369.25
954.719	4375.25
954.948	4332.25
955.176	4325.25
955.404	4267.25
955.632	4326.25
955.86	4270.25
956.088	4261.25
956.316	4239.25
956.544	4223.25
956.772	4208.25
956.999	4132.25
957.227	4218.25
957.455	4088.25
957.683	4107.25
957.91	4115.25
958.138	4014.25
958.365	4013.25
958.593	3994.25
958.82	3947.25
959.048	3992.25
959.275	3978.25
959.502	3929.25
959.73	3947.25
959.957	3947.25
960.184	3983.25
960.411	3954.25
960.638	4007.25
960.865	3881.25
961.092	3966.25
961.319	3861.25
961.546	3940.25
961.773	3921.25
962	3849.25
962.227	3913.25
962.454	3914.25
962.68	3876.25
962.907	3814.25
963.134	3759.25
963.36	3775.25
963.587	3819.25
963.813	3703.25
964.04	3729.25
964.266	3663.25
964.493	3725.25
964.719	3667.25
964.945	3715.25
965.171	3542.25
965.398	3657.25
965.624	3627.25
965.85	3547.25
966.076	3537.25
966.302	3559.25
966.528	3484.25
966.754	3515.25
966.98	3489.25
967.206	3516.25
967.431	3417.25
967.657	3483.25
967.883	3481.25
968.109	3452.25
968.334	3372.25
968.56	3395.25
968.785	3414.25
969.011	3331.25
969.236	3422.25
969.462	3371.25
969.687	3355.25
969.912	3347.25
970.138	3406.25
970.363	3320.25
970.588	3322.25
970.813	3331.25
971.038	3318.25
971.263	3301.25
971.488	3272.25
971.713	3323.25
971.938	3266.25
972.163	3171.25
972.388	3220.25
972.613	3162.25
972.838	3183.25
973.062	3171.25
973.287	3121.25
973.512	3080.25
973.736	3091.25
973.961	3076.25
974.185	3071.25
974.41	3060.25
974.634	2978.25
974.858	3015.25
975.083	3012.25
975.307	3046.25
975.531	2934.25
975.755	2918.25
975.98	2877.25
976.204	2811.25
976.428	2853.25
976.652	2862.25
976.876	2808.25
977.1	2839.25
977.324	2818.25
977.547	2835.25
977.771	2885.25
977.995	2808.25
978.219	2774.25
978.442	2856.25
978.666	2850.25
978.89	2765.25
979.113	2784.25
979.337	2779.25
979.56	2696.25
979.783	2837.25
980.007	2723.25
980.23	2698.25
980.453	2667.25
980.677	2713.25
980.9	2696.25
981.123	2623.25
981.346	2677.25
981.569	2648.25
981.792	2637.25
982.015	2624.25
982.238	2561.25
982.461	2602.25
982.684	2569.25
982.907	2529.25
983.129	2482.25
983.352	2567.25
983.575	2550.25
983.797	2554.25
984.02	2452.25
984.242	2485.25
984.465	2488.25
984.687	2477.25
984.91	2500.25
985.132	2502.25
985.354	2496.25
985.577	2459.25
985.799	2414.25
986.021	2343.25
986.243	2362.25
986.465	2389.25
986.687	2374.25
986.909	2436.25
987.131	2371.25
987.353	2337.25
987.575	2334.25
987.797	2323.25
988.019	2266.25
988.241	2319.25
988.462	2274.25
988.684	2328.25
988.906	2366.25
989.127	2365.25
989.349	2283.25
989.57	2264.25
989.792	2302.25
990.013	2306.25
990.234	2322.25
990.456	2329.25
990.677	2351.25
990.898	2222.25
991.119	2247.25
991.341	2271.25
991.562	2179.25
991.783	2256.25
992.004	2141.25
992.225	2161.25
992.446	2174.25
992.667	2072.25
992.887	2174.25
993.108	2077.25
993.329	2207.25
993.55	2136.25
993.77	2045.25
993.991	2060.25
994.212	2094.25
994.432	2061.25
994.653	2087.25
994.873	2083.25
995.093	1949.25
995.314	1984.25
995.534	2074.25
995.754	2068.25
995.975	2088.25
996.195	1954.25
996.415	2021.25
996.635	2000.25
996.855	1998.25
997.075	1975.25
997.295	1991.25
997.515	1960.25
997.735	2041.25
997.955	1959.25
998.174	1968.25
998.394	1944.25
998.614	1997.25
998.834	1942.25
999.053	1975.25
999.273	1947.25
999.492	2008.25
999.712	1926.25
999.931	1906.25
1000.151	1942.25
1000.37	1921.25
1000.589	1970.25
1000.809	1868.25
1001.028	2004.25
1001.247	1903.25
1001.466	1809.25
1001.685	1972.25
1001.904	1866.25
1002.123	1869.25
1002.342	1891.25
1002.561	1791.25
1002.78	1832.25
1002.999	1887.25
1003.218	1826.25
1003.436	1793.25
1003.655	1828.25
1003.874	1794.25
1004.092	1793.25
1004.311	1824.25
1004.53	1819.25
1004.748	1869.25
1004.966	1781.25
1005.185	1859.25
1005.403	1803.25
1005.622	1790.25
1005.84	1875.25
1006.058	1774.25
1006.276	1767.25
1006.494	2289.25
1006.712	1793.25
1006.931	1854.25
1007.149	1754.25
1007.367	1784.25
1007.584	1798.25
1007.802	1829.25
1008.02	1780.25
1008.238	1873.25
1008.456	1859.25
1008.673	1743.25
1008.891	1849.25
1009.109	1804.25
1009.326	1781.25
1009.544	1929.25
1009.761	1835.25
1009.979	1907.25
1010.196	1950.25
1010.413	2049.25
1010.631	2076.25
1010.848	2142.25
1011.065	2129.25
1011.282	2051.25
1011.5	1986.25
1011.717	2099.25
1011.934	2062.25
1012.151	2053.25
1012.368	2070.25
1012.585	1978.25
1012.801	2021.25
1013.018	2011.25
1013.235	1996.25
1013.452	1986.25
1013.669	2012.25
1013.885	1980.25
1014.102	2058.25
1014.318	1977.25
1014.535	1932.25
1014.751	1976.25
1014.968	2000.25
1015.184	1998.25
1015.401	1893.25
1015.617	1924.25
1015.833	1859.25
1016.049	1881.25
1016.266	1858.25
1016.482	1860.25
1016.698	1770.25
1016.914	1827.25
1017.13	1768.25
1017.346	1756.25
1017.562	1836.25
1017.778	1750.25
1017.993	1707.25
1018.209	1766.25
1018.425	1778.25
1018.641	1698.25
1018.856	1676.25
1019.072	1722.25
1019.288	1754.25
1019.503	1736.25
1019.719	1639.25
1019.934	1649.25
1020.149	1719.25
1020.365	1661.25
1020.58	1637.25
1020.795	1624.25
1021.011	1585.25
1021.226	1531.25
1021.441	1566.25
1021.656	1471.25
1021.871	1400.25
1022.086	1411.25
1022.301	1387.25
1022.516	1371.25
1022.731	1431.25
1022.946	1357.25
1023.16	1309.25
1023.375	1275.25
1023.59	1283.25
1023.804	1228.25
1024.019	1328.25
1024.234	1198.25
1024.448	1231.25
1024.663	1145.25
1024.877	1175.25
1025.092	1183.25
1025.306	1166.25
1025.52	1083.25
1025.734	1159.25
1025.949	1078.25
1026.163	1043.25
1026.377	963.25
1026.591	1049.25
1026.805	952.25
1027.019	950.25
1027.233	913.25
1027.447	850.25
1027.661	958.25
1027.875	896.25
1028.088	874.25
1028.302	825.25
1028.516	815.25
1028.73	796.25
1028.943	817.25
1029.157	737.25
1029.37	705.25
1029.584	-2.75
1029.797	-3.75
1030.011	-1.75
1030.224	-1.75
