Data from QEP037381__217__15-59-39-894.txt Node

Date: Fri Dec 16 15:59:39 EST 2022
User: dcclab
Spectrometer: QEP03738
Trigger mode: 4
Integration Time (sec): 1.000000E1
Scans to average: 1
Electric dark correction enabled: true
Nonlinearity correction enabled: false
Boxcar width: 0
XAxis mode: Wavelengths
Number of Pixels in Spectrum: 1044
>>>>>Begin Spectral Data<<<<<
784.041	18.75
784.3	-1.25
784.558	-3.25
784.817	-4.25
785.075	112263.75
785.334	19854.75
785.592	9408.75
785.851	6536.75
786.109	4905.75
786.368	3833.75
786.626	3086.75
786.884	2581.75
787.143	2104.75
787.401	1777.75
787.659	1587.75
787.917	1351.75
788.175	1221.75
788.433	1084.75
788.691	986.75
788.949	898.75
789.207	871.75
789.465	753.75
789.723	697.75
789.98	661.75
790.238	670.75
790.496	645.75
790.753	609.75
791.011	656.75
791.268	611.75
791.526	575.75
791.783	604.75
792.041	571.75
792.298	503.75
792.556	559.75
792.813	528.75
793.07	505.75
793.327	504.75
793.584	571.75
793.841	505.75
794.099	509.75
794.356	564.75
794.613	490.75
794.869	518.75
795.126	489.75
795.383	460.75
795.64	488.75
795.897	429.75
796.153	487.75
796.41	497.75
796.667	458.75
796.923	472.75
797.18	469.75
797.436	508.75
797.693	471.75
797.949	536.75
798.206	560.75
798.462	466.75
798.718	535.75
798.974	510.75
799.231	549.75
799.487	552.75
799.743	567.75
799.999	596.75
800.255	590.75
800.511	594.75
800.767	650.75
801.023	633.75
801.279	700.75
801.534	725.75
801.79	820.75
802.046	869.75
802.302	1067.75
802.557	1246.75
802.813	1571.75
803.068	2019.75
803.324	2847.75
803.579	3950.75
803.835	5610.75
804.09	7786.75
804.345	10317.75
804.601	13109.75
804.856	15904.75
805.111	18547.75
805.366	20479.75
805.621	21950.75
805.876	23029.75
806.131	23642.75
806.386	24074.75
806.641	24501.75
806.896	24940.75
807.151	25491.75
807.406	25701.75
807.661	26353.75
807.915	26714.75
808.17	27275.75
808.425	27580.75
808.679	27820.75
808.934	28094.75
809.188	28504.75
809.443	28587.75
809.697	28968.75
809.951	29133.75
810.206	29317.75
810.46	29719.75
810.714	29925.75
810.968	30212.75
811.223	30508.75
811.477	30746.75
811.731	31038.75
811.985	31151.75
812.239	31222.75
812.493	31442.75
812.747	31632.75
813	31745.75
813.254	31767.75
813.508	31949.75
813.762	32019.75
814.015	32224.75
814.269	32542.75
814.522	32736.75
814.776	33212.75
815.03	33681.75
815.283	33980.75
815.536	34491.75
815.79	35093.75
816.043	35580.75
816.296	36202.75
816.55	36571.75
816.803	36921.75
817.056	37446.75
817.309	37717.75
817.562	38037.75
817.815	38409.75
818.068	38749.75
818.321	39187.75
818.574	39711.75
818.827	40225.75
819.079	40599.75
819.332	41213.75
819.585	41710.75
819.838	42230.75
820.09	42470.75
820.343	42944.75
820.595	43060.75
820.848	43313.75
821.1	43611.75
821.353	43529.75
821.605	43366.75
821.857	43582.75
822.11	43371.75
822.362	43233.75
822.614	43010.75
822.866	43219.75
823.118	42992.75
823.37	43190.75
823.622	43258.75
823.874	43334.75
824.126	43531.75
824.378	43539.75
824.63	43766.75
824.882	43836.75
825.134	43745.75
825.385	43618.75
825.637	43648.75
825.888	43479.75
826.14	43439.75
826.392	43312.75
826.643	42910.75
826.895	42783.75
827.146	42704.75
827.397	42674.75
827.649	42425.75
827.9	42569.75
828.151	42396.75
828.402	42726.75
828.653	42782.75
828.905	43055.75
829.156	42875.75
829.407	42945.75
829.658	42744.75
829.909	42674.75
830.159	42655.75
830.41	42444.75
830.661	42369.75
830.912	41982.75
831.162	41878.75
831.413	41690.75
831.664	41780.75
831.914	41667.75
832.165	41644.75
832.415	41564.75
832.666	41658.75
832.916	41505.75
833.167	41553.75
833.417	41555.75
833.667	41275.75
833.917	41126.75
834.168	41171.75
834.418	40942.75
834.668	40857.75
834.918	40568.75
835.168	40376.75
835.418	40277.75
835.668	40117.75
835.918	40141.75
836.167	40058.75
836.417	39803.75
836.667	39959.75
836.917	39833.75
837.166	39571.75
837.416	39713.75
837.666	39543.75
837.915	39346.75
838.165	39484.75
838.414	39303.75
838.663	39145.75
838.913	39076.75
839.162	38996.75
839.411	38803.75
839.661	38677.75
839.91	38638.75
840.159	38459.75
840.408	38458.75
840.657	38380.75
840.906	38416.75
841.155	38262.75
841.404	38203.75
841.653	38411.75
841.902	38352.75
842.15	38412.75
842.399	38418.75
842.648	38219.75
842.897	38378.75
843.145	37934.75
843.394	37662.75
843.642	37499.75
843.891	37256.75
844.139	37037.75
844.388	36954.75
844.636	36829.75
844.884	36827.75
845.133	36501.75
845.381	36490.75
845.629	36640.75
845.877	36507.75
846.125	36392.75
846.373	36309.75
846.621	36040.75
846.869	36054.75
847.117	35857.75
847.365	35606.75
847.613	35399.75
847.861	35318.75
848.108	35276.75
848.356	35025.75
848.604	35093.75
848.851	35035.75
849.099	35189.75
849.346	35271.75
849.594	35373.75
849.841	35449.75
850.089	35511.75
850.336	35323.75
850.583	35419.75
850.831	35143.75
851.078	34912.75
851.325	34851.75
851.572	34755.75
851.819	34467.75
852.066	33902.75
852.313	33466.75
852.56	33177.75
852.807	33210.75
853.054	33140.75
853.301	33027.75
853.548	32919.75
853.794	33093.75
854.041	33130.75
854.288	33238.75
854.534	33560.75
854.781	33439.75
855.028	33376.75
855.274	33135.75
855.52	33001.75
855.767	32703.75
856.013	32750.75
856.26	32997.75
856.506	32480.75
856.752	32306.75
856.998	32303.75
857.244	32557.75
857.49	32504.75
857.736	32667.75
857.982	32543.75
858.228	32472.75
858.474	32325.75
858.72	31955.75
858.966	31732.75
859.212	31448.75
859.458	31238.75
859.703	30841.75
859.949	30507.75
860.195	30312.75
860.44	30094.75
860.686	30008.75
860.931	29850.75
861.177	29762.75
861.422	29613.75
861.667	29510.75
861.913	29627.75
862.158	29722.75
862.403	29683.75
862.648	29770.75
862.893	29875.75
863.138	29670.75
863.384	29726.75
863.629	29580.75
863.873	29558.75
864.118	29459.75
864.363	29333.75
864.608	29155.75
864.853	29027.75
865.098	28975.75
865.342	28853.75
865.587	28646.75
865.832	28679.75
866.076	28515.75
866.321	28345.75
866.565	28275.75
866.81	28126.75
867.054	28035.75
867.298	27935.75
867.543	27862.75
867.787	27924.75
868.031	27724.75
868.275	27580.75
868.519	27479.75
868.764	27464.75
869.008	27433.75
869.252	27287.75
869.496	27192.75
869.739	27045.75
869.983	27182.75
870.227	26982.75
870.471	26947.75
870.715	26959.75
870.958	27054.75
871.202	27089.75
871.446	27170.75
871.689	27074.75
871.933	27044.75
872.176	27079.75
872.42	26872.75
872.663	26869.75
872.906	26674.75
873.15	26596.75
873.393	26544.75
873.636	26523.75
873.879	26211.75
874.122	26006.75
874.366	25638.75
874.609	25410.75
874.852	25183.75
875.095	25109.75
875.337	25092.75
875.58	24803.75
875.823	24621.75
876.066	24802.75
876.309	24647.75
876.551	24580.75
876.794	24356.75
877.037	24296.75
877.279	24197.75
877.522	24198.75
877.764	24278.75
878.007	24273.75
878.249	24162.75
878.491	24108.75
878.734	24134.75
878.976	24087.75
879.218	23920.75
879.46	23814.75
879.702	23600.75
879.945	23394.75
880.187	23188.75
880.429	23096.75
880.671	22810.75
880.912	22903.75
881.154	22821.75
881.396	22620.75
881.638	22710.75
881.88	22653.75
882.121	22658.75
882.363	22546.75
882.605	22571.75
882.846	22406.75
883.088	22400.75
883.329	22351.75
883.571	22263.75
883.812	22112.75
884.053	22367.75
884.295	22643.75
884.536	22738.75
884.777	22641.75
885.018	22468.75
885.259	22428.75
885.5	22349.75
885.742	22364.75
885.982	22302.75
886.223	22036.75
886.464	21988.75
886.705	21802.75
886.946	21722.75
887.187	21406.75
887.428	21223.75
887.668	21017.75
887.909	20832.75
888.15	20542.75
888.39	20505.75
888.631	20439.75
888.871	20208.75
889.111	19976.75
889.352	19968.75
889.592	19848.75
889.833	19674.75
890.073	19480.75
890.313	19506.75
890.553	19132.75
890.793	19231.75
891.033	19046.75
891.273	18960.75
891.513	18941.75
891.753	18880.75
891.993	18847.75
892.233	18803.75
892.473	18948.75
892.713	18916.75
892.952	18928.75
893.192	18966.75
893.432	18790.75
893.671	18770.75
893.911	18611.75
894.15	18589.75
894.39	18359.75
894.629	18323.75
894.869	18187.75
895.108	18070.75
895.347	17915.75
895.587	17983.75
895.826	17820.75
896.065	17743.75
896.304	17810.75
896.543	17786.75
896.782	17659.75
897.021	17634.75
897.26	17495.75
897.499	17575.75
897.738	17446.75
897.977	17202.75
898.216	17144.75
898.454	16927.75
898.693	16865.75
898.932	16890.75
899.17	16653.75
899.409	16661.75
899.647	16587.75
899.886	16532.75
900.124	16589.75
900.363	16486.75
900.601	16581.75
900.839	16485.75
901.078	16551.75
901.316	16599.75
901.554	16564.75
901.792	16561.75
902.03	16493.75
902.268	16491.75
902.506	16493.75
902.744	16490.75
902.982	16320.75
903.22	16113.75
903.458	16016.75
903.695	15731.75
903.933	15636.75
904.171	15274.75
904.409	15192.75
904.646	14983.75
904.884	14707.75
905.121	14705.75
905.359	14487.75
905.596	14297.75
905.833	14258.75
906.071	14178.75
906.308	14220.75
906.545	14159.75
906.783	14116.75
907.02	13974.75
907.257	13911.75
907.494	13948.75
907.731	13917.75
907.968	13792.75
908.205	13708.75
908.442	13638.75
908.679	13477.75
908.915	13427.75
909.152	13316.75
909.389	13115.75
909.626	13094.75
909.862	13009.75
910.099	12947.75
910.335	12954.75
910.572	12838.75
910.808	12830.75
911.045	12759.75
911.281	12676.75
911.518	12652.75
911.754	12582.75
911.99	12448.75
912.226	12382.75
912.463	12254.75
912.699	12160.75
912.935	12155.75
913.171	12075.75
913.407	11896.75
913.643	11870.75
913.879	11740.75
914.114	11603.75
914.35	11490.75
914.586	11394.75
914.822	11314.75
915.057	11244.75
915.293	11123.75
915.529	11066.75
915.764	11091.75
916	11019.75
916.235	11035.75
916.471	11037.75
916.706	10883.75
916.941	10889.75
917.177	10840.75
917.412	10915.75
917.647	10849.75
917.882	10798.75
918.117	10792.75
918.352	10697.75
918.588	10708.75
918.823	10659.75
919.057	10504.75
919.292	10331.75
919.527	10344.75
919.762	10142.75
919.997	10090.75
920.232	9968.75
920.466	9948.75
920.701	9710.75
920.935	9757.75
921.17	9651.75
921.405	9571.75
921.639	9605.75
921.873	9521.75
922.108	9524.75
922.342	9575.75
922.576	9409.75
922.811	9362.75
923.045	9396.75
923.279	9392.75
923.513	9232.75
923.747	9244.75
923.981	9184.75
924.215	9108.75
924.449	9058.75
924.683	8933.75
924.917	8856.75
925.151	8861.75
925.385	8902.75
925.618	8868.75
925.852	8837.75
926.086	8714.75
926.319	8751.75
926.553	8740.75
926.786	8712.75
927.02	8607.75
927.253	8724.75
927.486	8660.75
927.72	8555.75
927.953	8634.75
928.186	8575.75
928.42	8590.75
928.653	8463.75
928.886	8455.75
929.119	8439.75
929.352	8413.75
929.585	8348.75
929.818	8230.75
930.051	8208.75
930.284	8152.75
930.516	8023.75
930.749	7942.75
930.982	7923.75
931.215	7911.75
931.447	7807.75
931.68	7805.75
931.912	7761.75
932.145	7730.75
932.377	7832.75
932.61	7923.75
932.842	7681.75
933.074	7754.75
933.307	7645.75
933.539	7770.75
933.771	7742.75
934.003	7718.75
934.236	7754.75
934.468	7762.75
934.7	7625.75
934.932	7705.75
935.164	7626.75
935.395	7598.75
935.627	7564.75
935.859	7538.75
936.091	7454.75
936.323	7488.75
936.554	7515.75
936.786	7455.75
937.017	7284.75
937.249	7279.75
937.481	7232.75
937.712	7313.75
937.943	7291.75
938.175	7262.75
938.406	7232.75
938.637	7244.75
938.869	7164.75
939.1	7221.75
939.331	7138.75
939.562	7177.75
939.793	7094.75
940.024	7109.75
940.255	7064.75
940.486	7025.75
940.717	7001.75
940.948	6968.75
941.179	6919.75
941.409	6900.75
941.64	6864.75
941.871	6891.75
942.102	6810.75
942.332	6840.75
942.563	6931.75
942.793	6864.75
943.024	6818.75
943.254	6836.75
943.484	6839.75
943.715	6814.75
943.945	6850.75
944.175	6727.75
944.405	6736.75
944.636	6750.75
944.866	6760.75
945.096	6732.75
945.326	6627.75
945.556	6711.75
945.786	6686.75
946.016	6617.75
946.245	6484.75
946.475	6456.75
946.705	6426.75
946.935	6428.75
947.164	6376.75
947.394	6331.75
947.624	6307.75
947.853	6342.75
948.083	6286.75
948.312	6237.75
948.542	6171.75
948.771	6135.75
949	6088.75
949.23	6147.75
949.459	6129.75
949.688	6135.75
949.917	6116.75
950.146	6151.75
950.375	6147.75
950.604	6058.75
950.833	6100.75
951.062	6063.75
951.291	6025.75
951.52	5952.75
951.749	5985.75
951.978	5898.75
952.206	5927.75
952.435	5914.75
952.664	5978.75
952.892	5873.75
953.121	5848.75
953.349	5866.75
953.578	5791.75
953.806	5786.75
954.035	5728.75
954.263	5665.75
954.491	5584.75
954.719	5620.75
954.948	5661.75
955.176	5560.75
955.404	5483.75
955.632	5569.75
955.86	5555.75
956.088	5540.75
956.316	5544.75
956.544	5481.75
956.772	5385.75
956.999	5349.75
957.227	5403.75
957.455	5332.75
957.683	5322.75
957.91	5251.75
958.138	5225.75
958.365	5169.75
958.593	5189.75
958.82	5125.75
959.048	5175.75
959.275	5127.75
959.502	5093.75
959.73	5068.75
959.957	5102.75
960.184	5182.75
960.411	4990.75
960.638	5108.75
960.865	5005.75
961.092	5109.75
961.319	4946.75
961.546	5011.75
961.773	5045.75
962	4968.75
962.227	5031.75
962.454	4985.75
962.68	4939.75
962.907	4997.75
963.134	4877.75
963.36	4865.75
963.587	4861.75
963.813	4720.75
964.04	4782.75
964.266	4698.75
964.493	4788.75
964.719	4727.75
964.945	4716.75
965.171	4531.75
965.398	4659.75
965.624	4652.75
965.85	4487.75
966.076	4511.75
966.302	4548.75
966.528	4510.75
966.754	4502.75
966.98	4497.75
967.206	4495.75
967.431	4366.75
967.657	4487.75
967.883	4429.75
968.109	4399.75
968.334	4343.75
968.56	4312.75
968.785	4367.75
969.011	4321.75
969.236	4338.75
969.462	4234.75
969.687	4254.75
969.912	4304.75
970.138	4332.75
970.363	4247.75
970.588	4241.75
970.813	4192.75
971.038	4187.75
971.263	4199.75
971.488	4154.75
971.713	4140.75
971.938	4160.75
972.163	4051.75
972.388	4069.75
972.613	4035.75
972.838	4051.75
973.062	4051.75
973.287	4008.75
973.512	3958.75
973.736	3982.75
973.961	3950.75
974.185	3870.75
974.41	3891.75
974.634	3823.75
974.858	3775.75
975.083	3822.75
975.307	3829.75
975.531	3765.75
975.755	3670.75
975.98	3682.75
976.204	3624.75
976.428	3592.75
976.652	3626.75
976.876	3578.75
977.1	3590.75
977.324	3565.75
977.547	3627.75
977.771	3603.75
977.995	3556.75
978.219	3519.75
978.442	3593.75
978.666	3540.75
978.89	3527.75
979.113	3513.75
979.337	3532.75
979.56	3447.75
979.783	3526.75
980.007	3400.75
980.23	3424.75
980.453	3370.75
980.677	3390.75
980.9	3386.75
981.123	3264.75
981.346	3377.75
981.569	3340.75
981.792	3310.75
982.015	3296.75
982.238	3233.75
982.461	3274.75
982.684	3162.75
982.907	3175.75
983.129	3212.75
983.352	3222.75
983.575	3179.75
983.797	3184.75
984.02	3111.75
984.242	3102.75
984.465	3096.75
984.687	3101.75
984.91	3083.75
985.132	3086.75
985.354	3074.75
985.577	3092.75
985.799	3010.75
986.021	2923.75
986.243	2939.75
986.465	3014.75
986.687	3008.75
986.909	3053.75
987.131	2991.75
987.353	2920.75
987.575	2955.75
987.797	2898.75
988.019	2851.75
988.241	2886.75
988.462	2849.75
988.684	2899.75
988.906	2877.75
989.127	2898.75
989.349	2770.75
989.57	2832.75
989.792	2876.75
990.013	2912.75
990.234	2869.75
990.456	2864.75
990.677	2823.75
990.898	2786.75
991.119	2798.75
991.341	2764.75
991.562	2665.75
991.783	2753.75
992.004	2701.75
992.225	2681.75
992.446	2644.75
992.667	2581.75
992.887	2685.75
993.108	2573.75
993.329	2678.75
993.55	2619.75
993.77	2527.75
993.991	2546.75
994.212	2549.75
994.432	2552.75
994.653	2575.75
994.873	2534.75
995.093	2404.75
995.314	2430.75
995.534	2549.75
995.754	2496.75
995.975	2551.75
996.195	2404.75
996.415	2463.75
996.635	2461.75
996.855	2480.75
997.075	2425.75
997.295	2372.75
997.515	2352.75
997.735	2422.75
997.955	2406.75
998.174	2358.75
998.394	2389.75
998.614	2436.75
998.834	2324.75
999.053	2430.75
999.273	2366.75
999.492	2403.75
999.712	2353.75
999.931	2277.75
1000.151	2352.75
1000.37	2316.75
1000.589	2382.75
1000.809	2256.75
1001.028	2376.75
1001.247	2290.75
1001.466	2158.75
1001.685	2296.75
1001.904	2273.75
1002.123	2241.75
1002.342	2243.75
1002.561	2151.75
1002.78	2226.75
1002.999	2248.75
1003.218	2152.75
1003.436	2139.75
1003.655	2199.75
1003.874	2116.75
1004.092	2135.75
1004.311	2152.75
1004.53	2113.75
1004.748	2214.75
1004.966	2116.75
1005.185	2190.75
1005.403	2149.75
1005.622	2138.75
1005.84	2182.75
1006.058	2057.75
1006.276	2093.75
1006.494	2605.75
1006.712	2086.75
1006.931	2164.75
1007.149	2079.75
1007.367	2069.75
1007.584	2088.75
1007.802	2142.75
1008.02	2062.75
1008.238	2198.75
1008.456	2159.75
1008.673	2029.75
1008.891	2123.75
1009.109	2093.75
1009.326	2130.75
1009.544	2226.75
1009.761	2161.75
1009.979	2207.75
1010.196	2208.75
1010.413	2318.75
1010.631	2374.75
1010.848	2417.75
1011.065	2420.75
1011.282	2347.75
1011.5	2280.75
1011.717	2381.75
1011.934	2307.75
1012.151	2350.75
1012.368	2285.75
1012.585	2275.75
1012.801	2319.75
1013.018	2284.75
1013.235	2261.75
1013.452	2265.75
1013.669	2273.75
1013.885	2270.75
1014.102	2290.75
1014.318	2246.75
1014.535	2197.75
1014.751	2234.75
1014.968	2236.75
1015.184	2245.75
1015.401	2138.75
1015.617	2170.75
1015.833	2114.75
1016.049	2093.75
1016.266	2097.75
1016.482	2070.75
1016.698	1995.75
1016.914	2052.75
1017.13	1995.75
1017.346	1993.75
1017.562	2047.75
1017.778	1933.75
1017.993	1928.75
1018.209	1988.75
1018.425	1948.75
1018.641	1930.75
1018.856	1884.75
1019.072	1953.75
1019.288	1980.75
1019.503	1919.75
1019.719	1873.75
1019.934	1852.75
1020.149	1942.75
1020.365	1839.75
1020.58	1805.75
1020.795	1851.75
1021.011	1781.75
1021.226	1765.75
1021.441	1759.75
1021.656	1674.75
1021.871	1606.75
1022.086	1596.75
1022.301	1585.75
1022.516	1586.75
1022.731	1610.75
1022.946	1519.75
1023.16	1506.75
1023.375	1471.75
1023.59	1437.75
1023.804	1409.75
1024.019	1486.75
1024.234	1370.75
1024.448	1388.75
1024.663	1318.75
1024.877	1317.75
1025.092	1330.75
1025.306	1335.75
1025.52	1235.75
1025.734	1324.75
1025.949	1230.75
1026.163	1173.75
1026.377	1130.75
1026.591	1173.75
1026.805	1099.75
1027.019	1100.75
1027.233	1037.75
1027.447	985.75
1027.661	1070.75
1027.875	994.75
1028.088	1033.75
1028.302	948.75
1028.516	918.75
1028.73	913.75
1028.943	887.75
1029.157	814.75
1029.37	770.75
1029.584	-5.25
1029.797	0.75
1030.011	-2.25
1030.224	-3.25
