Data from QEP037381__232__16-02-09-895.txt Node

Date: Fri Dec 16 16:02:09 EST 2022
User: dcclab
Spectrometer: QEP03738
Trigger mode: 4
Integration Time (sec): 1.000000E1
Scans to average: 1
Electric dark correction enabled: true
Nonlinearity correction enabled: false
Boxcar width: 0
XAxis mode: Wavelengths
Number of Pixels in Spectrum: 1044
>>>>>Begin Spectral Data<<<<<
784.041	8.12
784.3	-0.88
784.558	-2.88
784.817	-2.88
785.075	110363.12
785.334	19365.12
785.592	9141.12
785.851	6353.12
786.109	4767.12
786.368	3703.12
786.626	3007.12
786.884	2468.12
787.143	2059.12
787.401	1704.12
787.659	1512.12
787.917	1320.12
788.175	1185.12
788.433	1043.12
788.691	931.12
788.949	866.12
789.207	817.12
789.465	699.12
789.723	702.12
789.98	634.12
790.238	656.12
790.496	609.12
790.753	599.12
791.011	630.12
791.268	558.12
791.526	550.12
791.783	563.12
792.041	549.12
792.298	467.12
792.556	523.12
792.813	509.12
793.07	479.12
793.327	474.12
793.584	547.12
793.841	477.12
794.099	481.12
794.356	560.12
794.613	443.12
794.869	481.12
795.126	443.12
795.383	430.12
795.64	443.12
795.897	388.12
796.153	457.12
796.41	444.12
796.667	419.12
796.923	427.12
797.18	428.12
797.436	460.12
797.693	420.12
797.949	471.12
798.206	495.12
798.462	415.12
798.718	490.12
798.974	458.12
799.231	510.12
799.487	488.12
799.743	509.12
799.999	526.12
800.255	518.12
800.511	490.12
800.767	548.12
801.023	543.12
801.279	567.12
801.534	625.12
801.79	679.12
802.046	693.12
802.302	830.12
802.557	946.12
802.813	1183.12
803.068	1460.12
803.324	2022.12
803.579	2739.12
803.835	3819.12
804.09	5176.12
804.345	6795.12
804.601	8550.12
804.856	10354.12
805.111	11940.12
805.366	13296.12
805.621	14105.12
805.876	14787.12
806.131	15228.12
806.386	15500.12
806.641	15698.12
806.896	15972.12
807.151	16377.12
807.406	16487.12
807.661	16859.12
807.915	17108.12
808.17	17401.12
808.425	17568.12
808.679	17655.12
808.934	17819.12
809.188	17966.12
809.443	18215.12
809.697	18480.12
809.951	18647.12
810.206	18750.12
810.46	18891.12
810.714	19030.12
810.968	19256.12
811.223	19339.12
811.477	19522.12
811.731	19766.12
811.985	19806.12
812.239	19911.12
812.493	19939.12
812.747	20019.12
813	19960.12
813.254	20159.12
813.508	20314.12
813.762	20332.12
814.015	20386.12
814.269	20665.12
814.522	20724.12
814.776	21003.12
815.03	21263.12
815.283	21455.12
815.536	21743.12
815.79	22032.12
816.043	22396.12
816.296	22781.12
816.55	22963.12
816.803	23166.12
817.056	23557.12
817.309	23676.12
817.562	24067.12
817.815	24186.12
818.068	24297.12
818.321	24501.12
818.574	24863.12
818.827	25208.12
819.079	25433.12
819.332	25923.12
819.585	26177.12
819.838	26618.12
820.09	26548.12
820.343	26900.12
820.595	26906.12
820.848	27032.12
821.1	27285.12
821.353	27227.12
821.605	27127.12
821.857	27212.12
822.11	26998.12
822.362	27056.12
822.614	26885.12
822.866	26951.12
823.118	26871.12
823.37	27051.12
823.622	27070.12
823.874	27204.12
824.126	27239.12
824.378	27263.12
824.63	27240.12
824.882	27500.12
825.134	27311.12
825.385	27374.12
825.637	27112.12
825.888	27203.12
826.14	27210.12
826.392	27001.12
826.643	26870.12
826.895	26776.12
827.146	26647.12
827.397	26549.12
827.649	26705.12
827.9	26455.12
828.151	26513.12
828.402	26597.12
828.653	26723.12
828.905	26783.12
829.156	26899.12
829.407	26775.12
829.658	26777.12
829.909	26933.12
830.159	26848.12
830.41	26624.12
830.661	26484.12
830.912	26318.12
831.162	26195.12
831.413	26168.12
831.664	26260.12
831.914	26130.12
832.165	26131.12
832.415	26196.12
832.666	26050.12
832.916	26287.12
833.167	25968.12
833.417	26124.12
833.667	25889.12
833.917	25880.12
834.168	25843.12
834.418	25736.12
834.668	25516.12
834.918	25509.12
835.168	25395.12
835.418	25214.12
835.668	25156.12
835.918	25275.12
836.167	25041.12
836.417	25074.12
836.667	24982.12
836.917	24888.12
837.166	24906.12
837.416	24939.12
837.666	24867.12
837.915	24745.12
838.165	24777.12
838.414	24566.12
838.663	24599.12
838.913	24617.12
839.162	24483.12
839.411	24508.12
839.661	24480.12
839.91	24254.12
840.159	24271.12
840.408	24317.12
840.657	24328.12
840.906	24244.12
841.155	24160.12
841.404	24038.12
841.653	24204.12
841.902	24177.12
842.15	24248.12
842.399	24314.12
842.648	24098.12
842.897	24139.12
843.145	23931.12
843.394	23836.12
843.642	23651.12
843.891	23643.12
844.139	23386.12
844.388	23220.12
844.636	23201.12
844.884	23182.12
845.133	23075.12
845.381	23073.12
845.629	23071.12
845.877	23115.12
846.125	23075.12
846.373	23002.12
846.621	22830.12
846.869	22895.12
847.117	22634.12
847.365	22500.12
847.613	22456.12
847.861	22413.12
848.108	22420.12
848.356	22186.12
848.604	22275.12
848.851	22227.12
849.099	22210.12
849.346	22296.12
849.594	22491.12
849.841	22411.12
850.089	22496.12
850.336	22432.12
850.583	22437.12
850.831	22297.12
851.078	22139.12
851.325	22081.12
851.572	22192.12
851.819	21997.12
852.066	21583.12
852.313	21310.12
852.56	21190.12
852.807	21061.12
853.054	20895.12
853.301	21086.12
853.548	20978.12
853.794	21203.12
854.041	21175.12
854.288	21285.12
854.534	21375.12
854.781	21279.12
855.028	21291.12
855.274	21333.12
855.52	21075.12
855.767	20974.12
856.013	21077.12
856.26	21403.12
856.506	20773.12
856.752	20806.12
856.998	20651.12
857.244	20793.12
857.49	20853.12
857.736	20915.12
857.982	20933.12
858.228	20827.12
858.474	20651.12
858.72	20624.12
858.966	20329.12
859.212	20012.12
859.458	20000.12
859.703	19757.12
859.949	19515.12
860.195	19373.12
860.44	19346.12
860.686	19320.12
860.931	19152.12
861.177	19199.12
861.422	19081.12
861.667	19045.12
861.913	18912.12
862.158	18950.12
862.403	19102.12
862.648	18945.12
862.893	19118.12
863.138	19038.12
863.384	18909.12
863.629	18989.12
863.873	18963.12
864.118	18875.12
864.363	18718.12
864.608	18680.12
864.853	18640.12
865.098	18520.12
865.342	18475.12
865.587	18397.12
865.832	18329.12
866.076	18170.12
866.321	18197.12
866.565	18157.12
866.81	18009.12
867.054	17990.12
867.298	17990.12
867.543	17782.12
867.787	17866.12
868.031	17782.12
868.275	17668.12
868.519	17704.12
868.764	17715.12
869.008	17606.12
869.252	17663.12
869.496	17567.12
869.739	17527.12
869.983	17605.12
870.227	17559.12
870.471	17523.12
870.715	17561.12
870.958	17517.12
871.202	17514.12
871.446	17690.12
871.689	17563.12
871.933	17604.12
872.176	17619.12
872.42	17460.12
872.663	17337.12
872.906	17459.12
873.15	17400.12
873.393	17192.12
873.636	17335.12
873.879	17045.12
874.122	16994.12
874.366	16786.12
874.609	16545.12
874.852	16382.12
875.095	16393.12
875.337	16309.12
875.58	16066.12
875.823	16160.12
876.066	16109.12
876.309	16082.12
876.551	15897.12
876.794	15793.12
877.037	15817.12
877.279	15826.12
877.522	15785.12
877.764	15834.12
878.007	15725.12
878.249	15696.12
878.491	15587.12
878.734	15701.12
878.976	15666.12
879.218	15438.12
879.46	15330.12
879.702	15390.12
879.945	15216.12
880.187	15034.12
880.429	14954.12
880.671	14976.12
880.912	14923.12
881.154	14801.12
881.396	14868.12
881.638	14735.12
881.88	14761.12
882.121	14673.12
882.363	14616.12
882.605	14636.12
882.846	14606.12
883.088	14652.12
883.329	14573.12
883.571	14564.12
883.812	14664.12
884.053	14868.12
884.295	15062.12
884.536	15273.12
884.777	15185.12
885.018	15096.12
885.259	15007.12
885.5	14840.12
885.742	14951.12
885.982	14811.12
886.223	14687.12
886.464	14598.12
886.705	14470.12
886.946	14337.12
887.187	14142.12
887.428	13987.12
887.668	13748.12
887.909	13646.12
888.15	13475.12
888.39	13415.12
888.631	13349.12
888.871	13157.12
889.111	13083.12
889.352	12993.12
889.592	12831.12
889.833	12777.12
890.073	12648.12
890.313	12731.12
890.553	12503.12
890.793	12580.12
891.033	12448.12
891.273	12374.12
891.513	12348.12
891.753	12356.12
891.993	12287.12
892.233	12348.12
892.473	12342.12
892.713	12380.12
892.952	12372.12
893.192	12273.12
893.432	12232.12
893.671	12255.12
893.911	12137.12
894.15	12183.12
894.39	11989.12
894.629	11961.12
894.869	11876.12
895.108	11852.12
895.347	11710.12
895.587	11797.12
895.826	11721.12
896.065	11626.12
896.304	11662.12
896.543	11742.12
896.782	11522.12
897.021	11556.12
897.26	11584.12
897.499	11534.12
897.738	11558.12
897.977	11408.12
898.216	11313.12
898.454	11150.12
898.693	11184.12
898.932	11107.12
899.17	11106.12
899.409	11042.12
899.647	11022.12
899.886	10968.12
900.124	10926.12
900.363	11007.12
900.601	10973.12
900.839	11044.12
901.078	11047.12
901.316	11026.12
901.554	11062.12
901.792	11103.12
902.03	11103.12
902.268	11095.12
902.506	11055.12
902.744	11017.12
902.982	10938.12
903.22	10834.12
903.458	10606.12
903.695	10530.12
903.933	10359.12
904.171	10212.12
904.409	10068.12
904.646	9946.12
904.884	9791.12
905.121	9717.12
905.359	9649.12
905.596	9548.12
905.833	9436.12
906.071	9398.12
906.308	9380.12
906.545	9327.12
906.783	9244.12
907.02	9255.12
907.257	9132.12
907.494	9133.12
907.731	9183.12
907.968	9152.12
908.205	9071.12
908.442	9036.12
908.679	8923.12
908.915	8850.12
909.152	8824.12
909.389	8704.12
909.626	8738.12
909.862	8601.12
910.099	8590.12
910.335	8578.12
910.572	8484.12
910.808	8470.12
911.045	8475.12
911.281	8340.12
911.518	8418.12
911.754	8365.12
911.99	8318.12
912.226	8157.12
912.463	8132.12
912.699	8062.12
912.935	8025.12
913.171	7958.12
913.407	7798.12
913.643	7898.12
913.879	7791.12
914.114	7624.12
914.35	7649.12
914.586	7526.12
914.822	7494.12
915.057	7515.12
915.293	7351.12
915.529	7283.12
915.764	7321.12
916	7383.12
916.235	7300.12
916.471	7301.12
916.706	7238.12
916.941	7199.12
917.177	7219.12
917.412	7283.12
917.647	7249.12
917.882	7231.12
918.117	7203.12
918.352	7216.12
918.588	7168.12
918.823	7037.12
919.057	7026.12
919.292	6840.12
919.527	6896.12
919.762	6774.12
919.997	6799.12
920.232	6672.12
920.466	6692.12
920.701	6500.12
920.935	6515.12
921.17	6470.12
921.405	6462.12
921.639	6435.12
921.873	6422.12
922.108	6409.12
922.342	6406.12
922.576	6265.12
922.811	6265.12
923.045	6282.12
923.279	6250.12
923.513	6136.12
923.747	6202.12
923.981	6106.12
924.215	6042.12
924.449	6064.12
924.683	5998.12
924.917	5959.12
925.151	5983.12
925.385	5982.12
925.618	5891.12
925.852	5896.12
926.086	5830.12
926.319	5844.12
926.553	5862.12
926.786	5842.12
927.02	5829.12
927.253	5830.12
927.486	5789.12
927.72	5775.12
927.953	5819.12
928.186	5728.12
928.42	5751.12
928.653	5650.12
928.886	5676.12
929.119	5700.12
929.352	5601.12
929.585	5636.12
929.818	5469.12
930.051	5494.12
930.284	5506.12
930.516	5365.12
930.749	5394.12
930.982	5369.12
931.215	5377.12
931.447	5252.12
931.68	5297.12
931.912	5244.12
932.145	5246.12
932.377	5303.12
932.61	5397.12
932.842	5139.12
933.074	5248.12
933.307	5208.12
933.539	5247.12
933.771	5264.12
934.003	5173.12
934.236	5285.12
934.468	5277.12
934.7	5197.12
934.932	5184.12
935.164	5133.12
935.395	5083.12
935.627	5163.12
935.859	5124.12
936.091	4995.12
936.323	5038.12
936.554	5108.12
936.786	5004.12
937.017	4961.12
937.249	4977.12
937.481	4897.12
937.712	4936.12
937.943	4928.12
938.175	4870.12
938.406	4914.12
938.637	4927.12
938.869	4819.12
939.1	4878.12
939.331	4874.12
939.562	4922.12
939.793	4825.12
940.024	4838.12
940.255	4775.12
940.486	4747.12
940.717	4745.12
940.948	4697.12
941.179	4681.12
941.409	4696.12
941.64	4695.12
941.871	4666.12
942.102	4655.12
942.332	4627.12
942.563	4701.12
942.793	4707.12
943.024	4596.12
943.254	4637.12
943.484	4663.12
943.715	4674.12
943.945	4647.12
944.175	4537.12
944.405	4509.12
944.636	4521.12
944.866	4604.12
945.096	4612.12
945.326	4482.12
945.556	4553.12
945.786	4580.12
946.016	4439.12
946.245	4372.12
946.475	4391.12
946.705	4416.12
946.935	4346.12
947.164	4389.12
947.394	4299.12
947.624	4297.12
947.853	4335.12
948.083	4274.12
948.312	4269.12
948.542	4192.12
948.771	4150.12
949	4163.12
949.23	4164.12
949.459	4194.12
949.688	4172.12
949.917	4174.12
950.146	4182.12
950.375	4225.12
950.604	4122.12
950.833	4239.12
951.062	4188.12
951.291	4105.12
951.52	4049.12
951.749	4121.12
951.978	4044.12
952.206	4000.12
952.435	4023.12
952.664	4052.12
952.892	4054.12
953.121	4022.12
953.349	4075.12
953.578	4006.12
953.806	3942.12
954.035	3894.12
954.263	3925.12
954.491	3843.12
954.719	3896.12
954.948	3810.12
955.176	3829.12
955.404	3752.12
955.632	3834.12
955.86	3785.12
956.088	3805.12
956.316	3782.12
956.544	3799.12
956.772	3695.12
956.999	3687.12
957.227	3773.12
957.455	3649.12
957.683	3644.12
957.91	3586.12
958.138	3622.12
958.365	3628.12
958.593	3576.12
958.82	3477.12
959.048	3550.12
959.275	3548.12
959.502	3542.12
959.73	3462.12
959.957	3506.12
960.184	3547.12
960.411	3494.12
960.638	3563.12
960.865	3455.12
961.092	3462.12
961.319	3420.12
961.546	3536.12
961.773	3467.12
962	3450.12
962.227	3481.12
962.454	3422.12
962.68	3377.12
962.907	3436.12
963.134	3344.12
963.36	3418.12
963.587	3369.12
963.813	3298.12
964.04	3324.12
964.266	3293.12
964.493	3337.12
964.719	3284.12
964.945	3312.12
965.171	3164.12
965.398	3235.12
965.624	3205.12
965.85	3162.12
966.076	3159.12
966.302	3152.12
966.528	3113.12
966.754	3144.12
966.98	3133.12
967.206	3114.12
967.431	3074.12
967.657	3114.12
967.883	3093.12
968.109	3063.12
968.334	3008.12
968.56	3013.12
968.785	3030.12
969.011	2951.12
969.236	3039.12
969.462	2995.12
969.687	2978.12
969.912	2993.12
970.138	3044.12
970.363	2958.12
970.588	2958.12
970.813	2904.12
971.038	2900.12
971.263	2937.12
971.488	2935.12
971.713	2959.12
971.938	2934.12
972.163	2823.12
972.388	2848.12
972.613	2833.12
972.838	2814.12
973.062	2817.12
973.287	2788.12
973.512	2710.12
973.736	2779.12
973.961	2759.12
974.185	2744.12
974.41	2740.12
974.634	2682.12
974.858	2622.12
975.083	2720.12
975.307	2693.12
975.531	2635.12
975.755	2594.12
975.98	2639.12
976.204	2529.12
976.428	2551.12
976.652	2540.12
976.876	2533.12
977.1	2516.12
977.324	2498.12
977.547	2543.12
977.771	2554.12
977.995	2507.12
978.219	2401.12
978.442	2571.12
978.666	2477.12
978.89	2494.12
979.113	2504.12
979.337	2467.12
979.56	2437.12
979.783	2523.12
980.007	2409.12
980.23	2409.12
980.453	2390.12
980.677	2440.12
980.9	2415.12
981.123	2285.12
981.346	2385.12
981.569	2362.12
981.792	2419.12
982.015	2369.12
982.238	2275.12
982.461	2354.12
982.684	2289.12
982.907	2260.12
983.129	2232.12
983.352	2302.12
983.575	2276.12
983.797	2295.12
984.02	2214.12
984.242	2207.12
984.465	2245.12
984.687	2224.12
984.91	2243.12
985.132	2232.12
985.354	2229.12
985.577	2210.12
985.799	2173.12
986.021	2097.12
986.243	2134.12
986.465	2148.12
986.687	2209.12
986.909	2199.12
987.131	2158.12
987.353	2088.12
987.575	2112.12
987.797	2092.12
988.019	2015.12
988.241	2081.12
988.462	2048.12
988.684	2133.12
988.906	2135.12
989.127	2112.12
989.349	2020.12
989.57	2067.12
989.792	2099.12
990.013	2100.12
990.234	2112.12
990.456	2104.12
990.677	2103.12
990.898	2022.12
991.119	2025.12
991.341	2048.12
991.562	1965.12
991.783	2037.12
992.004	1940.12
992.225	1880.12
992.446	2002.12
992.667	1918.12
992.887	1991.12
993.108	1857.12
993.329	2019.12
993.55	1949.12
993.77	1862.12
993.991	1876.12
994.212	1923.12
994.432	1870.12
994.653	1898.12
994.873	1887.12
995.093	1776.12
995.314	1818.12
995.534	1893.12
995.754	1869.12
995.975	1915.12
996.195	1803.12
996.415	1862.12
996.635	1789.12
996.855	1847.12
997.075	1818.12
997.295	1812.12
997.515	1753.12
997.735	1847.12
997.955	1809.12
998.174	1769.12
998.394	1774.12
998.614	1814.12
998.834	1765.12
999.053	1833.12
999.273	1809.12
999.492	1848.12
999.712	1780.12
999.931	1735.12
1000.151	1802.12
1000.37	1739.12
1000.589	1830.12
1000.809	1728.12
1001.028	1796.12
1001.247	1779.12
1001.466	1650.12
1001.685	1788.12
1001.904	1736.12
1002.123	1710.12
1002.342	1744.12
1002.561	1666.12
1002.78	1673.12
1002.999	1733.12
1003.218	1671.12
1003.436	1656.12
1003.655	1725.12
1003.874	1627.12
1004.092	1695.12
1004.311	1683.12
1004.53	1657.12
1004.748	1713.12
1004.966	1635.12
1005.185	1698.12
1005.403	1697.12
1005.622	1659.12
1005.84	1733.12
1006.058	1630.12
1006.276	1660.12
1006.494	2159.12
1006.712	1662.12
1006.931	1723.12
1007.149	1637.12
1007.367	1637.12
1007.584	1664.12
1007.802	1698.12
1008.02	1660.12
1008.238	1753.12
1008.456	1722.12
1008.673	1621.12
1008.891	1741.12
1009.109	1691.12
1009.326	1745.12
1009.544	1833.12
1009.761	1754.12
1009.979	1808.12
1010.196	1863.12
1010.413	1947.12
1010.631	1980.12
1010.848	2029.12
1011.065	2066.12
1011.282	1961.12
1011.5	1956.12
1011.717	2016.12
1011.934	1981.12
1012.151	2002.12
1012.368	1955.12
1012.585	1936.12
1012.801	1969.12
1013.018	1953.12
1013.235	1907.12
1013.452	1932.12
1013.669	1951.12
1013.885	1912.12
1014.102	1962.12
1014.318	1941.12
1014.535	1886.12
1014.751	1932.12
1014.968	1925.12
1015.184	1950.12
1015.401	1866.12
1015.617	1885.12
1015.833	1806.12
1016.049	1812.12
1016.266	1766.12
1016.482	1813.12
1016.698	1715.12
1016.914	1780.12
1017.13	1705.12
1017.346	1723.12
1017.562	1767.12
1017.778	1705.12
1017.993	1667.12
1018.209	1723.12
1018.425	1697.12
1018.641	1675.12
1018.856	1650.12
1019.072	1663.12
1019.288	1716.12
1019.503	1655.12
1019.719	1572.12
1019.934	1590.12
1020.149	1658.12
1020.365	1590.12
1020.58	1534.12
1020.795	1576.12
1021.011	1509.12
1021.226	1505.12
1021.441	1517.12
1021.656	1424.12
1021.871	1353.12
1022.086	1352.12
1022.301	1342.12
1022.516	1342.12
1022.731	1378.12
1022.946	1287.12
1023.16	1252.12
1023.375	1228.12
1023.59	1221.12
1023.804	1173.12
1024.019	1283.12
1024.234	1161.12
1024.448	1172.12
1024.663	1081.12
1024.877	1118.12
1025.092	1140.12
1025.306	1129.12
1025.52	1020.12
1025.734	1108.12
1025.949	1023.12
1026.163	1001.12
1026.377	923.12
1026.591	973.12
1026.805	913.12
1027.019	887.12
1027.233	862.12
1027.447	818.12
1027.661	912.12
1027.875	848.12
1028.088	856.12
1028.302	792.12
1028.516	766.12
1028.73	758.12
1028.943	762.12
1029.157	685.12
1029.37	671.12
1029.584	-1.88
1029.797	1.12
1030.011	-0.88
1030.224	0.12
