Data from QEP037381__214__15-59-09-893.txt Node

Date: Fri Dec 16 15:59:09 EST 2022
User: dcclab
Spectrometer: QEP03738
Trigger mode: 4
Integration Time (sec): 1.000000E1
Scans to average: 1
Electric dark correction enabled: true
Nonlinearity correction enabled: false
Boxcar width: 0
XAxis mode: Wavelengths
Number of Pixels in Spectrum: 1044
>>>>>Begin Spectral Data<<<<<
784.041	13.12
784.3	-0.88
784.558	-0.88
784.817	-5.88
785.075	110372.12
785.334	19470.12
785.592	9263.12
785.851	6386.12
786.109	4820.12
786.368	3723.12
786.626	3020.12
786.884	2484.12
787.143	2068.12
787.401	1736.12
787.659	1521.12
787.917	1328.12
788.175	1203.12
788.433	1061.12
788.691	944.12
788.949	878.12
789.207	824.12
789.465	707.12
789.723	674.12
789.98	612.12
790.238	661.12
790.496	627.12
790.753	589.12
791.011	633.12
791.268	570.12
791.526	550.12
791.783	566.12
792.041	535.12
792.298	458.12
792.556	527.12
792.813	512.12
793.07	491.12
793.327	463.12
793.584	544.12
793.841	455.12
794.099	460.12
794.356	558.12
794.613	436.12
794.869	482.12
795.126	433.12
795.383	429.12
795.64	449.12
795.897	396.12
796.153	454.12
796.41	431.12
796.667	431.12
796.923	433.12
797.18	413.12
797.436	449.12
797.693	434.12
797.949	471.12
798.206	496.12
798.462	431.12
798.718	468.12
798.974	455.12
799.231	486.12
799.487	477.12
799.743	477.12
799.999	518.12
800.255	514.12
800.511	507.12
800.767	550.12
801.023	525.12
801.279	549.12
801.534	600.12
801.79	645.12
802.046	697.12
802.302	807.12
802.557	921.12
802.813	1139.12
803.068	1437.12
803.324	1936.12
803.579	2653.12
803.835	3661.12
804.09	4970.12
804.345	6468.12
804.601	8152.12
804.856	9866.12
805.111	11421.12
805.366	12506.12
805.621	13455.12
805.876	14033.12
806.131	14459.12
806.386	14725.12
806.641	14905.12
806.896	15258.12
807.151	15564.12
807.406	15606.12
807.661	15968.12
807.915	16226.12
808.17	16420.12
808.425	16613.12
808.679	16693.12
808.934	16876.12
809.188	16978.12
809.443	17192.12
809.697	17345.12
809.951	17450.12
810.206	17632.12
810.46	17850.12
810.714	17956.12
810.968	18075.12
811.223	18148.12
811.477	18504.12
811.731	18704.12
811.985	18581.12
812.239	18673.12
812.493	18727.12
812.747	18754.12
813	18940.12
813.254	18954.12
813.508	19054.12
813.762	19131.12
814.015	19270.12
814.269	19330.12
814.522	19397.12
814.776	19665.12
815.03	19937.12
815.283	20102.12
815.536	20529.12
815.79	20745.12
816.043	20956.12
816.296	21370.12
816.55	21472.12
816.803	21782.12
817.056	21979.12
817.309	22169.12
817.562	22391.12
817.815	22611.12
818.068	22656.12
818.321	22859.12
818.574	23175.12
818.827	23472.12
819.079	23657.12
819.332	24161.12
819.585	24454.12
819.838	24657.12
820.09	24791.12
820.343	24897.12
820.595	25011.12
820.848	25183.12
821.1	25288.12
821.353	25223.12
821.605	25219.12
821.857	25217.12
822.11	25102.12
822.362	25060.12
822.614	24983.12
822.866	25029.12
823.118	25040.12
823.37	25117.12
823.622	25186.12
823.874	25323.12
824.126	25368.12
824.378	25185.12
824.63	25355.12
824.882	25386.12
825.134	25319.12
825.385	25404.12
825.637	25247.12
825.888	25241.12
826.14	25075.12
826.392	24989.12
826.643	24963.12
826.895	24836.12
827.146	24682.12
827.397	24534.12
827.649	24594.12
827.9	24677.12
828.151	24582.12
828.402	24637.12
828.653	24775.12
828.905	24862.12
829.156	24769.12
829.407	24718.12
829.658	24790.12
829.909	24935.12
830.159	24972.12
830.41	24816.12
830.661	24529.12
830.912	24455.12
831.162	24366.12
831.413	24187.12
831.664	24274.12
831.914	24252.12
832.165	24067.12
832.415	24251.12
832.666	24170.12
832.916	24181.12
833.167	24210.12
833.417	24114.12
833.667	23984.12
833.917	23957.12
834.168	23846.12
834.418	23807.12
834.668	23766.12
834.918	23580.12
835.168	23505.12
835.418	23352.12
835.668	23210.12
835.918	23175.12
836.167	23121.12
836.417	23124.12
836.667	23062.12
836.917	23206.12
837.166	23105.12
837.416	23071.12
837.666	23058.12
837.915	22996.12
838.165	22954.12
838.414	22823.12
838.663	22861.12
838.913	22754.12
839.162	22704.12
839.411	22740.12
839.661	22626.12
839.91	22483.12
840.159	22502.12
840.408	22503.12
840.657	22540.12
840.906	22434.12
841.155	22401.12
841.404	22381.12
841.653	22568.12
841.902	22381.12
842.15	22555.12
842.399	22499.12
842.648	22385.12
842.897	22494.12
843.145	22257.12
843.394	22099.12
843.642	21877.12
843.891	21880.12
844.139	21673.12
844.388	21564.12
844.636	21437.12
844.884	21499.12
845.133	21456.12
845.381	21401.12
845.629	21430.12
845.877	21494.12
846.125	21245.12
846.373	21210.12
846.621	21109.12
846.869	21153.12
847.117	21085.12
847.365	20875.12
847.613	20771.12
847.861	20742.12
848.108	20786.12
848.356	20716.12
848.604	20582.12
848.851	20642.12
849.099	20549.12
849.346	20628.12
849.594	20675.12
849.841	20836.12
850.089	20779.12
850.336	20734.12
850.583	20704.12
850.831	20757.12
851.078	20506.12
851.325	20451.12
851.572	20587.12
851.819	20376.12
852.066	20005.12
852.313	19768.12
852.56	19583.12
852.807	19543.12
853.054	19470.12
853.301	19364.12
853.548	19487.12
853.794	19545.12
854.041	19608.12
854.288	19659.12
854.534	19876.12
854.781	19801.12
855.028	19707.12
855.274	19723.12
855.52	19611.12
855.767	19546.12
856.013	19582.12
856.26	19910.12
856.506	19270.12
856.752	19313.12
856.998	19359.12
857.244	19219.12
857.49	19330.12
857.736	19366.12
857.982	19426.12
858.228	19356.12
858.474	19176.12
858.72	18969.12
858.966	18932.12
859.212	18763.12
859.458	18546.12
859.703	18255.12
859.949	18093.12
860.195	18010.12
860.44	17988.12
860.686	17921.12
860.931	17828.12
861.177	17722.12
861.422	17704.12
861.667	17565.12
861.913	17478.12
862.158	17644.12
862.403	17587.12
862.648	17690.12
862.893	17668.12
863.138	17664.12
863.384	17502.12
863.629	17487.12
863.873	17527.12
864.118	17527.12
864.363	17423.12
864.608	17372.12
864.853	17333.12
865.098	17177.12
865.342	17098.12
865.587	17035.12
865.832	17011.12
866.076	16917.12
866.321	16786.12
866.565	16755.12
866.81	16762.12
867.054	16667.12
867.298	16652.12
867.543	16558.12
867.787	16589.12
868.031	16473.12
868.275	16453.12
868.519	16491.12
868.764	16454.12
869.008	16386.12
869.252	16302.12
869.496	16272.12
869.739	16259.12
869.983	16225.12
870.227	16282.12
870.471	16205.12
870.715	16321.12
870.958	16303.12
871.202	16340.12
871.446	16434.12
871.689	16284.12
871.933	16321.12
872.176	16323.12
872.42	16261.12
872.663	16228.12
872.906	16247.12
873.15	16251.12
873.393	16139.12
873.636	16086.12
873.879	15971.12
874.122	15886.12
874.366	15501.12
874.609	15445.12
874.852	15323.12
875.095	15216.12
875.337	15105.12
875.58	15104.12
875.823	14967.12
876.066	15032.12
876.309	14961.12
876.551	14739.12
876.794	14626.12
877.037	14742.12
877.279	14598.12
877.522	14703.12
877.764	14733.12
878.007	14587.12
878.249	14570.12
878.491	14473.12
878.734	14546.12
878.976	14481.12
879.218	14361.12
879.46	14328.12
879.702	14184.12
879.945	14174.12
880.187	14022.12
880.429	13804.12
880.671	13777.12
880.912	13766.12
881.154	13652.12
881.396	13562.12
881.638	13607.12
881.88	13644.12
882.121	13493.12
882.363	13551.12
882.605	13545.12
882.846	13542.12
883.088	13553.12
883.329	13566.12
883.571	13513.12
883.812	13680.12
884.053	13886.12
884.295	14203.12
884.536	14460.12
884.777	14324.12
885.018	14162.12
885.259	14084.12
885.5	13962.12
885.742	14098.12
885.982	13905.12
886.223	13798.12
886.464	13659.12
886.705	13498.12
886.946	13468.12
887.187	13107.12
887.428	12987.12
887.668	12826.12
887.909	12617.12
888.15	12433.12
888.39	12347.12
888.631	12350.12
888.871	12243.12
889.111	12168.12
889.352	12073.12
889.592	11869.12
889.833	11910.12
890.073	11787.12
890.313	11807.12
890.553	11562.12
890.793	11520.12
891.033	11474.12
891.273	11467.12
891.513	11403.12
891.753	11444.12
891.993	11333.12
892.233	11394.12
892.473	11494.12
892.713	11425.12
892.952	11377.12
893.192	11444.12
893.432	11279.12
893.671	11328.12
893.911	11304.12
894.15	11272.12
894.39	11107.12
894.629	11072.12
894.869	11083.12
895.108	10976.12
895.347	10924.12
895.587	10909.12
895.826	10875.12
896.065	10776.12
896.304	10905.12
896.543	10828.12
896.782	10719.12
897.021	10756.12
897.26	10722.12
897.499	10723.12
897.738	10612.12
897.977	10603.12
898.216	10504.12
898.454	10466.12
898.693	10361.12
898.932	10329.12
899.17	10221.12
899.409	10318.12
899.647	10219.12
899.886	10210.12
900.124	10219.12
900.363	10151.12
900.601	10195.12
900.839	10181.12
901.078	10211.12
901.316	10321.12
901.554	10309.12
901.792	10338.12
902.03	10325.12
902.268	10331.12
902.506	10356.12
902.744	10280.12
902.982	10213.12
903.22	10012.12
903.458	9886.12
903.695	9816.12
903.933	9650.12
904.171	9403.12
904.409	9378.12
904.646	9202.12
904.884	9024.12
905.121	9103.12
905.359	8941.12
905.596	8912.12
905.833	8723.12
906.071	8711.12
906.308	8711.12
906.545	8708.12
906.783	8652.12
907.02	8536.12
907.257	8572.12
907.494	8552.12
907.731	8496.12
907.968	8441.12
908.205	8384.12
908.442	8383.12
908.679	8322.12
908.915	8308.12
909.152	8211.12
909.389	8047.12
909.626	8075.12
909.862	8043.12
910.099	7983.12
910.335	8017.12
910.572	7833.12
910.808	7893.12
911.045	7841.12
911.281	7778.12
911.518	7748.12
911.754	7696.12
911.99	7663.12
912.226	7643.12
912.463	7541.12
912.699	7515.12
912.935	7451.12
913.171	7392.12
913.407	7264.12
913.643	7298.12
913.879	7257.12
914.114	7190.12
914.35	7073.12
914.586	7042.12
914.822	6884.12
915.057	7083.12
915.293	6863.12
915.529	6809.12
915.764	6878.12
916	6855.12
916.235	6789.12
916.471	6826.12
916.706	6727.12
916.941	6717.12
917.177	6713.12
917.412	6694.12
917.647	6701.12
917.882	6703.12
918.117	6709.12
918.352	6643.12
918.588	6685.12
918.823	6572.12
919.057	6534.12
919.292	6352.12
919.527	6455.12
919.762	6317.12
919.997	6324.12
920.232	6154.12
920.466	6211.12
920.701	6017.12
920.935	6077.12
921.17	6033.12
921.405	5949.12
921.639	6013.12
921.873	5975.12
922.108	5974.12
922.342	5952.12
922.576	5881.12
922.811	5830.12
923.045	5858.12
923.279	5864.12
923.513	5735.12
923.747	5758.12
923.981	5749.12
924.215	5664.12
924.449	5667.12
924.683	5512.12
924.917	5549.12
925.151	5516.12
925.385	5544.12
925.618	5523.12
925.852	5530.12
926.086	5414.12
926.319	5458.12
926.553	5423.12
926.786	5484.12
927.02	5453.12
927.253	5450.12
927.486	5431.12
927.72	5378.12
927.953	5441.12
928.186	5387.12
928.42	5418.12
928.653	5334.12
928.886	5276.12
929.119	5292.12
929.352	5220.12
929.585	5224.12
929.818	5197.12
930.051	5151.12
930.284	5168.12
930.516	5038.12
930.749	5036.12
930.982	5024.12
931.215	5023.12
931.447	4933.12
931.68	4971.12
931.912	4905.12
932.145	4871.12
932.377	4913.12
932.61	5082.12
932.842	4791.12
933.074	4940.12
933.307	4794.12
933.539	4967.12
933.771	4900.12
934.003	4848.12
934.236	4931.12
934.468	4866.12
934.7	4835.12
934.932	4884.12
935.164	4796.12
935.395	4750.12
935.627	4738.12
935.859	4787.12
936.091	4672.12
936.323	4718.12
936.554	4808.12
936.786	4682.12
937.017	4616.12
937.249	4671.12
937.481	4590.12
937.712	4634.12
937.943	4610.12
938.175	4594.12
938.406	4518.12
938.637	4634.12
938.869	4490.12
939.1	4562.12
939.331	4544.12
939.562	4530.12
939.793	4510.12
940.024	4571.12
940.255	4509.12
940.486	4442.12
940.717	4436.12
940.948	4430.12
941.179	4340.12
941.409	4400.12
941.64	4336.12
941.871	4406.12
942.102	4367.12
942.332	4376.12
942.563	4430.12
942.793	4354.12
943.024	4322.12
943.254	4361.12
943.484	4397.12
943.715	4336.12
943.945	4368.12
944.175	4267.12
944.405	4255.12
944.636	4244.12
944.866	4316.12
945.096	4332.12
945.326	4201.12
945.556	4281.12
945.786	4274.12
946.016	4226.12
946.245	4118.12
946.475	4126.12
946.705	4080.12
946.935	4118.12
947.164	4107.12
947.394	4058.12
947.624	4044.12
947.853	3992.12
948.083	4001.12
948.312	3985.12
948.542	3933.12
948.771	3903.12
949	3897.12
949.23	3902.12
949.459	3916.12
949.688	3945.12
949.917	3921.12
950.146	3946.12
950.375	3963.12
950.604	3879.12
950.833	3932.12
951.062	3914.12
951.291	3869.12
951.52	3847.12
951.749	3836.12
951.978	3787.12
952.206	3778.12
952.435	3770.12
952.664	3797.12
952.892	3769.12
953.121	3771.12
953.349	3770.12
953.578	3760.12
953.806	3738.12
954.035	3672.12
954.263	3661.12
954.491	3646.12
954.719	3685.12
954.948	3596.12
955.176	3552.12
955.404	3533.12
955.632	3595.12
955.86	3599.12
956.088	3530.12
956.316	3588.12
956.544	3547.12
956.772	3475.12
956.999	3463.12
957.227	3504.12
957.455	3448.12
957.683	3417.12
957.91	3423.12
958.138	3349.12
958.365	3373.12
958.593	3341.12
958.82	3311.12
959.048	3336.12
959.275	3302.12
959.502	3313.12
959.73	3259.12
959.957	3301.12
960.184	3287.12
960.411	3233.12
960.638	3311.12
960.865	3258.12
961.092	3253.12
961.319	3216.12
961.546	3308.12
961.773	3293.12
962	3247.12
962.227	3260.12
962.454	3227.12
962.68	3191.12
962.907	3198.12
963.134	3143.12
963.36	3150.12
963.587	3186.12
963.813	3105.12
964.04	3146.12
964.266	3090.12
964.493	3166.12
964.719	3114.12
964.945	3125.12
965.171	2965.12
965.398	3054.12
965.624	3052.12
965.85	2968.12
966.076	2964.12
966.302	2958.12
966.528	2982.12
966.754	2967.12
966.98	2956.12
967.206	2914.12
967.431	2875.12
967.657	2955.12
967.883	2935.12
968.109	2922.12
968.334	2865.12
968.56	2833.12
968.785	2874.12
969.011	2832.12
969.236	2864.12
969.462	2810.12
969.687	2822.12
969.912	2868.12
970.138	2818.12
970.363	2766.12
970.588	2782.12
970.813	2746.12
971.038	2729.12
971.263	2771.12
971.488	2742.12
971.713	2783.12
971.938	2732.12
972.163	2674.12
972.388	2701.12
972.613	2667.12
972.838	2685.12
973.062	2639.12
973.287	2664.12
973.512	2559.12
973.736	2612.12
973.961	2621.12
974.185	2577.12
974.41	2619.12
974.634	2489.12
974.858	2517.12
975.083	2561.12
975.307	2557.12
975.531	2507.12
975.755	2461.12
975.98	2452.12
976.204	2439.12
976.428	2378.12
976.652	2407.12
976.876	2403.12
977.1	2423.12
977.324	2355.12
977.547	2437.12
977.771	2401.12
977.995	2358.12
978.219	2290.12
978.442	2420.12
978.666	2335.12
978.89	2329.12
979.113	2355.12
979.337	2323.12
979.56	2302.12
979.783	2392.12
980.007	2288.12
980.23	2310.12
980.453	2281.12
980.677	2287.12
980.9	2286.12
981.123	2185.12
981.346	2265.12
981.569	2278.12
981.792	2272.12
982.015	2203.12
982.238	2213.12
982.461	2227.12
982.684	2153.12
982.907	2154.12
983.129	2150.12
983.352	2193.12
983.575	2154.12
983.797	2144.12
984.02	2101.12
984.242	2075.12
984.465	2075.12
984.687	2111.12
984.91	2135.12
985.132	2147.12
985.354	2142.12
985.577	2082.12
985.799	2073.12
986.021	1989.12
986.243	2021.12
986.465	2032.12
986.687	2047.12
986.909	2094.12
987.131	2016.12
987.353	2006.12
987.575	2028.12
987.797	1977.12
988.019	1931.12
988.241	2016.12
988.462	1952.12
988.684	1995.12
988.906	2038.12
989.127	2025.12
989.349	1919.12
989.57	1961.12
989.792	2002.12
990.013	2027.12
990.234	2016.12
990.456	2018.12
990.677	1969.12
990.898	1937.12
991.119	1912.12
991.341	1958.12
991.562	1892.12
991.783	1951.12
992.004	1843.12
992.225	1828.12
992.446	1883.12
992.667	1783.12
992.887	1890.12
993.108	1781.12
993.329	1912.12
993.55	1857.12
993.77	1821.12
993.991	1735.12
994.212	1802.12
994.432	1792.12
994.653	1828.12
994.873	1792.12
995.093	1687.12
995.314	1713.12
995.534	1784.12
995.754	1770.12
995.975	1824.12
996.195	1729.12
996.415	1765.12
996.635	1723.12
996.855	1759.12
997.075	1752.12
997.295	1715.12
997.515	1717.12
997.735	1757.12
997.955	1737.12
998.174	1728.12
998.394	1699.12
998.614	1738.12
998.834	1689.12
999.053	1775.12
999.273	1706.12
999.492	1777.12
999.712	1723.12
999.931	1666.12
1000.151	1706.12
1000.37	1684.12
1000.589	1741.12
1000.809	1642.12
1001.028	1766.12
1001.247	1669.12
1001.466	1588.12
1001.685	1744.12
1001.904	1660.12
1002.123	1658.12
1002.342	1655.12
1002.561	1625.12
1002.78	1656.12
1002.999	1688.12
1003.218	1639.12
1003.436	1586.12
1003.655	1657.12
1003.874	1605.12
1004.092	1603.12
1004.311	1629.12
1004.53	1602.12
1004.748	1670.12
1004.966	1593.12
1005.185	1632.12
1005.403	1647.12
1005.622	1588.12
1005.84	1710.12
1006.058	1573.12
1006.276	1593.12
1006.494	2108.12
1006.712	1572.12
1006.931	1648.12
1007.149	1572.12
1007.367	1574.12
1007.584	1629.12
1007.802	1667.12
1008.02	1603.12
1008.238	1700.12
1008.456	1701.12
1008.673	1559.12
1008.891	1682.12
1009.109	1647.12
1009.326	1676.12
1009.544	1764.12
1009.761	1695.12
1009.979	1819.12
1010.196	1807.12
1010.413	1948.12
1010.631	1973.12
1010.848	2029.12
1011.065	2047.12
1011.282	1949.12
1011.5	1883.12
1011.717	2033.12
1011.934	1943.12
1012.151	2024.12
1012.368	1959.12
1012.585	1907.12
1012.801	1951.12
1013.018	1903.12
1013.235	1886.12
1013.452	1924.12
1013.669	1926.12
1013.885	1920.12
1014.102	1982.12
1014.318	1888.12
1014.535	1884.12
1014.751	1912.12
1014.968	1928.12
1015.184	1897.12
1015.401	1830.12
1015.617	1864.12
1015.833	1807.12
1016.049	1819.12
1016.266	1773.12
1016.482	1818.12
1016.698	1705.12
1016.914	1744.12
1017.13	1687.12
1017.346	1691.12
1017.562	1737.12
1017.778	1663.12
1017.993	1630.12
1018.209	1696.12
1018.425	1684.12
1018.641	1640.12
1018.856	1614.12
1019.072	1654.12
1019.288	1654.12
1019.503	1626.12
1019.719	1536.12
1019.934	1573.12
1020.149	1653.12
1020.365	1578.12
1020.58	1531.12
1020.795	1552.12
1021.011	1485.12
1021.226	1470.12
1021.441	1495.12
1021.656	1400.12
1021.871	1326.12
1022.086	1318.12
1022.301	1330.12
1022.516	1296.12
1022.731	1331.12
1022.946	1261.12
1023.16	1244.12
1023.375	1212.12
1023.59	1199.12
1023.804	1156.12
1024.019	1258.12
1024.234	1120.12
1024.448	1158.12
1024.663	1081.12
1024.877	1066.12
1025.092	1094.12
1025.306	1100.12
1025.52	987.12
1025.734	1087.12
1025.949	985.12
1026.163	970.12
1026.377	906.12
1026.591	954.12
1026.805	883.12
1027.019	884.12
1027.233	864.12
1027.447	798.12
1027.661	873.12
1027.875	826.12
1028.088	853.12
1028.302	771.12
1028.516	735.12
1028.73	756.12
1028.943	731.12
1029.157	693.12
1029.37	640.12
1029.584	-1.88
1029.797	-0.88
1030.011	-2.88
1030.224	0.12
