Data from QEP037381__190__15-55-09-889.txt Node

Date: Fri Dec 16 15:55:09 EST 2022
User: dcclab
Spectrometer: QEP03738
Trigger mode: 4
Integration Time (sec): 1.000000E1
Scans to average: 1
Electric dark correction enabled: true
Nonlinearity correction enabled: false
Boxcar width: 0
XAxis mode: Wavelengths
Number of Pixels in Spectrum: 1044
>>>>>Begin Spectral Data<<<<<
784.041	11.12
784.3	1.12
784.558	-1.88
784.817	-3.88
785.075	111213.12
785.334	19239.12
785.592	9063.12
785.851	6229.12
786.109	4688.12
786.368	3647.12
786.626	2978.12
786.884	2459.12
787.143	2010.12
787.401	1669.12
787.659	1490.12
787.917	1291.12
788.175	1170.12
788.433	1051.12
788.691	919.12
788.949	858.12
789.207	805.12
789.465	697.12
789.723	669.12
789.98	625.12
790.238	656.12
790.496	612.12
790.753	581.12
791.011	629.12
791.268	554.12
791.526	557.12
791.783	551.12
792.041	554.12
792.298	455.12
792.556	513.12
792.813	501.12
793.07	483.12
793.327	456.12
793.584	524.12
793.841	464.12
794.099	494.12
794.356	542.12
794.613	438.12
794.869	479.12
795.126	442.12
795.383	435.12
795.64	437.12
795.897	394.12
796.153	449.12
796.41	439.12
796.667	429.12
796.923	433.12
797.18	447.12
797.436	449.12
797.693	407.12
797.949	487.12
798.206	515.12
798.462	422.12
798.718	473.12
798.974	467.12
799.231	499.12
799.487	480.12
799.743	494.12
799.999	511.12
800.255	524.12
800.511	495.12
800.767	550.12
801.023	537.12
801.279	572.12
801.534	611.12
801.79	685.12
802.046	677.12
802.302	839.12
802.557	953.12
802.813	1163.12
803.068	1450.12
803.324	2012.12
803.579	2708.12
803.835	3735.12
804.09	5166.12
804.345	6724.12
804.601	8526.12
804.856	10248.12
805.111	11830.12
805.366	13094.12
805.621	14032.12
805.876	14560.12
806.131	14985.12
806.386	15281.12
806.641	15491.12
806.896	15705.12
807.151	16056.12
807.406	16296.12
807.661	16578.12
807.915	16717.12
808.17	17064.12
808.425	17260.12
808.679	17252.12
808.934	17554.12
809.188	17605.12
809.443	17753.12
809.697	17947.12
809.951	18197.12
810.206	18341.12
810.46	18407.12
810.714	18698.12
810.968	18859.12
811.223	18974.12
811.477	19054.12
811.731	19257.12
811.985	19183.12
812.239	19287.12
812.493	19410.12
812.747	19474.12
813	19503.12
813.254	19613.12
813.508	19737.12
813.762	19789.12
814.015	19837.12
814.269	19911.12
814.522	20130.12
814.776	20371.12
815.03	20650.12
815.283	20861.12
815.536	21210.12
815.79	21521.12
816.043	21740.12
816.296	22046.12
816.55	22277.12
816.803	22488.12
817.056	22862.12
817.309	22894.12
817.562	23138.12
817.815	23307.12
818.068	23443.12
818.321	23757.12
818.574	23876.12
818.827	24269.12
819.079	24510.12
819.332	24979.12
819.585	25269.12
819.838	25536.12
820.09	25617.12
820.343	25751.12
820.595	25869.12
820.848	26121.12
821.1	26161.12
821.353	26140.12
821.605	26070.12
821.857	26165.12
822.11	25910.12
822.362	25904.12
822.614	25896.12
822.866	25872.12
823.118	25804.12
823.37	25936.12
823.622	26005.12
823.874	26058.12
824.126	26197.12
824.378	26233.12
824.63	26147.12
824.882	26179.12
825.134	26264.12
825.385	26242.12
825.637	26073.12
825.888	26063.12
826.14	26011.12
826.392	25877.12
826.643	25779.12
826.895	25620.12
827.146	25558.12
827.397	25420.12
827.649	25491.12
827.9	25296.12
828.151	25516.12
828.402	25388.12
828.653	25603.12
828.905	25647.12
829.156	25631.12
829.407	25555.12
829.658	25675.12
829.909	25784.12
830.159	25750.12
830.41	25698.12
830.661	25451.12
830.912	25245.12
831.162	25002.12
831.413	25085.12
831.664	25071.12
831.914	24937.12
832.165	25036.12
832.415	24997.12
832.666	24919.12
832.916	24997.12
833.167	25021.12
833.417	24981.12
833.667	24803.12
833.917	24722.12
834.168	24801.12
834.418	24713.12
834.668	24576.12
834.918	24391.12
835.168	24312.12
835.418	24139.12
835.668	24114.12
835.918	24036.12
836.167	23962.12
836.417	23892.12
836.667	23917.12
836.917	23924.12
837.166	23876.12
837.416	24003.12
837.666	23834.12
837.915	23877.12
838.165	23773.12
838.414	23641.12
838.663	23527.12
838.913	23697.12
839.162	23535.12
839.411	23504.12
839.661	23483.12
839.91	23405.12
840.159	23323.12
840.408	23320.12
840.657	23269.12
840.906	23267.12
841.155	23325.12
841.404	23226.12
841.653	23080.12
841.902	23242.12
842.15	23196.12
842.399	23288.12
842.648	23128.12
842.897	23225.12
843.145	23012.12
843.394	22857.12
843.642	22653.12
843.891	22597.12
844.139	22555.12
844.388	22261.12
844.636	22131.12
844.884	22279.12
845.133	22194.12
845.381	22184.12
845.629	22278.12
845.877	22134.12
846.125	21959.12
846.373	22122.12
846.621	21863.12
846.869	21863.12
847.117	21704.12
847.365	21644.12
847.613	21502.12
847.861	21439.12
848.108	21369.12
848.356	21404.12
848.604	21347.12
848.851	21402.12
849.099	21311.12
849.346	21267.12
849.594	21521.12
849.841	21422.12
850.089	21498.12
850.336	21447.12
850.583	21461.12
850.831	21369.12
851.078	21136.12
851.325	21314.12
851.572	21177.12
851.819	21111.12
852.066	20773.12
852.313	20430.12
852.56	20387.12
852.807	20223.12
853.054	20067.12
853.301	20164.12
853.548	20165.12
853.794	20256.12
854.041	20292.12
854.288	20314.12
854.534	20517.12
854.781	20507.12
855.028	20400.12
855.274	20413.12
855.52	20287.12
855.767	20287.12
856.013	20229.12
856.26	20491.12
856.506	20058.12
856.752	19940.12
856.998	19984.12
857.244	20004.12
857.49	20117.12
857.736	20099.12
857.982	20158.12
858.228	19966.12
858.474	19745.12
858.72	19772.12
858.966	19573.12
859.212	19382.12
859.458	19222.12
859.703	18967.12
859.949	18739.12
860.195	18639.12
860.44	18604.12
860.686	18448.12
860.931	18564.12
861.177	18403.12
861.422	18313.12
861.667	18327.12
861.913	18218.12
862.158	18179.12
862.403	18240.12
862.648	18299.12
862.893	18311.12
863.138	18186.12
863.384	18168.12
863.629	18172.12
863.873	18174.12
864.118	18105.12
864.363	17955.12
864.608	17946.12
864.853	17846.12
865.098	17796.12
865.342	17644.12
865.587	17558.12
865.832	17523.12
866.076	17491.12
866.321	17496.12
866.565	17395.12
866.81	17253.12
867.054	17304.12
867.298	17237.12
867.543	17114.12
867.787	17294.12
868.031	17066.12
868.275	17091.12
868.519	16951.12
868.764	17020.12
869.008	17059.12
869.252	16877.12
869.496	16904.12
869.739	16776.12
869.983	16794.12
870.227	16845.12
870.471	16707.12
870.715	16853.12
870.958	16829.12
871.202	16878.12
871.446	16945.12
871.689	16889.12
871.933	16947.12
872.176	16953.12
872.42	16934.12
872.663	16791.12
872.906	16850.12
873.15	16756.12
873.393	16703.12
873.636	16775.12
873.879	16543.12
874.122	16416.12
874.366	16248.12
874.609	15962.12
874.852	15863.12
875.095	15812.12
875.337	15696.12
875.58	15514.12
875.823	15524.12
876.066	15450.12
876.309	15510.12
876.551	15304.12
876.794	15236.12
877.037	15303.12
877.279	15144.12
877.522	15175.12
877.764	15215.12
878.007	15164.12
878.249	15102.12
878.491	15037.12
878.734	15030.12
878.976	14992.12
879.218	14935.12
879.46	14852.12
879.702	14683.12
879.945	14511.12
880.187	14474.12
880.429	14323.12
880.671	14299.12
880.912	14307.12
881.154	14185.12
881.396	14022.12
881.638	14132.12
881.88	14130.12
882.121	14145.12
882.363	14108.12
882.605	14167.12
882.846	14053.12
883.088	13961.12
883.329	13977.12
883.571	13979.12
883.812	14170.12
884.053	14449.12
884.295	14721.12
884.536	14878.12
884.777	14738.12
885.018	14626.12
885.259	14478.12
885.5	14446.12
885.742	14704.12
885.982	14418.12
886.223	14234.12
886.464	14104.12
886.705	14034.12
886.946	13850.12
887.187	13571.12
887.428	13576.12
887.668	13351.12
887.909	13096.12
888.15	12972.12
888.39	12856.12
888.631	12880.12
888.871	12636.12
889.111	12612.12
889.352	12503.12
889.592	12411.12
889.833	12256.12
890.073	12242.12
890.313	12169.12
890.553	11985.12
890.793	12049.12
891.033	11917.12
891.273	11844.12
891.513	11801.12
891.753	11870.12
891.993	11749.12
892.233	11876.12
892.473	11856.12
892.713	11834.12
892.952	11733.12
893.192	11797.12
893.432	11719.12
893.671	11805.12
893.911	11697.12
894.15	11650.12
894.39	11516.12
894.629	11511.12
894.869	11418.12
895.108	11387.12
895.347	11272.12
895.587	11267.12
895.826	11206.12
896.065	11153.12
896.304	11186.12
896.543	11301.12
896.782	11043.12
897.021	11165.12
897.26	11024.12
897.499	11130.12
897.738	11052.12
897.977	10888.12
898.216	10865.12
898.454	10747.12
898.693	10657.12
898.932	10668.12
899.17	10562.12
899.409	10600.12
899.647	10590.12
899.886	10544.12
900.124	10604.12
900.363	10493.12
900.601	10551.12
900.839	10548.12
901.078	10576.12
901.316	10630.12
901.554	10614.12
901.792	10617.12
902.03	10638.12
902.268	10644.12
902.506	10671.12
902.744	10614.12
902.982	10524.12
903.22	10307.12
903.458	10206.12
903.695	10163.12
903.933	9983.12
904.171	9763.12
904.409	9623.12
904.646	9607.12
904.884	9384.12
905.121	9287.12
905.359	9200.12
905.596	9220.12
905.833	9030.12
906.071	9030.12
906.308	9025.12
906.545	8994.12
906.783	8913.12
907.02	8916.12
907.257	8785.12
907.494	8754.12
907.731	8853.12
907.968	8742.12
908.205	8660.12
908.442	8638.12
908.679	8638.12
908.915	8571.12
909.152	8508.12
909.389	8396.12
909.626	8379.12
909.862	8217.12
910.099	8275.12
910.335	8281.12
910.572	8178.12
910.808	8129.12
911.045	8087.12
911.281	8017.12
911.518	8091.12
911.754	7961.12
911.99	7944.12
912.226	7924.12
912.463	7810.12
912.699	7779.12
912.935	7736.12
913.171	7628.12
913.407	7581.12
913.643	7587.12
913.879	7549.12
914.114	7417.12
914.35	7359.12
914.586	7294.12
914.822	7227.12
915.057	7215.12
915.293	7097.12
915.529	7052.12
915.764	7163.12
916	7083.12
916.235	7065.12
916.471	7018.12
916.706	6961.12
916.941	6940.12
917.177	6945.12
917.412	6970.12
917.647	6960.12
917.882	6929.12
918.117	6958.12
918.352	6866.12
918.588	6904.12
918.823	6762.12
919.057	6772.12
919.292	6621.12
919.527	6654.12
919.762	6473.12
919.997	6576.12
920.232	6413.12
920.466	6432.12
920.701	6253.12
920.935	6304.12
921.17	6188.12
921.405	6167.12
921.639	6198.12
921.873	6182.12
922.108	6180.12
922.342	6155.12
922.576	6069.12
922.811	6062.12
923.045	6090.12
923.279	6096.12
923.513	5901.12
923.747	5995.12
923.981	5914.12
924.215	5928.12
924.449	5822.12
924.683	5744.12
924.917	5769.12
925.151	5739.12
925.385	5782.12
925.618	5722.12
925.852	5703.12
926.086	5644.12
926.319	5644.12
926.553	5634.12
926.786	5646.12
927.02	5605.12
927.253	5665.12
927.486	5683.12
927.72	5549.12
927.953	5618.12
928.186	5530.12
928.42	5574.12
928.653	5510.12
928.886	5423.12
929.119	5507.12
929.352	5439.12
929.585	5386.12
929.818	5353.12
930.051	5325.12
930.284	5361.12
930.516	5153.12
930.749	5186.12
930.982	5165.12
931.215	5236.12
931.447	5074.12
931.68	5094.12
931.912	5046.12
932.145	5061.12
932.377	5088.12
932.61	5173.12
932.842	5012.12
933.074	5084.12
933.307	5047.12
933.539	5126.12
933.771	5092.12
934.003	4986.12
934.236	5116.12
934.468	5128.12
934.7	4990.12
934.932	5019.12
935.164	4942.12
935.395	4869.12
935.627	4942.12
935.859	4931.12
936.091	4881.12
936.323	4911.12
936.554	4910.12
936.786	4907.12
937.017	4767.12
937.249	4804.12
937.481	4735.12
937.712	4820.12
937.943	4793.12
938.175	4725.12
938.406	4728.12
938.637	4776.12
938.869	4680.12
939.1	4756.12
939.331	4717.12
939.562	4687.12
939.793	4657.12
940.024	4676.12
940.255	4694.12
940.486	4665.12
940.717	4597.12
940.948	4616.12
941.179	4499.12
941.409	4538.12
941.64	4495.12
941.871	4551.12
942.102	4503.12
942.332	4511.12
942.563	4509.12
942.793	4510.12
943.024	4463.12
943.254	4494.12
943.484	4549.12
943.715	4525.12
943.945	4492.12
944.175	4417.12
944.405	4400.12
944.636	4449.12
944.866	4411.12
945.096	4454.12
945.326	4380.12
945.556	4374.12
945.786	4428.12
946.016	4375.12
946.245	4275.12
946.475	4277.12
946.705	4246.12
946.935	4301.12
947.164	4247.12
947.394	4191.12
947.624	4156.12
947.853	4223.12
948.083	4157.12
948.312	4129.12
948.542	4050.12
948.771	4076.12
949	4084.12
949.23	4048.12
949.459	4050.12
949.688	4083.12
949.917	4058.12
950.146	4003.12
950.375	4041.12
950.604	4052.12
950.833	4101.12
951.062	4020.12
951.291	4021.12
951.52	3966.12
951.749	4002.12
951.978	3909.12
952.206	3929.12
952.435	3879.12
952.664	3927.12
952.892	3913.12
953.121	3843.12
953.349	3920.12
953.578	3887.12
953.806	3849.12
954.035	3813.12
954.263	3854.12
954.491	3762.12
954.719	3786.12
954.948	3728.12
955.176	3698.12
955.404	3660.12
955.632	3678.12
955.86	3683.12
956.088	3679.12
956.316	3707.12
956.544	3641.12
956.772	3615.12
956.999	3563.12
957.227	3631.12
957.455	3532.12
957.683	3551.12
957.91	3532.12
958.138	3501.12
958.365	3488.12
958.593	3487.12
958.82	3405.12
959.048	3426.12
959.275	3462.12
959.502	3428.12
959.73	3391.12
959.957	3424.12
960.184	3439.12
960.411	3324.12
960.638	3454.12
960.865	3383.12
961.092	3394.12
961.319	3265.12
961.546	3377.12
961.773	3384.12
962	3336.12
962.227	3378.12
962.454	3348.12
962.68	3330.12
962.907	3317.12
963.134	3258.12
963.36	3275.12
963.587	3310.12
963.813	3201.12
964.04	3242.12
964.266	3166.12
964.493	3245.12
964.719	3177.12
964.945	3184.12
965.171	3088.12
965.398	3138.12
965.624	3141.12
965.85	3040.12
966.076	3014.12
966.302	3105.12
966.528	3057.12
966.754	3098.12
966.98	3085.12
967.206	3046.12
967.431	2971.12
967.657	3102.12
967.883	3012.12
968.109	3026.12
968.334	2964.12
968.56	2952.12
968.785	2985.12
969.011	2940.12
969.236	2955.12
969.462	2872.12
969.687	2891.12
969.912	2938.12
970.138	2950.12
970.363	2843.12
970.588	2872.12
970.813	2831.12
971.038	2830.12
971.263	2852.12
971.488	2884.12
971.713	2867.12
971.938	2856.12
972.163	2777.12
972.388	2788.12
972.613	2776.12
972.838	2754.12
973.062	2719.12
973.287	2727.12
973.512	2663.12
973.736	2707.12
973.961	2676.12
974.185	2638.12
974.41	2629.12
974.634	2596.12
974.858	2564.12
975.083	2612.12
975.307	2649.12
975.531	2563.12
975.755	2529.12
975.98	2570.12
976.204	2473.12
976.428	2447.12
976.652	2454.12
976.876	2431.12
977.1	2496.12
977.324	2433.12
977.547	2481.12
977.771	2501.12
977.995	2450.12
978.219	2394.12
978.442	2496.12
978.666	2429.12
978.89	2417.12
979.113	2458.12
979.337	2404.12
979.56	2366.12
979.783	2469.12
980.007	2352.12
980.23	2380.12
980.453	2324.12
980.677	2361.12
980.9	2342.12
981.123	2269.12
981.346	2341.12
981.569	2321.12
981.792	2326.12
982.015	2319.12
982.238	2268.12
982.461	2280.12
982.684	2211.12
982.907	2186.12
983.129	2191.12
983.352	2265.12
983.575	2223.12
983.797	2202.12
984.02	2164.12
984.242	2205.12
984.465	2175.12
984.687	2220.12
984.91	2202.12
985.132	2171.12
985.354	2139.12
985.577	2164.12
985.799	2114.12
986.021	2059.12
986.243	2089.12
986.465	2102.12
986.687	2135.12
986.909	2134.12
987.131	2095.12
987.353	2074.12
987.575	2111.12
987.797	2083.12
988.019	1996.12
988.241	2056.12
988.462	1998.12
988.684	2063.12
988.906	2087.12
989.127	2097.12
989.349	1951.12
989.57	1999.12
989.792	2067.12
990.013	2067.12
990.234	2071.12
990.456	2071.12
990.677	2063.12
990.898	1994.12
991.119	1979.12
991.341	1997.12
991.562	1956.12
991.783	1975.12
992.004	1890.12
992.225	1880.12
992.446	1954.12
992.667	1857.12
992.887	1956.12
993.108	1834.12
993.329	1971.12
993.55	1887.12
993.77	1845.12
993.991	1836.12
994.212	1863.12
994.432	1847.12
994.653	1849.12
994.873	1875.12
995.093	1722.12
995.314	1784.12
995.534	1861.12
995.754	1888.12
995.975	1882.12
996.195	1776.12
996.415	1810.12
996.635	1782.12
996.855	1801.12
997.075	1777.12
997.295	1737.12
997.515	1779.12
997.735	1815.12
997.955	1779.12
998.174	1766.12
998.394	1721.12
998.614	1796.12
998.834	1731.12
999.053	1766.12
999.273	1748.12
999.492	1803.12
999.712	1740.12
999.931	1712.12
1000.151	1739.12
1000.37	1726.12
1000.589	1741.12
1000.809	1713.12
1001.028	1805.12
1001.247	1744.12
1001.466	1642.12
1001.685	1766.12
1001.904	1705.12
1002.123	1673.12
1002.342	1690.12
1002.561	1616.12
1002.78	1673.12
1002.999	1709.12
1003.218	1656.12
1003.436	1634.12
1003.655	1671.12
1003.874	1635.12
1004.092	1660.12
1004.311	1684.12
1004.53	1638.12
1004.748	1695.12
1004.966	1632.12
1005.185	1653.12
1005.403	1661.12
1005.622	1646.12
1005.84	1736.12
1006.058	1597.12
1006.276	1628.12
1006.494	2141.12
1006.712	1606.12
1006.931	1703.12
1007.149	1592.12
1007.367	1606.12
1007.584	1656.12
1007.802	1678.12
1008.02	1636.12
1008.238	1728.12
1008.456	1726.12
1008.673	1546.12
1008.891	1720.12
1009.109	1643.12
1009.326	1718.12
1009.544	1793.12
1009.761	1720.12
1009.979	1792.12
1010.196	1836.12
1010.413	1958.12
1010.631	1995.12
1010.848	2050.12
1011.065	2047.12
1011.282	1984.12
1011.5	1960.12
1011.717	2039.12
1011.934	1983.12
1012.151	2029.12
1012.368	1963.12
1012.585	1941.12
1012.801	2006.12
1013.018	1939.12
1013.235	1914.12
1013.452	1934.12
1013.669	1940.12
1013.885	1942.12
1014.102	1983.12
1014.318	1961.12
1014.535	1883.12
1014.751	1922.12
1014.968	1933.12
1015.184	1947.12
1015.401	1847.12
1015.617	1865.12
1015.833	1819.12
1016.049	1816.12
1016.266	1817.12
1016.482	1799.12
1016.698	1715.12
1016.914	1767.12
1017.13	1709.12
1017.346	1710.12
1017.562	1733.12
1017.778	1698.12
1017.993	1657.12
1018.209	1697.12
1018.425	1696.12
1018.641	1651.12
1018.856	1590.12
1019.072	1640.12
1019.288	1716.12
1019.503	1655.12
1019.719	1583.12
1019.934	1591.12
1020.149	1669.12
1020.365	1577.12
1020.58	1531.12
1020.795	1568.12
1021.011	1487.12
1021.226	1472.12
1021.441	1525.12
1021.656	1399.12
1021.871	1331.12
1022.086	1326.12
1022.301	1343.12
1022.516	1292.12
1022.731	1328.12
1022.946	1257.12
1023.16	1252.12
1023.375	1233.12
1023.59	1179.12
1023.804	1168.12
1024.019	1241.12
1024.234	1121.12
1024.448	1147.12
1024.663	1072.12
1024.877	1094.12
1025.092	1110.12
1025.306	1089.12
1025.52	995.12
1025.734	1095.12
1025.949	1000.12
1026.163	981.12
1026.377	915.12
1026.591	968.12
1026.805	910.12
1027.019	880.12
1027.233	853.12
1027.447	791.12
1027.661	888.12
1027.875	825.12
1028.088	845.12
1028.302	762.12
1028.516	732.12
1028.73	744.12
1028.943	748.12
1029.157	686.12
1029.37	661.12
1029.584	0.12
1029.797	-1.88
1030.011	-2.88
1030.224	-1.88
