Data from QEP037381__186__15-54-29-889.txt Node

Date: Fri Dec 16 15:54:29 EST 2022
User: dcclab
Spectrometer: QEP03738
Trigger mode: 4
Integration Time (sec): 1.000000E1
Scans to average: 1
Electric dark correction enabled: true
Nonlinearity correction enabled: false
Boxcar width: 0
XAxis mode: Wavelengths
Number of Pixels in Spectrum: 1044
>>>>>Begin Spectral Data<<<<<
784.041	12
784.3	-4
784.558	-2
784.817	0
785.075	112427
785.334	19315
785.592	9013
785.851	6200
786.109	4702
786.368	3634
786.626	2991
786.884	2444
787.143	2063
787.401	1724
787.659	1520
787.917	1310
788.175	1200
788.433	1038
788.691	942
788.949	866
789.207	816
789.465	723
789.723	683
789.98	636
790.238	657
790.496	622
790.753	601
791.011	650
791.268	556
791.526	552
791.783	564
792.041	545
792.298	472
792.556	545
792.813	522
793.07	495
793.327	471
793.584	540
793.841	475
794.099	494
794.356	556
794.613	459
794.869	465
795.126	434
795.383	422
795.64	456
795.897	401
796.153	460
796.41	450
796.667	417
796.923	422
797.18	449
797.436	471
797.693	422
797.949	488
798.206	511
798.462	425
798.718	501
798.974	453
799.231	503
799.487	504
799.743	501
799.999	534
800.255	533
800.511	511
800.767	548
801.023	547
801.279	587
801.534	660
801.79	681
802.046	703
802.302	865
802.557	989
802.813	1244
803.068	1552
803.324	2163
803.579	2963
803.835	4074
804.09	5619
804.345	7373
804.601	9315
804.856	11329
805.111	12985
805.366	14416
805.621	15375
805.876	15966
806.131	16365
806.386	16743
806.641	16966
806.896	17236
807.151	17604
807.406	17884
807.661	18135
807.915	18389
808.17	18775
808.425	18870
808.679	19044
808.934	19285
809.188	19529
809.443	19555
809.697	19936
809.951	20023
810.206	20175
810.46	20272
810.714	20513
810.968	20685
811.223	20815
811.477	21101
811.731	21211
811.985	21337
812.239	21360
812.493	21447
812.747	21533
813	21569
813.254	21697
813.508	21779
813.762	21856
814.015	21965
814.269	22153
814.522	22271
814.776	22575
815.03	22831
815.283	23159
815.536	23545
815.79	23849
816.043	24165
816.296	24430
816.55	24619
816.803	24946
817.056	25289
817.309	25421
817.562	25665
817.815	25974
818.068	26113
818.321	26417
818.574	26629
818.827	26955
819.079	27267
819.332	27791
819.585	27999
819.838	28484
820.09	28552
820.343	28745
820.595	28840
820.848	29087
821.1	29257
821.353	29229
821.605	29087
821.857	29188
822.11	29101
822.362	28966
822.614	28913
822.866	28950
823.118	28934
823.37	28966
823.622	29067
823.874	29049
824.126	29283
824.378	29343
824.63	29311
824.882	29440
825.134	29356
825.385	29380
825.637	29167
825.888	29202
826.14	29077
826.392	28950
826.643	28840
826.895	28677
827.146	28570
827.397	28458
827.649	28576
827.9	28553
828.151	28479
828.402	28556
828.653	28627
828.905	28733
829.156	28753
829.407	28725
829.658	28722
829.909	28759
830.159	28745
830.41	28552
830.661	28465
830.912	28172
831.162	27970
831.413	27998
831.664	27955
831.914	28068
832.165	27976
832.415	27881
832.666	27938
832.916	27906
833.167	27922
833.417	27921
833.667	27718
833.917	27589
834.168	27595
834.418	27634
834.668	27337
834.918	27276
835.168	27187
835.418	26918
835.668	26973
835.918	26846
836.167	26838
836.417	26788
836.667	26753
836.917	26664
837.166	26663
837.416	26656
837.666	26552
837.915	26628
838.165	26474
838.414	26302
838.663	26263
838.913	26288
839.162	26238
839.411	26241
839.661	26021
839.91	26168
840.159	26003
840.408	25992
840.657	26010
840.906	25986
841.155	25929
841.404	25805
841.653	25881
841.902	25976
842.15	25962
842.399	25924
842.648	25862
842.897	25685
843.145	25564
843.394	25491
843.642	25358
843.891	25285
844.139	25043
844.388	24965
844.636	24815
844.884	24784
845.133	24767
845.381	24745
845.629	24841
845.877	24709
846.125	24724
846.373	24580
846.621	24369
846.869	24392
847.117	24286
847.365	24073
847.613	24030
847.861	23947
848.108	23947
848.356	23782
848.604	23737
848.851	23762
849.099	23895
849.346	23809
849.594	23884
849.841	23969
850.089	23978
850.336	23930
850.583	23991
850.831	23972
851.078	23747
851.325	23633
851.572	23679
851.819	23392
852.066	23004
852.313	22810
852.56	22691
852.807	22546
853.054	22486
853.301	22448
853.548	22484
853.794	22556
854.041	22597
854.288	22681
854.534	22879
854.781	22757
855.028	22722
855.274	22623
855.52	22592
855.767	22404
856.013	22475
856.26	22774
856.506	22190
856.752	22142
856.998	22175
857.244	22118
857.49	22284
857.736	22348
857.982	22398
858.228	22313
858.474	22060
858.72	21919
858.966	21839
859.212	21588
859.458	21257
859.703	21207
859.949	20931
860.195	20862
860.44	20712
860.686	20538
860.931	20558
861.177	20389
861.422	20439
861.667	20301
861.913	20250
862.158	20266
862.403	20362
862.648	20457
862.893	20431
863.138	20402
863.384	20362
863.629	20234
863.873	20205
864.118	20245
864.363	20051
864.608	20090
864.853	19929
865.098	19797
865.342	19661
865.587	19633
865.832	19656
866.076	19580
866.321	19465
866.565	19384
866.81	19342
867.054	19099
867.298	19235
867.543	19244
867.787	19212
868.031	18997
868.275	19050
868.519	18904
868.764	18952
869.008	18897
869.252	18960
869.496	18789
869.739	18750
869.983	18822
870.227	18703
870.471	18728
870.715	18809
870.958	18848
871.202	18728
871.446	18871
871.689	18820
871.933	18806
872.176	18813
872.42	18730
872.663	18647
872.906	18684
873.15	18568
873.393	18478
873.636	18503
873.879	18313
874.122	18148
874.366	17871
874.609	17728
874.852	17640
875.095	17481
875.337	17407
875.58	17303
875.823	17286
876.066	17301
876.309	17280
876.551	16963
876.794	16906
877.037	16971
877.279	16877
877.522	16876
877.764	16844
878.007	16818
878.249	16861
878.491	16755
878.734	16886
878.976	16747
879.218	16514
879.46	16527
879.702	16314
879.945	16359
880.187	16097
880.429	16018
880.671	15934
880.912	15880
881.154	15804
881.396	15746
881.638	15685
881.88	15743
882.121	15732
882.363	15777
882.605	15651
882.846	15664
883.088	15633
883.329	15582
883.571	15529
883.812	15657
884.053	15892
884.295	16175
884.536	16379
884.777	16169
885.018	15964
885.259	16059
885.5	15879
885.742	16123
885.982	15743
886.223	15647
886.464	15686
886.705	15476
886.946	15318
887.187	15057
887.428	15038
887.668	14747
887.909	14500
888.15	14430
888.39	14369
888.631	14317
888.871	14169
889.111	14033
889.352	13949
889.592	13774
889.833	13678
890.073	13610
890.313	13589
890.553	13367
890.793	13404
891.033	13331
891.273	13288
891.513	13152
891.753	13201
891.993	13186
892.233	13177
892.473	13222
892.713	13162
892.952	13185
893.192	13195
893.432	13086
893.671	13164
893.911	13029
894.15	12942
894.39	12819
894.629	12758
894.869	12777
895.108	12674
895.347	12542
895.587	12543
895.826	12479
896.065	12403
896.304	12489
896.543	12469
896.782	12333
897.021	12399
897.26	12351
897.499	12397
897.738	12330
897.977	12216
898.216	12067
898.454	12055
898.693	11873
898.932	11975
899.17	11830
899.409	11830
899.647	11769
899.886	11836
900.124	11734
900.363	11756
900.601	11661
900.839	11694
901.078	11756
901.316	11817
901.554	11802
901.792	11871
902.03	11835
902.268	11829
902.506	11861
902.744	11731
902.982	11674
903.22	11402
903.458	11374
903.695	11166
903.933	11022
904.171	10879
904.409	10735
904.646	10648
904.884	10421
905.121	10424
905.359	10282
905.596	10183
905.833	9998
906.071	10071
906.308	10053
906.545	9909
906.783	9868
907.02	9906
907.257	9860
907.494	9822
907.731	9896
907.968	9716
908.205	9727
908.442	9651
908.679	9638
908.915	9514
909.152	9436
909.389	9291
909.626	9267
909.862	9152
910.099	9164
910.335	9201
910.572	9017
910.808	9071
911.045	9055
911.281	8960
911.518	9009
911.754	8879
911.99	8871
912.226	8797
912.463	8764
912.699	8641
912.935	8603
913.171	8571
913.407	8449
913.643	8418
913.879	8378
914.114	8285
914.35	8198
914.586	8070
914.822	7991
915.057	8015
915.293	7829
915.529	7803
915.764	7894
916	7876
916.235	7896
916.471	7811
916.706	7759
916.941	7786
917.177	7740
917.412	7797
917.647	7739
917.882	7685
918.117	7710
918.352	7698
918.588	7649
918.823	7538
919.057	7493
919.292	7308
919.527	7391
919.762	7234
919.997	7310
920.232	7135
920.466	7084
920.701	6911
920.935	6963
921.17	6930
921.405	6812
921.639	6858
921.873	6812
922.108	6827
922.342	6820
922.576	6743
922.811	6706
923.045	6691
923.279	6743
923.513	6552
923.747	6643
923.981	6612
924.215	6528
924.449	6476
924.683	6356
924.917	6400
925.151	6351
925.385	6379
925.618	6398
925.852	6313
926.086	6153
926.319	6293
926.553	6255
926.786	6249
927.02	6283
927.253	6270
927.486	6226
927.72	6205
927.953	6209
928.186	6092
928.42	6136
928.653	6096
928.886	6036
929.119	6086
929.352	5989
929.585	6025
929.818	5915
930.051	5878
930.284	5877
930.516	5721
930.749	5730
930.982	5758
931.215	5778
931.447	5623
931.68	5620
931.912	5603
932.145	5585
932.377	5631
932.61	5713
932.842	5509
933.074	5564
933.307	5530
933.539	5628
933.771	5611
934.003	5547
934.236	5612
934.468	5611
934.7	5515
934.932	5556
935.164	5470
935.395	5457
935.627	5458
935.859	5444
936.091	5342
936.323	5427
936.554	5437
936.786	5353
937.017	5256
937.249	5372
937.481	5244
937.712	5308
937.943	5265
938.175	5257
938.406	5218
938.637	5266
938.869	5204
939.1	5233
939.331	5162
939.562	5206
939.793	5160
940.024	5193
940.255	5175
940.486	5091
940.717	5078
940.948	5042
941.179	4942
941.409	4987
941.64	5041
941.871	4995
942.102	4955
942.332	4986
942.563	5031
942.793	4967
943.024	4883
943.254	4937
943.484	4971
943.715	5012
943.945	4925
944.175	4880
944.405	4848
944.636	4867
944.866	4882
945.096	4964
945.326	4773
945.556	4870
945.786	4873
946.016	4822
946.245	4691
946.475	4704
946.705	4686
946.935	4671
947.164	4674
947.394	4584
947.624	4535
947.853	4620
948.083	4525
948.312	4520
948.542	4491
948.771	4510
949	4429
949.23	4432
949.459	4479
949.688	4552
949.917	4454
950.146	4470
950.375	4503
950.604	4330
950.833	4486
951.062	4473
951.291	4379
951.52	4322
951.749	4367
951.978	4313
952.206	4315
952.435	4312
952.664	4340
952.892	4316
953.121	4261
953.349	4303
953.578	4276
953.806	4225
954.035	4143
954.263	4177
954.491	4104
954.719	4149
954.948	4085
955.176	4070
955.404	4016
955.632	4037
955.86	4029
956.088	4030
956.316	4020
956.544	4049
956.772	3949
956.999	3929
957.227	4035
957.455	3892
957.683	3881
957.91	3837
958.138	3831
958.365	3875
958.593	3832
958.82	3749
959.048	3819
959.275	3741
959.502	3744
959.73	3727
959.957	3773
960.184	3729
960.411	3682
960.638	3784
960.865	3663
961.092	3724
961.319	3600
961.546	3729
961.773	3685
962	3649
962.227	3727
962.454	3678
962.68	3645
962.907	3633
963.134	3548
963.36	3584
963.587	3583
963.813	3534
964.04	3551
964.266	3427
964.493	3479
964.719	3473
964.945	3486
965.171	3367
965.398	3404
965.624	3422
965.85	3336
966.076	3308
966.302	3359
966.528	3334
966.754	3317
966.98	3308
967.206	3312
967.431	3265
967.657	3338
967.883	3348
968.109	3282
968.334	3191
968.56	3193
968.785	3176
969.011	3172
969.236	3225
969.462	3154
969.687	3156
969.912	3220
970.138	3210
970.363	3083
970.588	3194
970.813	3103
971.038	3058
971.263	3086
971.488	3110
971.713	3103
971.938	3119
972.163	2949
972.388	3021
972.613	2997
972.838	2997
973.062	2993
973.287	2978
973.512	2911
973.736	2906
973.961	2897
974.185	2917
974.41	2899
974.634	2835
974.858	2828
975.083	2835
975.307	2868
975.531	2803
975.755	2719
975.98	2757
976.204	2673
976.428	2669
976.652	2663
976.876	2653
977.1	2682
977.324	2632
977.547	2679
977.771	2707
977.995	2688
978.219	2602
978.442	2699
978.666	2628
978.89	2615
979.113	2594
979.337	2595
979.56	2592
979.783	2648
980.007	2530
980.23	2585
980.453	2509
980.677	2555
980.9	2553
981.123	2469
981.346	2544
981.569	2529
981.792	2523
982.015	2439
982.238	2438
982.461	2464
982.684	2410
982.907	2403
983.129	2380
983.352	2393
983.575	2391
983.797	2391
984.02	2337
984.242	2342
984.465	2339
984.687	2351
984.91	2376
985.132	2347
985.354	2344
985.577	2315
985.799	2292
986.021	2226
986.243	2264
986.465	2232
986.687	2282
986.909	2312
987.131	2263
987.353	2232
987.575	2250
987.797	2214
988.019	2143
988.241	2184
988.462	2132
988.684	2206
988.906	2248
989.127	2239
989.349	2105
989.57	2154
989.792	2214
990.013	2174
990.234	2197
990.456	2229
990.677	2186
990.898	2121
991.119	2144
991.341	2149
991.562	2114
991.783	2133
992.004	2066
992.225	2019
992.446	2036
992.667	1994
992.887	2061
993.108	1961
993.329	2073
993.55	2021
993.77	1967
993.991	1972
994.212	2008
994.432	1987
994.653	1982
994.873	1964
995.093	1879
995.314	1886
995.534	2010
995.754	1981
995.975	2006
996.195	1899
996.415	1920
996.635	1884
996.855	1898
997.075	1872
997.295	1886
997.515	1835
997.735	1922
997.955	1854
998.174	1872
998.394	1844
998.614	1885
998.834	1831
999.053	1878
999.273	1889
999.492	1917
999.712	1854
999.931	1796
1000.151	1823
1000.37	1826
1000.589	1877
1000.809	1784
1001.028	1920
1001.247	1845
1001.466	1702
1001.685	1892
1001.904	1807
1002.123	1778
1002.342	1780
1002.561	1738
1002.78	1750
1002.999	1814
1003.218	1744
1003.436	1724
1003.655	1746
1003.874	1682
1004.092	1718
1004.311	1753
1004.53	1710
1004.748	1792
1004.966	1719
1005.185	1772
1005.403	1730
1005.622	1727
1005.84	1790
1006.058	1689
1006.276	1716
1006.494	2176
1006.712	1720
1006.931	1774
1007.149	1663
1007.367	1699
1007.584	1747
1007.802	1782
1008.02	1692
1008.238	1803
1008.456	1793
1008.673	1677
1008.891	1756
1009.109	1732
1009.326	1786
1009.544	1859
1009.761	1769
1009.979	1885
1010.196	1881
1010.413	2011
1010.631	2034
1010.848	2091
1011.065	2085
1011.282	2035
1011.5	1927
1011.717	2060
1011.934	1980
1012.151	2017
1012.368	2005
1012.585	1966
1012.801	2005
1013.018	1960
1013.235	1923
1013.452	1954
1013.669	1950
1013.885	1928
1014.102	2009
1014.318	1976
1014.535	1926
1014.751	1937
1014.968	1936
1015.184	1946
1015.401	1864
1015.617	1889
1015.833	1810
1016.049	1833
1016.266	1805
1016.482	1831
1016.698	1768
1016.914	1801
1017.13	1725
1017.346	1707
1017.562	1780
1017.778	1698
1017.993	1656
1018.209	1737
1018.425	1678
1018.641	1656
1018.856	1660
1019.072	1656
1019.288	1742
1019.503	1673
1019.719	1597
1019.934	1612
1020.149	1702
1020.365	1615
1020.58	1546
1020.795	1580
1021.011	1535
1021.226	1507
1021.441	1544
1021.656	1452
1021.871	1368
1022.086	1378
1022.301	1334
1022.516	1332
1022.731	1370
1022.946	1310
1023.16	1302
1023.375	1268
1023.59	1234
1023.804	1181
1024.019	1306
1024.234	1176
1024.448	1207
1024.663	1123
1024.877	1125
1025.092	1137
1025.306	1143
1025.52	1030
1025.734	1116
1025.949	1047
1026.163	1021
1026.377	947
1026.591	994
1026.805	925
1027.019	918
1027.233	896
1027.447	837
1027.661	933
1027.875	858
1028.088	869
1028.302	796
1028.516	787
1028.73	772
1028.943	764
1029.157	721
1029.37	676
1029.584	-2
1029.797	-3
1030.011	-3
1030.224	2
