Data from QEP037381__223__16-00-39-894.txt Node

Date: Fri Dec 16 16:00:39 EST 2022
User: dcclab
Spectrometer: QEP03738
Trigger mode: 4
Integration Time (sec): 1.000000E1
Scans to average: 1
Electric dark correction enabled: true
Nonlinearity correction enabled: false
Boxcar width: 0
XAxis mode: Wavelengths
Number of Pixels in Spectrum: 1044
>>>>>Begin Spectral Data<<<<<
784.041	14.25
784.3	1.25
784.558	-2.75
784.817	-1.75
785.075	112329.25
785.334	19445.25
785.592	9094.25
785.851	6259.25
786.109	4701.25
786.368	3702.25
786.626	2908.25
786.884	2448.25
787.143	2047.25
787.401	1666.25
787.659	1513.25
787.917	1287.25
788.175	1179.25
788.433	1025.25
788.691	926.25
788.949	862.25
789.207	819.25
789.465	727.25
789.723	683.25
789.98	623.25
790.238	656.25
790.496	621.25
790.753	592.25
791.011	635.25
791.268	554.25
791.526	562.25
791.783	553.25
792.041	550.25
792.298	472.25
792.556	510.25
792.813	516.25
793.07	486.25
793.327	466.25
793.584	538.25
793.841	469.25
794.099	470.25
794.356	542.25
794.613	434.25
794.869	477.25
795.126	423.25
795.383	434.25
795.64	446.25
795.897	398.25
796.153	463.25
796.41	451.25
796.667	432.25
796.923	433.25
797.18	425.25
797.436	459.25
797.693	423.25
797.949	472.25
798.206	501.25
798.462	421.25
798.718	479.25
798.974	452.25
799.231	490.25
799.487	479.25
799.743	480.25
799.999	519.25
800.255	509.25
800.511	503.25
800.767	552.25
801.023	537.25
801.279	564.25
801.534	619.25
801.79	653.25
802.046	682.25
802.302	811.25
802.557	926.25
802.813	1129.25
803.068	1412.25
803.324	1921.25
803.579	2591.25
803.835	3564.25
804.09	4926.25
804.345	6415.25
804.601	8102.25
804.856	9792.25
805.111	11356.25
805.366	12532.25
805.621	13301.25
805.876	13943.25
806.131	14394.25
806.386	14648.25
806.641	14815.25
806.896	15045.25
807.151	15380.25
807.406	15590.25
807.661	15824.25
807.915	16178.25
808.17	16264.25
808.425	16520.25
808.679	16574.25
808.934	16741.25
809.188	16896.25
809.443	17103.25
809.697	17207.25
809.951	17303.25
810.206	17452.25
810.46	17718.25
810.714	17801.25
810.968	17996.25
811.223	18015.25
811.477	18228.25
811.731	18495.25
811.985	18344.25
812.239	18609.25
812.493	18627.25
812.747	18589.25
813	18749.25
813.254	18747.25
813.508	18724.25
813.762	18882.25
814.015	18934.25
814.269	19080.25
814.522	19229.25
814.776	19380.25
815.03	19621.25
815.283	19845.25
815.536	20222.25
815.79	20477.25
816.043	20780.25
816.296	21157.25
816.55	21285.25
816.803	21539.25
817.056	21776.25
817.309	22023.25
817.562	22036.25
817.815	22357.25
818.068	22443.25
818.321	22660.25
818.574	22946.25
818.827	23107.25
819.079	23365.25
819.332	23835.25
819.585	24110.25
819.838	24280.25
820.09	24373.25
820.343	24627.25
820.595	24660.25
820.848	24810.25
821.1	24968.25
821.353	24963.25
821.605	24934.25
821.857	24968.25
822.11	24813.25
822.362	24735.25
822.614	24746.25
822.866	24761.25
823.118	24632.25
823.37	24810.25
823.622	24844.25
823.874	24861.25
824.126	24931.25
824.378	24958.25
824.63	24985.25
824.882	25041.25
825.134	24965.25
825.385	25003.25
825.637	24964.25
825.888	24862.25
826.14	24778.25
826.392	24755.25
826.643	24545.25
826.895	24395.25
827.146	24271.25
827.397	24216.25
827.649	24212.25
827.9	24204.25
828.151	24156.25
828.402	24349.25
828.653	24373.25
828.905	24440.25
829.156	24443.25
829.407	24306.25
829.658	24468.25
829.909	24488.25
830.159	24410.25
830.41	24328.25
830.661	24210.25
830.912	24032.25
831.162	23824.25
831.413	23856.25
831.664	23943.25
831.914	23809.25
832.165	23930.25
832.415	23681.25
832.666	23823.25
832.916	23771.25
833.167	23667.25
833.417	23788.25
833.667	23617.25
833.917	23541.25
834.168	23525.25
834.418	23413.25
834.668	23448.25
834.918	23188.25
835.168	23108.25
835.418	22968.25
835.668	22888.25
835.918	22793.25
836.167	22847.25
836.417	22688.25
836.667	22685.25
836.917	22626.25
837.166	22541.25
837.416	22726.25
837.666	22585.25
837.915	22624.25
838.165	22546.25
838.414	22452.25
838.663	22408.25
838.913	22390.25
839.162	22362.25
839.411	22284.25
839.661	22144.25
839.91	22216.25
840.159	22122.25
840.408	22120.25
840.657	22047.25
840.906	22124.25
841.155	22094.25
841.404	22110.25
841.653	22028.25
841.902	21986.25
842.15	22175.25
842.399	22163.25
842.648	22085.25
842.897	21932.25
843.145	21800.25
843.394	21723.25
843.642	21608.25
843.891	21386.25
844.139	21383.25
844.388	21123.25
844.636	21110.25
844.884	21103.25
845.133	21103.25
845.381	21023.25
845.629	21028.25
845.877	20931.25
846.125	20969.25
846.373	20923.25
846.621	20759.25
846.869	20795.25
847.117	20724.25
847.365	20389.25
847.613	20312.25
847.861	20320.25
848.108	20410.25
848.356	20312.25
848.604	20111.25
848.851	20205.25
849.099	20171.25
849.346	20324.25
849.594	20318.25
849.841	20356.25
850.089	20450.25
850.336	20341.25
850.583	20374.25
850.831	20263.25
851.078	20065.25
851.325	20208.25
851.572	20114.25
851.819	19962.25
852.066	19678.25
852.313	19295.25
852.56	19150.25
852.807	19108.25
853.054	19124.25
853.301	19131.25
853.548	19062.25
853.794	19074.25
854.041	19201.25
854.288	19289.25
854.534	19459.25
854.781	19280.25
855.028	19344.25
855.274	19338.25
855.52	19305.25
855.767	19023.25
856.013	19139.25
856.26	19564.25
856.506	18938.25
856.752	18899.25
856.998	18936.25
857.244	19024.25
857.49	19069.25
857.736	19079.25
857.982	18978.25
858.228	18943.25
858.474	18756.25
858.72	18619.25
858.966	18518.25
859.212	18349.25
859.458	18096.25
859.703	18046.25
859.949	17789.25
860.195	17698.25
860.44	17598.25
860.686	17438.25
860.931	17523.25
861.177	17319.25
861.422	17255.25
861.667	17147.25
861.913	17181.25
862.158	17232.25
862.403	17301.25
862.648	17347.25
862.893	17391.25
863.138	17240.25
863.384	17121.25
863.629	17178.25
863.873	17229.25
864.118	17088.25
864.363	17020.25
864.608	16945.25
864.853	16825.25
865.098	16854.25
865.342	16770.25
865.587	16650.25
865.832	16720.25
866.076	16607.25
866.321	16487.25
866.565	16574.25
866.81	16362.25
867.054	16364.25
867.298	16195.25
867.543	16187.25
867.787	16182.25
868.031	16244.25
868.275	16144.25
868.519	16098.25
868.764	16110.25
869.008	16084.25
869.252	16035.25
869.496	15938.25
869.739	15918.25
869.983	15926.25
870.227	15958.25
870.471	15835.25
870.715	16005.25
870.958	16003.25
871.202	16062.25
871.446	15997.25
871.689	16003.25
871.933	16028.25
872.176	16000.25
872.42	15997.25
872.663	15919.25
872.906	15911.25
873.15	15881.25
873.393	15801.25
873.636	15917.25
873.879	15656.25
874.122	15472.25
874.366	15225.25
874.609	15123.25
874.852	14925.25
875.095	14959.25
875.337	14792.25
875.58	14782.25
875.823	14695.25
876.066	14722.25
876.309	14648.25
876.551	14473.25
876.794	14325.25
877.037	14401.25
877.279	14223.25
877.522	14359.25
877.764	14377.25
878.007	14207.25
878.249	14325.25
878.491	14187.25
878.734	14250.25
878.976	14149.25
879.218	14029.25
879.46	14045.25
879.702	13928.25
879.945	13804.25
880.187	13593.25
880.429	13593.25
880.671	13546.25
880.912	13469.25
881.154	13384.25
881.396	13288.25
881.638	13486.25
881.88	13326.25
882.121	13255.25
882.363	13229.25
882.605	13269.25
882.846	13323.25
883.088	13299.25
883.329	13234.25
883.571	13207.25
883.812	13321.25
884.053	13662.25
884.295	13927.25
884.536	14122.25
884.777	13954.25
885.018	13820.25
885.259	13762.25
885.5	13608.25
885.742	13794.25
885.982	13590.25
886.223	13493.25
886.464	13445.25
886.705	13212.25
886.946	13063.25
887.187	12857.25
887.428	12781.25
887.668	12529.25
887.909	12328.25
888.15	12230.25
888.39	12149.25
888.631	12090.25
888.871	11973.25
889.111	11950.25
889.352	11751.25
889.592	11723.25
889.833	11597.25
890.073	11565.25
890.313	11486.25
890.553	11338.25
890.793	11369.25
891.033	11307.25
891.273	11203.25
891.513	11184.25
891.753	11184.25
891.993	11162.25
892.233	11133.25
892.473	11194.25
892.713	11203.25
892.952	11161.25
893.192	11086.25
893.432	11093.25
893.671	11143.25
893.911	11100.25
894.15	11005.25
894.39	10853.25
894.629	10822.25
894.869	10836.25
895.108	10786.25
895.347	10639.25
895.587	10610.25
895.826	10622.25
896.065	10533.25
896.304	10582.25
896.543	10574.25
896.782	10480.25
897.021	10495.25
897.26	10465.25
897.499	10479.25
897.738	10457.25
897.977	10410.25
898.216	10198.25
898.454	10106.25
898.693	10092.25
898.932	10125.25
899.17	9964.25
899.409	10018.25
899.647	9965.25
899.886	9918.25
900.124	9932.25
900.363	9950.25
900.601	10018.25
900.839	10027.25
901.078	10001.25
901.316	10091.25
901.554	10074.25
901.792	10132.25
902.03	10110.25
902.268	10058.25
902.506	10100.25
902.744	9994.25
902.982	9993.25
903.22	9814.25
903.458	9737.25
903.695	9553.25
903.933	9400.25
904.171	9227.25
904.409	9180.25
904.646	9099.25
904.884	8875.25
905.121	8845.25
905.359	8721.25
905.596	8715.25
905.833	8538.25
906.071	8488.25
906.308	8571.25
906.545	8459.25
906.783	8362.25
907.02	8458.25
907.257	8336.25
907.494	8339.25
907.731	8367.25
907.968	8198.25
908.205	8184.25
908.442	8193.25
908.679	8197.25
908.915	8070.25
909.152	7968.25
909.389	7897.25
909.626	7902.25
909.862	7870.25
910.099	7856.25
910.335	7786.25
910.572	7687.25
910.808	7690.25
911.045	7682.25
911.281	7630.25
911.518	7711.25
911.754	7555.25
911.99	7553.25
912.226	7535.25
912.463	7437.25
912.699	7355.25
912.935	7303.25
913.171	7200.25
913.407	7124.25
913.643	7198.25
913.879	7057.25
914.114	7008.25
914.35	6952.25
914.586	6827.25
914.822	6810.25
915.057	6905.25
915.293	6695.25
915.529	6653.25
915.764	6711.25
916	6715.25
916.235	6650.25
916.471	6698.25
916.706	6587.25
916.941	6599.25
917.177	6587.25
917.412	6589.25
917.647	6599.25
917.882	6547.25
918.117	6552.25
918.352	6509.25
918.588	6539.25
918.823	6451.25
919.057	6391.25
919.292	6183.25
919.527	6280.25
919.762	6125.25
919.997	6210.25
920.232	6030.25
920.466	6039.25
920.701	5943.25
920.935	5875.25
921.17	5854.25
921.405	5857.25
921.639	5900.25
921.873	5789.25
922.108	5774.25
922.342	5807.25
922.576	5758.25
922.811	5708.25
923.045	5752.25
923.279	5774.25
923.513	5615.25
923.747	5643.25
923.981	5529.25
924.215	5501.25
924.449	5514.25
924.683	5403.25
924.917	5482.25
925.151	5407.25
925.385	5477.25
925.618	5363.25
925.852	5431.25
926.086	5323.25
926.319	5346.25
926.553	5375.25
926.786	5354.25
927.02	5280.25
927.253	5347.25
927.486	5278.25
927.72	5236.25
927.953	5344.25
928.186	5261.25
928.42	5281.25
928.653	5149.25
928.886	5138.25
929.119	5128.25
929.352	5104.25
929.585	5076.25
929.818	5059.25
930.051	5005.25
930.284	5009.25
930.516	4927.25
930.749	4882.25
930.982	4872.25
931.215	4902.25
931.447	4791.25
931.68	4825.25
931.912	4786.25
932.145	4760.25
932.377	4775.25
932.61	4917.25
932.842	4733.25
933.074	4811.25
933.307	4733.25
933.539	4787.25
933.771	4840.25
934.003	4739.25
934.236	4837.25
934.468	4880.25
934.7	4725.25
934.932	4742.25
935.164	4724.25
935.395	4640.25
935.627	4677.25
935.859	4679.25
936.091	4641.25
936.323	4631.25
936.554	4632.25
936.786	4554.25
937.017	4553.25
937.249	4552.25
937.481	4465.25
937.712	4561.25
937.943	4472.25
938.175	4478.25
938.406	4455.25
938.637	4499.25
938.869	4420.25
939.1	4510.25
939.331	4391.25
939.562	4438.25
939.793	4434.25
940.024	4412.25
940.255	4411.25
940.486	4381.25
940.717	4364.25
940.948	4344.25
941.179	4253.25
941.409	4287.25
941.64	4212.25
941.871	4294.25
942.102	4263.25
942.332	4274.25
942.563	4233.25
942.793	4271.25
943.024	4213.25
943.254	4201.25
943.484	4248.25
943.715	4265.25
943.945	4222.25
944.175	4144.25
944.405	4157.25
944.636	4170.25
944.866	4203.25
945.096	4173.25
945.326	4112.25
945.556	4154.25
945.786	4152.25
946.016	4081.25
946.245	4052.25
946.475	4025.25
946.705	4003.25
946.935	4020.25
947.164	4000.25
947.394	3963.25
947.624	3949.25
947.853	3956.25
948.083	3899.25
948.312	3852.25
948.542	3844.25
948.771	3822.25
949	3773.25
949.23	3811.25
949.459	3835.25
949.688	3817.25
949.917	3858.25
950.146	3784.25
950.375	3855.25
950.604	3780.25
950.833	3841.25
951.062	3857.25
951.291	3756.25
951.52	3758.25
951.749	3738.25
951.978	3690.25
952.206	3731.25
952.435	3690.25
952.664	3714.25
952.892	3682.25
953.121	3675.25
953.349	3716.25
953.578	3655.25
953.806	3638.25
954.035	3588.25
954.263	3585.25
954.491	3545.25
954.719	3564.25
954.948	3501.25
955.176	3509.25
955.404	3435.25
955.632	3468.25
955.86	3489.25
956.088	3444.25
956.316	3465.25
956.544	3482.25
956.772	3431.25
956.999	3359.25
957.227	3451.25
957.455	3320.25
957.683	3367.25
957.91	3285.25
958.138	3248.25
958.365	3262.25
958.593	3273.25
958.82	3198.25
959.048	3254.25
959.275	3206.25
959.502	3215.25
959.73	3207.25
959.957	3197.25
960.184	3241.25
960.411	3140.25
960.638	3268.25
960.865	3158.25
961.092	3218.25
961.319	3118.25
961.546	3138.25
961.773	3206.25
962	3141.25
962.227	3203.25
962.454	3157.25
962.68	3122.25
962.907	3111.25
963.134	3088.25
963.36	3103.25
963.587	3092.25
963.813	2993.25
964.04	3068.25
964.266	3001.25
964.493	3006.25
964.719	3017.25
964.945	3042.25
965.171	2885.25
965.398	2960.25
965.624	2942.25
965.85	2891.25
966.076	2878.25
966.302	2951.25
966.528	2901.25
966.754	2895.25
966.98	2887.25
967.206	2836.25
967.431	2805.25
967.657	2874.25
967.883	2854.25
968.109	2843.25
968.334	2784.25
968.56	2717.25
968.785	2807.25
969.011	2745.25
969.236	2774.25
969.462	2731.25
969.687	2740.25
969.912	2798.25
970.138	2772.25
970.363	2716.25
970.588	2760.25
970.813	2689.25
971.038	2676.25
971.263	2684.25
971.488	2698.25
971.713	2730.25
971.938	2672.25
972.163	2576.25
972.388	2629.25
972.613	2580.25
972.838	2619.25
973.062	2592.25
973.287	2595.25
973.512	2526.25
973.736	2562.25
973.961	2515.25
974.185	2520.25
974.41	2550.25
974.634	2430.25
974.858	2481.25
975.083	2483.25
975.307	2485.25
975.531	2440.25
975.755	2369.25
975.98	2365.25
976.204	2328.25
976.428	2339.25
976.652	2329.25
976.876	2313.25
977.1	2332.25
977.324	2302.25
977.547	2365.25
977.771	2344.25
977.995	2304.25
978.219	2256.25
978.442	2374.25
978.666	2289.25
978.89	2291.25
979.113	2287.25
979.337	2281.25
979.56	2231.25
979.783	2313.25
980.007	2220.25
980.23	2249.25
980.453	2216.25
980.677	2232.25
980.9	2233.25
981.123	2116.25
981.346	2225.25
981.569	2196.25
981.792	2190.25
982.015	2136.25
982.238	2132.25
982.461	2132.25
982.684	2129.25
982.907	2095.25
983.129	2103.25
983.352	2104.25
983.575	2076.25
983.797	2076.25
984.02	2060.25
984.242	2077.25
984.465	2061.25
984.687	2053.25
984.91	2098.25
985.132	2062.25
985.354	2073.25
985.577	2051.25
985.799	2039.25
986.021	1948.25
986.243	1978.25
986.465	1994.25
986.687	2068.25
986.909	2041.25
987.131	1980.25
987.353	1952.25
987.575	1984.25
987.797	1964.25
988.019	1882.25
988.241	1947.25
988.462	1908.25
988.684	1986.25
988.906	1978.25
989.127	1998.25
989.349	1909.25
989.57	1924.25
989.792	1948.25
990.013	1929.25
990.234	1982.25
990.456	1968.25
990.677	1922.25
990.898	1888.25
991.119	1888.25
991.341	1905.25
991.562	1863.25
991.783	1897.25
992.004	1834.25
992.225	1821.25
992.446	1846.25
992.667	1746.25
992.887	1834.25
993.108	1721.25
993.329	1884.25
993.55	1810.25
993.77	1771.25
993.991	1759.25
994.212	1776.25
994.432	1746.25
994.653	1774.25
994.873	1755.25
995.093	1632.25
995.314	1696.25
995.534	1788.25
995.754	1783.25
995.975	1764.25
996.195	1649.25
996.415	1735.25
996.635	1691.25
996.855	1741.25
997.075	1713.25
997.295	1676.25
997.515	1660.25
997.735	1750.25
997.955	1681.25
998.174	1697.25
998.394	1648.25
998.614	1701.25
998.834	1651.25
999.053	1742.25
999.273	1679.25
999.492	1718.25
999.712	1670.25
999.931	1613.25
1000.151	1695.25
1000.37	1658.25
1000.589	1713.25
1000.809	1630.25
1001.028	1720.25
1001.247	1668.25
1001.466	1555.25
1001.685	1721.25
1001.904	1605.25
1002.123	1623.25
1002.342	1591.25
1002.561	1578.25
1002.78	1608.25
1002.999	1664.25
1003.218	1604.25
1003.436	1563.25
1003.655	1594.25
1003.874	1565.25
1004.092	1577.25
1004.311	1593.25
1004.53	1570.25
1004.748	1658.25
1004.966	1536.25
1005.185	1607.25
1005.403	1608.25
1005.622	1586.25
1005.84	1661.25
1006.058	1551.25
1006.276	1574.25
1006.494	2061.25
1006.712	1561.25
1006.931	1619.25
1007.149	1524.25
1007.367	1522.25
1007.584	1580.25
1007.802	1602.25
1008.02	1548.25
1008.238	1627.25
1008.456	1661.25
1008.673	1535.25
1008.891	1679.25
1009.109	1608.25
1009.326	1626.25
1009.544	1744.25
1009.761	1690.25
1009.979	1778.25
1010.196	1776.25
1010.413	1852.25
1010.631	1931.25
1010.848	1986.25
1011.065	1987.25
1011.282	1928.25
1011.5	1871.25
1011.717	1966.25
1011.934	1916.25
1012.151	1949.25
1012.368	1920.25
1012.585	1833.25
1012.801	1909.25
1013.018	1889.25
1013.235	1867.25
1013.452	1849.25
1013.669	1881.25
1013.885	1862.25
1014.102	1877.25
1014.318	1899.25
1014.535	1821.25
1014.751	1866.25
1014.968	1868.25
1015.184	1899.25
1015.401	1786.25
1015.617	1796.25
1015.833	1767.25
1016.049	1749.25
1016.266	1721.25
1016.482	1757.25
1016.698	1634.25
1016.914	1680.25
1017.13	1643.25
1017.346	1633.25
1017.562	1721.25
1017.778	1646.25
1017.993	1604.25
1018.209	1686.25
1018.425	1633.25
1018.641	1604.25
1018.856	1567.25
1019.072	1624.25
1019.288	1638.25
1019.503	1594.25
1019.719	1492.25
1019.934	1524.25
1020.149	1608.25
1020.365	1551.25
1020.58	1463.25
1020.795	1507.25
1021.011	1469.25
1021.226	1443.25
1021.441	1441.25
1021.656	1350.25
1021.871	1312.25
1022.086	1294.25
1022.301	1283.25
1022.516	1271.25
1022.731	1316.25
1022.946	1235.25
1023.16	1220.25
1023.375	1187.25
1023.59	1172.25
1023.804	1130.25
1024.019	1228.25
1024.234	1099.25
1024.448	1108.25
1024.663	1079.25
1024.877	1059.25
1025.092	1070.25
1025.306	1069.25
1025.52	978.25
1025.734	1070.25
1025.949	972.25
1026.163	951.25
1026.377	896.25
1026.591	944.25
1026.805	869.25
1027.019	856.25
1027.233	811.25
1027.447	791.25
1027.661	878.25
1027.875	816.25
1028.088	817.25
1028.302	738.25
1028.516	748.25
1028.73	724.25
1028.943	704.25
1029.157	668.25
1029.37	643.25
1029.584	0.25
1029.797	-3.75
1030.011	-2.75
1030.224	-4.75
