Data from QEP037381__237__16-02-59-895.txt Node

Date: Fri Dec 16 16:02:59 EST 2022
User: dcclab
Spectrometer: QEP03738
Trigger mode: 4
Integration Time (sec): 1.000000E1
Scans to average: 1
Electric dark correction enabled: true
Nonlinearity correction enabled: false
Boxcar width: 0
XAxis mode: Wavelengths
Number of Pixels in Spectrum: 1044
>>>>>Begin Spectral Data<<<<<
784.041	10.25
784.3	2.25
784.558	-1.75
784.817	-2.75
785.075	113186.25
785.334	19890.25
785.592	9415.25
785.851	6600.25
786.109	4923.25
786.368	3786.25
786.626	3087.25
786.884	2486.25
787.143	2090.25
787.401	1747.25
787.659	1579.25
787.917	1323.25
788.175	1239.25
788.433	1062.25
788.691	953.25
788.949	881.25
789.207	844.25
789.465	726.25
789.723	693.25
789.98	640.25
790.238	668.25
790.496	619.25
790.753	604.25
791.011	630.25
791.268	552.25
791.526	551.25
791.783	580.25
792.041	546.25
792.298	463.25
792.556	521.25
792.813	504.25
793.07	482.25
793.327	476.25
793.584	551.25
793.841	471.25
794.099	495.25
794.356	559.25
794.613	451.25
794.869	482.25
795.126	445.25
795.383	426.25
795.64	455.25
795.897	407.25
796.153	468.25
796.41	445.25
796.667	424.25
796.923	430.25
797.18	451.25
797.436	465.25
797.693	426.25
797.949	481.25
798.206	506.25
798.462	423.25
798.718	491.25
798.974	456.25
799.231	504.25
799.487	500.25
799.743	498.25
799.999	524.25
800.255	513.25
800.511	501.25
800.767	556.25
801.023	519.25
801.279	593.25
801.534	625.25
801.79	677.25
802.046	684.25
802.302	842.25
802.557	954.25
802.813	1199.25
803.068	1490.25
803.324	2046.25
803.579	2758.25
803.835	3825.25
804.09	5257.25
804.345	6922.25
804.601	8817.25
804.856	10690.25
805.111	12332.25
805.366	13619.25
805.621	14523.25
805.876	15253.25
806.131	15553.25
806.386	15862.25
806.641	16164.25
806.896	16354.25
807.151	16718.25
807.406	16921.25
807.661	17314.25
807.915	17543.25
808.17	17916.25
808.425	18005.25
808.679	18061.25
808.934	18366.25
809.188	18458.25
809.443	18729.25
809.697	18867.25
809.951	19036.25
810.206	19151.25
810.46	19271.25
810.714	19526.25
810.968	19617.25
811.223	19806.25
811.477	20026.25
811.731	20220.25
811.985	20316.25
812.239	20331.25
812.493	20453.25
812.747	20456.25
813	20447.25
813.254	20589.25
813.508	20736.25
813.762	20682.25
814.015	20746.25
814.269	20942.25
814.522	21109.25
814.776	21373.25
815.03	21586.25
815.283	21834.25
815.536	22270.25
815.79	22570.25
816.043	22981.25
816.296	23112.25
816.55	23408.25
816.803	23603.25
817.056	24161.25
817.309	24120.25
817.562	24383.25
817.815	24692.25
818.068	24810.25
818.321	25111.25
818.574	25358.25
818.827	25540.25
819.079	25825.25
819.332	26385.25
819.585	26656.25
819.838	26913.25
820.09	27097.25
820.343	27388.25
820.595	27490.25
820.848	27626.25
821.1	27667.25
821.353	27712.25
821.605	27676.25
821.857	27648.25
822.11	27464.25
822.362	27595.25
822.614	27361.25
822.866	27428.25
823.118	27275.25
823.37	27562.25
823.622	27513.25
823.874	27663.25
824.126	27740.25
824.378	27687.25
824.63	27817.25
824.882	27852.25
825.134	27825.25
825.385	27797.25
825.637	27799.25
825.888	27732.25
826.14	27736.25
826.392	27423.25
826.643	27374.25
826.895	27161.25
827.146	27090.25
827.397	26985.25
827.649	27096.25
827.9	26882.25
828.151	26979.25
828.402	27067.25
828.653	27041.25
828.905	27109.25
829.156	27254.25
829.407	27142.25
829.658	27176.25
829.909	27203.25
830.159	27141.25
830.41	26982.25
830.661	26866.25
830.912	26542.25
831.162	26550.25
831.413	26490.25
831.664	26474.25
831.914	26481.25
832.165	26367.25
832.415	26555.25
832.666	26301.25
832.916	26551.25
833.167	26438.25
833.417	26391.25
833.667	26379.25
833.917	26279.25
834.168	26159.25
834.418	26069.25
834.668	25863.25
834.918	25737.25
835.168	25727.25
835.418	25632.25
835.668	25593.25
835.918	25529.25
836.167	25509.25
836.417	25284.25
836.667	25381.25
836.917	25314.25
837.166	25207.25
837.416	25225.25
837.666	25320.25
837.915	25062.25
838.165	24965.25
838.414	24940.25
838.663	24856.25
838.913	24955.25
839.162	24818.25
839.411	24777.25
839.661	24637.25
839.91	24543.25
840.159	24587.25
840.408	24508.25
840.657	24493.25
840.906	24460.25
841.155	24434.25
841.404	24487.25
841.653	24450.25
841.902	24452.25
842.15	24522.25
842.399	24609.25
842.648	24522.25
842.897	24351.25
843.145	24159.25
843.394	23993.25
843.642	23919.25
843.891	23779.25
844.139	23683.25
844.388	23615.25
844.636	23404.25
844.884	23423.25
845.133	23363.25
845.381	23393.25
845.629	23262.25
845.877	23364.25
846.125	23267.25
846.373	23200.25
846.621	23141.25
846.869	22987.25
847.117	22823.25
847.365	22794.25
847.613	22599.25
847.861	22664.25
848.108	22550.25
848.356	22498.25
848.604	22470.25
848.851	22424.25
849.099	22446.25
849.346	22647.25
849.594	22606.25
849.841	22632.25
850.089	22586.25
850.336	22625.25
850.583	22566.25
850.831	22498.25
851.078	22292.25
851.325	22301.25
851.572	22393.25
851.819	22190.25
852.066	21742.25
852.313	21491.25
852.56	21339.25
852.807	21250.25
853.054	21113.25
853.301	21071.25
853.548	21167.25
853.794	21239.25
854.041	21315.25
854.288	21368.25
854.534	21487.25
854.781	21415.25
855.028	21370.25
855.274	21392.25
855.52	21303.25
855.767	21133.25
856.013	21197.25
856.26	21374.25
856.506	21025.25
856.752	20913.25
856.998	20840.25
857.244	20819.25
857.49	21102.25
857.736	21099.25
857.982	21051.25
858.228	20905.25
858.474	20823.25
858.72	20688.25
858.966	20510.25
859.212	20300.25
859.458	20065.25
859.703	19895.25
859.949	19659.25
860.195	19556.25
860.44	19537.25
860.686	19291.25
860.931	19426.25
861.177	19147.25
861.422	19132.25
861.667	19056.25
861.913	19006.25
862.158	19010.25
862.403	19140.25
862.648	19221.25
862.893	19222.25
863.138	19119.25
863.384	19068.25
863.629	19088.25
863.873	19135.25
864.118	18983.25
864.363	18798.25
864.608	18869.25
864.853	18714.25
865.098	18616.25
865.342	18608.25
865.587	18501.25
865.832	18412.25
866.076	18409.25
866.321	18422.25
866.565	18363.25
866.81	18130.25
867.054	18126.25
867.298	18028.25
867.543	17977.25
867.787	17959.25
868.031	17954.25
868.275	17947.25
868.519	17876.25
868.764	17846.25
869.008	17674.25
869.252	17704.25
869.496	17617.25
869.739	17572.25
869.983	17587.25
870.227	17531.25
870.471	17478.25
870.715	17627.25
870.958	17578.25
871.202	17660.25
871.446	17671.25
871.689	17659.25
871.933	17661.25
872.176	17684.25
872.42	17634.25
872.663	17522.25
872.906	17491.25
873.15	17442.25
873.393	17328.25
873.636	17447.25
873.879	17142.25
874.122	17127.25
874.366	16840.25
874.609	16534.25
874.852	16495.25
875.095	16389.25
875.337	16396.25
875.58	16094.25
875.823	16141.25
876.066	16261.25
876.309	16169.25
876.551	15936.25
876.794	15872.25
877.037	15835.25
877.279	15903.25
877.522	15826.25
877.764	15783.25
878.007	15780.25
878.249	15828.25
878.491	15719.25
878.734	15790.25
878.976	15712.25
879.218	15587.25
879.46	15584.25
879.702	15433.25
879.945	15347.25
880.187	15112.25
880.429	15033.25
880.671	14928.25
880.912	14881.25
881.154	14774.25
881.396	14773.25
881.638	14769.25
881.88	14745.25
882.121	14750.25
882.363	14755.25
882.605	14690.25
882.846	14669.25
883.088	14630.25
883.329	14562.25
883.571	14598.25
883.812	14623.25
884.053	14962.25
884.295	15215.25
884.536	15328.25
884.777	15169.25
885.018	15103.25
885.259	14952.25
885.5	14918.25
885.742	15075.25
885.982	14853.25
886.223	14646.25
886.464	14618.25
886.705	14515.25
886.946	14398.25
887.187	14087.25
887.428	14066.25
887.668	13786.25
887.909	13549.25
888.15	13457.25
888.39	13418.25
888.631	13324.25
888.871	13271.25
889.111	13162.25
889.352	13069.25
889.592	12960.25
889.833	12818.25
890.073	12677.25
890.313	12746.25
890.553	12525.25
890.793	12471.25
891.033	12411.25
891.273	12401.25
891.513	12329.25
891.753	12296.25
891.993	12280.25
892.233	12369.25
892.473	12447.25
892.713	12431.25
892.952	12310.25
893.192	12357.25
893.432	12363.25
893.671	12296.25
893.911	12271.25
894.15	12158.25
894.39	12049.25
894.629	11940.25
894.869	11850.25
895.108	11854.25
895.347	11763.25
895.587	11782.25
895.826	11685.25
896.065	11742.25
896.304	11730.25
896.543	11672.25
896.782	11480.25
897.021	11579.25
897.26	11517.25
897.499	11619.25
897.738	11605.25
897.977	11403.25
898.216	11365.25
898.454	11214.25
898.693	11126.25
898.932	11129.25
899.17	11031.25
899.409	11017.25
899.647	11037.25
899.886	11000.25
900.124	10964.25
900.363	10882.25
900.601	10968.25
900.839	10881.25
901.078	10907.25
901.316	10968.25
901.554	10991.25
901.792	11068.25
902.03	11059.25
902.268	11034.25
902.506	11016.25
902.744	10962.25
902.982	10947.25
903.22	10747.25
903.458	10643.25
903.695	10542.25
903.933	10371.25
904.171	10209.25
904.409	10006.25
904.646	9972.25
904.884	9753.25
905.121	9695.25
905.359	9557.25
905.596	9545.25
905.833	9382.25
906.071	9352.25
906.308	9359.25
906.545	9296.25
906.783	9298.25
907.02	9223.25
907.257	9178.25
907.494	9150.25
907.731	9132.25
907.968	9156.25
908.205	9069.25
908.442	8979.25
908.679	8845.25
908.915	8911.25
909.152	8896.25
909.389	8675.25
909.626	8650.25
909.862	8573.25
910.099	8658.25
910.335	8584.25
910.572	8453.25
910.808	8454.25
911.045	8470.25
911.281	8359.25
911.518	8412.25
911.754	8355.25
911.99	8333.25
912.226	8236.25
912.463	8161.25
912.699	8071.25
912.935	8029.25
913.171	7943.25
913.407	7876.25
913.643	7901.25
913.879	7773.25
914.114	7709.25
914.35	7582.25
914.586	7551.25
914.822	7464.25
915.057	7555.25
915.293	7317.25
915.529	7295.25
915.764	7356.25
916	7363.25
916.235	7342.25
916.471	7334.25
916.706	7209.25
916.941	7211.25
917.177	7210.25
917.412	7263.25
917.647	7222.25
917.882	7128.25
918.117	7166.25
918.352	7189.25
918.588	7146.25
918.823	7058.25
919.057	6999.25
919.292	6814.25
919.527	6934.25
919.762	6772.25
919.997	6790.25
920.232	6607.25
920.466	6632.25
920.701	6495.25
920.935	6497.25
921.17	6435.25
921.405	6383.25
921.639	6440.25
921.873	6399.25
922.108	6362.25
922.342	6314.25
922.576	6319.25
922.811	6202.25
923.045	6235.25
923.279	6270.25
923.513	6138.25
923.747	6179.25
923.981	6127.25
924.215	6072.25
924.449	6011.25
924.683	5981.25
924.917	5974.25
925.151	5910.25
925.385	6038.25
925.618	5937.25
925.852	5863.25
926.086	5831.25
926.319	5888.25
926.553	5874.25
926.786	5767.25
927.02	5751.25
927.253	5863.25
927.486	5848.25
927.72	5770.25
927.953	5815.25
928.186	5732.25
928.42	5755.25
928.653	5637.25
928.886	5674.25
929.119	5657.25
929.352	5611.25
929.585	5600.25
929.818	5474.25
930.051	5466.25
930.284	5441.25
930.516	5402.25
930.749	5319.25
930.982	5350.25
931.215	5330.25
931.447	5256.25
931.68	5224.25
931.912	5179.25
932.145	5209.25
932.377	5182.25
932.61	5409.25
932.842	5144.25
933.074	5243.25
933.307	5185.25
933.539	5215.25
933.771	5256.25
934.003	5167.25
934.236	5299.25
934.468	5207.25
934.7	5156.25
934.932	5166.25
935.164	5084.25
935.395	5057.25
935.627	5104.25
935.859	5101.25
936.091	5017.25
936.323	5014.25
936.554	5055.25
936.786	4971.25
937.017	4916.25
937.249	4985.25
937.481	4856.25
937.712	4970.25
937.943	4931.25
938.175	4854.25
938.406	4838.25
938.637	4987.25
938.869	4842.25
939.1	4906.25
939.331	4843.25
939.562	4855.25
939.793	4830.25
940.024	4811.25
940.255	4767.25
940.486	4710.25
940.717	4705.25
940.948	4739.25
941.179	4632.25
941.409	4692.25
941.64	4620.25
941.871	4656.25
942.102	4643.25
942.332	4614.25
942.563	4631.25
942.793	4647.25
943.024	4555.25
943.254	4649.25
943.484	4650.25
943.715	4651.25
943.945	4594.25
944.175	4531.25
944.405	4519.25
944.636	4518.25
944.866	4530.25
945.096	4581.25
945.326	4498.25
945.556	4579.25
945.786	4537.25
946.016	4490.25
946.245	4424.25
946.475	4367.25
946.705	4396.25
946.935	4369.25
947.164	4350.25
947.394	4323.25
947.624	4333.25
947.853	4309.25
948.083	4269.25
948.312	4218.25
948.542	4185.25
948.771	4170.25
949	4167.25
949.23	4203.25
949.459	4164.25
949.688	4228.25
949.917	4159.25
950.146	4169.25
950.375	4199.25
950.604	4110.25
950.833	4181.25
951.062	4172.25
951.291	4125.25
951.52	4094.25
951.749	4107.25
951.978	4041.25
952.206	4018.25
952.435	4012.25
952.664	4048.25
952.892	4019.25
953.121	3962.25
953.349	4028.25
953.578	4027.25
953.806	3961.25
954.035	3910.25
954.263	3908.25
954.491	3829.25
954.719	3868.25
954.948	3850.25
955.176	3830.25
955.404	3800.25
955.632	3820.25
955.86	3799.25
956.088	3786.25
956.316	3744.25
956.544	3739.25
956.772	3719.25
956.999	3657.25
957.227	3766.25
957.455	3620.25
957.683	3637.25
957.91	3616.25
958.138	3564.25
958.365	3549.25
958.593	3551.25
958.82	3494.25
959.048	3595.25
959.275	3539.25
959.502	3498.25
959.73	3456.25
959.957	3529.25
960.184	3526.25
960.411	3437.25
960.638	3528.25
960.865	3480.25
961.092	3498.25
961.319	3386.25
961.546	3524.25
961.773	3498.25
962	3458.25
962.227	3468.25
962.454	3422.25
962.68	3424.25
962.907	3394.25
963.134	3346.25
963.36	3345.25
963.587	3372.25
963.813	3299.25
964.04	3333.25
964.266	3263.25
964.493	3339.25
964.719	3248.25
964.945	3258.25
965.171	3167.25
965.398	3216.25
965.624	3186.25
965.85	3130.25
966.076	3106.25
966.302	3178.25
966.528	3112.25
966.754	3109.25
966.98	3111.25
967.206	3122.25
967.431	3066.25
967.657	3093.25
967.883	3107.25
968.109	3052.25
968.334	2991.25
968.56	3012.25
968.785	3019.25
969.011	2975.25
969.236	3025.25
969.462	2948.25
969.687	2983.25
969.912	3004.25
970.138	3006.25
970.363	2926.25
970.588	2939.25
970.813	2894.25
971.038	2918.25
971.263	2939.25
971.488	2932.25
971.713	2954.25
971.938	2903.25
972.163	2820.25
972.388	2846.25
972.613	2795.25
972.838	2840.25
973.062	2793.25
973.287	2763.25
973.512	2750.25
973.736	2782.25
973.961	2763.25
974.185	2715.25
974.41	2743.25
974.634	2653.25
974.858	2653.25
975.083	2696.25
975.307	2701.25
975.531	2624.25
975.755	2554.25
975.98	2568.25
976.204	2542.25
976.428	2517.25
976.652	2567.25
976.876	2533.25
977.1	2525.25
977.324	2501.25
977.547	2573.25
977.771	2562.25
977.995	2488.25
978.219	2473.25
978.442	2572.25
978.666	2483.25
978.89	2460.25
979.113	2495.25
979.337	2459.25
979.56	2409.25
979.783	2520.25
980.007	2383.25
980.23	2460.25
980.453	2358.25
980.677	2432.25
980.9	2412.25
981.123	2313.25
981.346	2404.25
981.569	2381.25
981.792	2382.25
982.015	2362.25
982.238	2333.25
982.461	2329.25
982.684	2295.25
982.907	2245.25
983.129	2266.25
983.352	2311.25
983.575	2271.25
983.797	2275.25
984.02	2202.25
984.242	2218.25
984.465	2210.25
984.687	2247.25
984.91	2249.25
985.132	2214.25
985.354	2223.25
985.577	2167.25
985.799	2150.25
986.021	2094.25
986.243	2103.25
986.465	2144.25
986.687	2174.25
986.909	2186.25
987.131	2152.25
987.353	2104.25
987.575	2135.25
987.797	2112.25
988.019	2024.25
988.241	2119.25
988.462	2058.25
988.684	2145.25
988.906	2134.25
989.127	2143.25
989.349	2033.25
989.57	2047.25
989.792	2114.25
990.013	2108.25
990.234	2106.25
990.456	2141.25
990.677	2089.25
990.898	2017.25
991.119	2040.25
991.341	2041.25
991.562	1981.25
991.783	1993.25
992.004	1974.25
992.225	1928.25
992.446	2005.25
992.667	1878.25
992.887	1967.25
993.108	1870.25
993.329	1979.25
993.55	1944.25
993.77	1866.25
993.991	1866.25
994.212	1928.25
994.432	1885.25
994.653	1913.25
994.873	1881.25
995.093	1778.25
995.314	1806.25
995.534	1873.25
995.754	1876.25
995.975	1919.25
996.195	1801.25
996.415	1865.25
996.635	1847.25
996.855	1813.25
997.075	1809.25
997.295	1852.25
997.515	1757.25
997.735	1838.25
997.955	1788.25
998.174	1800.25
998.394	1790.25
998.614	1803.25
998.834	1761.25
999.053	1830.25
999.273	1779.25
999.492	1829.25
999.712	1798.25
999.931	1739.25
1000.151	1761.25
1000.37	1746.25
1000.589	1783.25
1000.809	1741.25
1001.028	1818.25
1001.247	1775.25
1001.466	1684.25
1001.685	1768.25
1001.904	1734.25
1002.123	1706.25
1002.342	1724.25
1002.561	1646.25
1002.78	1708.25
1002.999	1725.25
1003.218	1706.25
1003.436	1681.25
1003.655	1712.25
1003.874	1633.25
1004.092	1694.25
1004.311	1729.25
1004.53	1663.25
1004.748	1711.25
1004.966	1660.25
1005.185	1708.25
1005.403	1692.25
1005.622	1665.25
1005.84	1724.25
1006.058	1646.25
1006.276	1653.25
1006.494	2147.25
1006.712	1648.25
1006.931	1724.25
1007.149	1603.25
1007.367	1625.25
1007.584	1669.25
1007.802	1712.25
1008.02	1625.25
1008.238	1768.25
1008.456	1759.25
1008.673	1604.25
1008.891	1720.25
1009.109	1684.25
1009.326	1713.25
1009.544	1847.25
1009.761	1740.25
1009.979	1802.25
1010.196	1814.25
1010.413	1939.25
1010.631	1952.25
1010.848	2043.25
1011.065	2014.25
1011.282	1934.25
1011.5	1938.25
1011.717	2019.25
1011.934	1969.25
1012.151	1988.25
1012.368	1941.25
1012.585	1880.25
1012.801	1940.25
1013.018	1921.25
1013.235	1901.25
1013.452	1919.25
1013.669	1967.25
1013.885	1881.25
1014.102	1951.25
1014.318	1925.25
1014.535	1901.25
1014.751	1885.25
1014.968	1911.25
1015.184	1951.25
1015.401	1826.25
1015.617	1870.25
1015.833	1804.25
1016.049	1830.25
1016.266	1750.25
1016.482	1791.25
1016.698	1698.25
1016.914	1769.25
1017.13	1709.25
1017.346	1683.25
1017.562	1763.25
1017.778	1652.25
1017.993	1650.25
1018.209	1714.25
1018.425	1679.25
1018.641	1627.25
1018.856	1610.25
1019.072	1637.25
1019.288	1701.25
1019.503	1645.25
1019.719	1554.25
1019.934	1585.25
1020.149	1648.25
1020.365	1591.25
1020.58	1509.25
1020.795	1569.25
1021.011	1500.25
1021.226	1442.25
1021.441	1491.25
1021.656	1400.25
1021.871	1332.25
1022.086	1361.25
1022.301	1328.25
1022.516	1294.25
1022.731	1344.25
1022.946	1267.25
1023.16	1247.25
1023.375	1230.25
1023.59	1223.25
1023.804	1159.25
1024.019	1267.25
1024.234	1121.25
1024.448	1164.25
1024.663	1080.25
1024.877	1102.25
1025.092	1127.25
1025.306	1111.25
1025.52	1009.25
1025.734	1099.25
1025.949	1013.25
1026.163	992.25
1026.377	916.25
1026.591	978.25
1026.805	906.25
1027.019	905.25
1027.233	872.25
1027.447	804.25
1027.661	898.25
1027.875	868.25
1028.088	844.25
1028.302	764.25
1028.516	774.25
1028.73	739.25
1028.943	766.25
1029.157	699.25
1029.37	649.25
1029.584	-4.75
1029.797	0.25
1030.011	-0.75
1030.224	-2.75
