Data from QEP037381__168__15-51-29-886.txt Node

Date: Fri Dec 16 15:51:29 EST 2022
User: dcclab
Spectrometer: QEP03738
Trigger mode: 4
Integration Time (sec): 1.000000E1
Scans to average: 1
Electric dark correction enabled: true
Nonlinearity correction enabled: false
Boxcar width: 0
XAxis mode: Wavelengths
Number of Pixels in Spectrum: 1044
>>>>>Begin Spectral Data<<<<<
784.041	9.75
784.3	-3.25
784.558	-3.25
784.817	-0.25
785.075	112100.75
785.334	19924.75
785.592	9448.75
785.851	6550.75
786.109	4873.75
786.368	3802.75
786.626	3087.75
786.884	2525.75
787.143	2139.75
787.401	1740.75
787.659	1583.75
787.917	1333.75
788.175	1228.75
788.433	1068.75
788.691	974.75
788.949	890.75
789.207	815.75
789.465	729.75
789.723	699.75
789.98	646.75
790.238	694.75
790.496	630.75
790.753	581.75
791.011	641.75
791.268	571.75
791.526	560.75
791.783	561.75
792.041	563.75
792.298	471.75
792.556	524.75
792.813	502.75
793.07	477.75
793.327	472.75
793.584	561.75
793.841	471.75
794.099	489.75
794.356	542.75
794.613	447.75
794.869	469.75
795.126	440.75
795.383	427.75
795.64	442.75
795.897	397.75
796.153	462.75
796.41	451.75
796.667	431.75
796.923	431.75
797.18	437.75
797.436	455.75
797.693	427.75
797.949	470.75
798.206	495.75
798.462	407.75
798.718	485.75
798.974	467.75
799.231	506.75
799.487	502.75
799.743	500.75
799.999	507.75
800.255	520.75
800.511	507.75
800.767	560.75
801.023	543.75
801.279	579.75
801.534	635.75
801.79	668.75
802.046	680.75
802.302	867.75
802.557	973.75
802.813	1208.75
803.068	1508.75
803.324	2044.75
803.579	2788.75
803.835	3831.75
804.09	5241.75
804.345	6874.75
804.601	8594.75
804.856	10409.75
805.111	12079.75
805.366	13150.75
805.621	14108.75
805.876	14569.75
806.131	15048.75
806.386	15300.75
806.641	15597.75
806.896	15806.75
807.151	16068.75
807.406	16248.75
807.661	16597.75
807.915	16797.75
808.17	17119.75
808.425	17278.75
808.679	17433.75
808.934	17647.75
809.188	17649.75
809.443	17950.75
809.697	18159.75
809.951	18316.75
810.206	18382.75
810.46	18604.75
810.714	18667.75
810.968	18897.75
811.223	18918.75
811.477	19276.75
811.731	19335.75
811.985	19379.75
812.239	19497.75
812.493	19569.75
812.747	19639.75
813	19631.75
813.254	19794.75
813.508	19909.75
813.762	19906.75
814.015	20016.75
814.269	20138.75
814.522	20367.75
814.776	20602.75
815.03	20702.75
815.283	21098.75
815.536	21375.75
815.79	21756.75
816.043	21965.75
816.296	22208.75
816.55	22504.75
816.803	22717.75
817.056	22918.75
817.309	23129.75
817.562	23437.75
817.815	23639.75
818.068	23751.75
818.321	23909.75
818.574	24243.75
818.827	24300.75
819.079	24791.75
819.332	25321.75
819.585	25554.75
819.838	25870.75
820.09	25992.75
820.343	26184.75
820.595	26148.75
820.848	26456.75
821.1	26466.75
821.353	26639.75
821.605	26460.75
821.857	26642.75
822.11	26332.75
822.362	26274.75
822.614	26167.75
822.866	26195.75
823.118	26340.75
823.37	26313.75
823.622	26499.75
823.874	26576.75
824.126	26625.75
824.378	26685.75
824.63	26686.75
824.882	26735.75
825.134	26687.75
825.385	26685.75
825.637	26633.75
825.888	26426.75
826.14	26337.75
826.392	26340.75
826.643	26053.75
826.895	26133.75
827.146	25972.75
827.397	25828.75
827.649	25946.75
827.9	25877.75
828.151	26015.75
828.402	25837.75
828.653	26093.75
828.905	25977.75
829.156	26153.75
829.407	26122.75
829.658	26117.75
829.909	26235.75
830.159	26228.75
830.41	26111.75
830.661	25864.75
830.912	25631.75
831.162	25523.75
831.413	25453.75
831.664	25601.75
831.914	25579.75
832.165	25440.75
832.415	25488.75
832.666	25413.75
832.916	25431.75
833.167	25452.75
833.417	25439.75
833.667	25266.75
833.917	25273.75
834.168	25245.75
834.418	25054.75
834.668	24954.75
834.918	24917.75
835.168	24746.75
835.418	24691.75
835.668	24675.75
835.918	24603.75
836.167	24480.75
836.417	24281.75
836.667	24414.75
836.917	24365.75
837.166	24294.75
837.416	24310.75
837.666	24248.75
837.915	24232.75
838.165	24205.75
838.414	24189.75
838.663	24099.75
838.913	24052.75
839.162	23935.75
839.411	23921.75
839.661	23767.75
839.91	23866.75
840.159	23746.75
840.408	23920.75
840.657	23718.75
840.906	23752.75
841.155	23705.75
841.404	23662.75
841.653	23631.75
841.902	23701.75
842.15	23751.75
842.399	23828.75
842.648	23645.75
842.897	23630.75
843.145	23430.75
843.394	23259.75
843.642	23117.75
843.891	23103.75
844.139	22779.75
844.388	22768.75
844.636	22664.75
844.884	22728.75
845.133	22728.75
845.381	22510.75
845.629	22667.75
845.877	22592.75
846.125	22574.75
846.373	22530.75
846.621	22418.75
846.869	22256.75
847.117	22291.75
847.365	22099.75
847.613	21826.75
847.861	21958.75
848.108	21877.75
848.356	21921.75
848.604	21740.75
848.851	21806.75
849.099	21818.75
849.346	21848.75
849.594	21855.75
849.841	22002.75
850.089	21948.75
850.336	21998.75
850.583	21950.75
850.831	21913.75
851.078	21762.75
851.325	21688.75
851.572	21723.75
851.819	21542.75
852.066	21248.75
852.313	20908.75
852.56	20745.75
852.807	20619.75
853.054	20579.75
853.301	20584.75
853.548	20610.75
853.794	20633.75
854.041	20683.75
854.288	20754.75
854.534	21042.75
854.781	20859.75
855.028	20852.75
855.274	20927.75
855.52	20635.75
855.767	20641.75
856.013	20721.75
856.26	20956.75
856.506	20420.75
856.752	20294.75
856.998	20337.75
857.244	20536.75
857.49	20576.75
857.736	20555.75
857.982	20580.75
858.228	20501.75
858.474	20198.75
858.72	20141.75
858.966	19986.75
859.212	19762.75
859.458	19548.75
859.703	19342.75
859.949	19215.75
860.195	19112.75
860.44	19013.75
860.686	18931.75
860.931	19012.75
861.177	18812.75
861.422	18709.75
861.667	18619.75
861.913	18598.75
862.158	18713.75
862.403	18728.75
862.648	18655.75
862.893	18791.75
863.138	18737.75
863.384	18643.75
863.629	18648.75
863.873	18634.75
864.118	18531.75
864.363	18432.75
864.608	18388.75
864.853	18410.75
865.098	18224.75
865.342	18183.75
865.587	18092.75
865.832	18149.75
866.076	17902.75
866.321	17876.75
866.565	17951.75
866.81	17690.75
867.054	17822.75
867.298	17629.75
867.543	17570.75
867.787	17562.75
868.031	17613.75
868.275	17500.75
868.519	17537.75
868.764	17480.75
869.008	17435.75
869.252	17397.75
869.496	17332.75
869.739	17252.75
869.983	17244.75
870.227	17264.75
870.471	17244.75
870.715	17295.75
870.958	17342.75
871.202	17287.75
871.446	17347.75
871.689	17272.75
871.933	17346.75
872.176	17397.75
872.42	17273.75
872.663	17336.75
872.906	17240.75
873.15	17269.75
873.393	17128.75
873.636	17193.75
873.879	16966.75
874.122	16731.75
874.366	16528.75
874.609	16401.75
874.852	16247.75
875.095	16124.75
875.337	16028.75
875.58	15975.75
875.823	16036.75
876.066	15953.75
876.309	15863.75
876.551	15738.75
876.794	15682.75
877.037	15680.75
877.279	15475.75
877.522	15627.75
877.764	15634.75
878.007	15522.75
878.249	15522.75
878.491	15510.75
878.734	15499.75
878.976	15412.75
879.218	15337.75
879.46	15302.75
879.702	15166.75
879.945	15041.75
880.187	14862.75
880.429	14820.75
880.671	14717.75
880.912	14734.75
881.154	14616.75
881.396	14542.75
881.638	14604.75
881.88	14455.75
882.121	14466.75
882.363	14471.75
882.605	14473.75
882.846	14349.75
883.088	14466.75
883.329	14328.75
883.571	14370.75
883.812	14576.75
884.053	14789.75
884.295	14940.75
884.536	15202.75
884.777	15095.75
885.018	15002.75
885.259	14908.75
885.5	14682.75
885.742	15100.75
885.982	14805.75
886.223	14589.75
886.464	14495.75
886.705	14334.75
886.946	14284.75
887.187	13980.75
887.428	13849.75
887.668	13667.75
887.909	13459.75
888.15	13263.75
888.39	13285.75
888.631	13196.75
888.871	12977.75
889.111	12949.75
889.352	12813.75
889.592	12773.75
889.833	12636.75
890.073	12670.75
890.313	12578.75
890.553	12398.75
890.793	12424.75
891.033	12308.75
891.273	12196.75
891.513	12192.75
891.753	12213.75
891.993	12126.75
892.233	12224.75
892.473	12287.75
892.713	12208.75
892.952	12125.75
893.192	12163.75
893.432	12187.75
893.671	12159.75
893.911	12097.75
894.15	11925.75
894.39	11911.75
894.629	11841.75
894.869	11787.75
895.108	11717.75
895.347	11592.75
895.587	11697.75
895.826	11564.75
896.065	11601.75
896.304	11556.75
896.543	11544.75
896.782	11512.75
897.021	11405.75
897.26	11425.75
897.499	11470.75
897.738	11362.75
897.977	11337.75
898.216	11290.75
898.454	11127.75
898.693	11076.75
898.932	11070.75
899.17	10917.75
899.409	10944.75
899.647	10892.75
899.886	10909.75
900.124	10886.75
900.363	10901.75
900.601	10937.75
900.839	10939.75
901.078	10946.75
901.316	10942.75
901.554	11010.75
901.792	11010.75
902.03	11011.75
902.268	10958.75
902.506	11006.75
902.744	10891.75
902.982	10862.75
903.22	10763.75
903.458	10557.75
903.695	10392.75
903.933	10296.75
904.171	10154.75
904.409	9882.75
904.646	9852.75
904.884	9623.75
905.121	9610.75
905.359	9513.75
905.596	9443.75
905.833	9334.75
906.071	9303.75
906.308	9337.75
906.545	9247.75
906.783	9191.75
907.02	9199.75
907.257	9131.75
907.494	9156.75
907.731	9133.75
907.968	9020.75
908.205	9028.75
908.442	8947.75
908.679	8903.75
908.915	8797.75
909.152	8766.75
909.389	8629.75
909.626	8644.75
909.862	8569.75
910.099	8548.75
910.335	8570.75
910.572	8456.75
910.808	8454.75
911.045	8330.75
911.281	8355.75
911.518	8364.75
911.754	8313.75
911.99	8212.75
912.226	8201.75
912.463	8144.75
912.699	8008.75
912.935	7930.75
913.171	7918.75
913.407	7839.75
913.643	7877.75
913.879	7792.75
914.114	7686.75
914.35	7567.75
914.586	7487.75
914.822	7440.75
915.057	7471.75
915.293	7299.75
915.529	7300.75
915.764	7375.75
916	7270.75
916.235	7260.75
916.471	7284.75
916.706	7246.75
916.941	7266.75
917.177	7178.75
917.412	7191.75
917.647	7215.75
917.882	7153.75
918.117	7191.75
918.352	7084.75
918.588	7117.75
918.823	7050.75
919.057	6949.75
919.292	6801.75
919.527	6882.75
919.762	6754.75
919.997	6792.75
920.232	6618.75
920.466	6643.75
920.701	6414.75
920.935	6490.75
921.17	6441.75
921.405	6433.75
921.639	6408.75
921.873	6341.75
922.108	6350.75
922.342	6402.75
922.576	6228.75
922.811	6226.75
923.045	6244.75
923.279	6296.75
923.513	6148.75
923.747	6211.75
923.981	6088.75
924.215	6043.75
924.449	6040.75
924.683	5956.75
924.917	5926.75
925.151	5917.75
925.385	5947.75
925.618	5881.75
925.852	5855.75
926.086	5816.75
926.319	5879.75
926.553	5882.75
926.786	5861.75
927.02	5818.75
927.253	5804.75
927.486	5806.75
927.72	5728.75
927.953	5813.75
928.186	5779.75
928.42	5676.75
928.653	5641.75
928.886	5655.75
929.119	5686.75
929.352	5601.75
929.585	5599.75
929.818	5494.75
930.051	5539.75
930.284	5469.75
930.516	5354.75
930.749	5345.75
930.982	5365.75
931.215	5372.75
931.447	5242.75
931.68	5291.75
931.912	5222.75
932.145	5196.75
932.377	5226.75
932.61	5408.75
932.842	5165.75
933.074	5252.75
933.307	5199.75
933.539	5293.75
933.771	5304.75
934.003	5165.75
934.236	5223.75
934.468	5257.75
934.7	5132.75
934.932	5192.75
935.164	5114.75
935.395	5066.75
935.627	5109.75
935.859	5102.75
936.091	5066.75
936.323	5117.75
936.554	5056.75
936.786	5026.75
937.017	4959.75
937.249	4969.75
937.481	4908.75
937.712	5059.75
937.943	4877.75
938.175	4886.75
938.406	4923.75
938.637	4995.75
938.869	4830.75
939.1	4914.75
939.331	4867.75
939.562	4881.75
939.793	4875.75
940.024	4860.75
940.255	4781.75
940.486	4761.75
940.717	4691.75
940.948	4709.75
941.179	4668.75
941.409	4682.75
941.64	4676.75
941.871	4707.75
942.102	4663.75
942.332	4657.75
942.563	4660.75
942.793	4647.75
943.024	4578.75
943.254	4664.75
943.484	4668.75
943.715	4643.75
943.945	4642.75
944.175	4522.75
944.405	4554.75
944.636	4566.75
944.866	4581.75
945.096	4588.75
945.326	4542.75
945.556	4576.75
945.786	4535.75
946.016	4483.75
946.245	4431.75
946.475	4421.75
946.705	4386.75
946.935	4383.75
947.164	4404.75
947.394	4324.75
947.624	4308.75
947.853	4324.75
948.083	4310.75
948.312	4252.75
948.542	4191.75
948.771	4183.75
949	4189.75
949.23	4141.75
949.459	4220.75
949.688	4234.75
949.917	4211.75
950.146	4159.75
950.375	4245.75
950.604	4120.75
950.833	4203.75
951.062	4165.75
951.291	4142.75
951.52	4116.75
951.749	4105.75
951.978	4069.75
952.206	4024.75
952.435	4046.75
952.664	4068.75
952.892	4020.75
953.121	4018.75
953.349	4066.75
953.578	3998.75
953.806	3977.75
954.035	3901.75
954.263	3890.75
954.491	3858.75
954.719	3951.75
954.948	3851.75
955.176	3803.75
955.404	3765.75
955.632	3825.75
955.86	3825.75
956.088	3763.75
956.316	3815.75
956.544	3794.75
956.772	3728.75
956.999	3697.75
957.227	3748.75
957.455	3629.75
957.683	3639.75
957.91	3607.75
958.138	3610.75
958.365	3597.75
958.593	3540.75
958.82	3515.75
959.048	3549.75
959.275	3570.75
959.502	3529.75
959.73	3484.75
959.957	3514.75
960.184	3554.75
960.411	3483.75
960.638	3510.75
960.865	3509.75
961.092	3528.75
961.319	3434.75
961.546	3490.75
961.773	3505.75
962	3425.75
962.227	3485.75
962.454	3449.75
962.68	3384.75
962.907	3429.75
963.134	3410.75
963.36	3361.75
963.587	3354.75
963.813	3329.75
964.04	3330.75
964.266	3268.75
964.493	3309.75
964.719	3272.75
964.945	3284.75
965.171	3232.75
965.398	3247.75
965.624	3208.75
965.85	3166.75
966.076	3145.75
966.302	3153.75
966.528	3126.75
966.754	3190.75
966.98	3175.75
967.206	3144.75
967.431	3031.75
967.657	3142.75
967.883	3096.75
968.109	3063.75
968.334	3034.75
968.56	3025.75
968.785	3009.75
969.011	3011.75
969.236	3045.75
969.462	3002.75
969.687	2989.75
969.912	3026.75
970.138	3026.75
970.363	2947.75
970.588	2961.75
970.813	2974.75
971.038	2920.75
971.263	2971.75
971.488	2932.75
971.713	2961.75
971.938	2904.75
972.163	2832.75
972.388	2850.75
972.613	2847.75
972.838	2877.75
973.062	2825.75
973.287	2802.75
973.512	2747.75
973.736	2798.75
973.961	2768.75
974.185	2722.75
974.41	2723.75
974.634	2685.75
974.858	2694.75
975.083	2697.75
975.307	2706.75
975.531	2632.75
975.755	2610.75
975.98	2630.75
976.204	2566.75
976.428	2544.75
976.652	2553.75
976.876	2521.75
977.1	2560.75
977.324	2537.75
977.547	2560.75
977.771	2539.75
977.995	2527.75
978.219	2453.75
978.442	2591.75
978.666	2522.75
978.89	2478.75
979.113	2456.75
979.337	2459.75
979.56	2441.75
979.783	2506.75
980.007	2398.75
980.23	2443.75
980.453	2370.75
980.677	2426.75
980.9	2426.75
981.123	2311.75
981.346	2452.75
981.569	2423.75
981.792	2428.75
982.015	2368.75
982.238	2312.75
982.461	2299.75
982.684	2323.75
982.907	2287.75
983.129	2282.75
983.352	2316.75
983.575	2252.75
983.797	2254.75
984.02	2250.75
984.242	2253.75
984.465	2220.75
984.687	2221.75
984.91	2266.75
985.132	2237.75
985.354	2259.75
985.577	2224.75
985.799	2208.75
986.021	2095.75
986.243	2136.75
986.465	2143.75
986.687	2178.75
986.909	2219.75
987.131	2149.75
987.353	2083.75
987.575	2160.75
987.797	2125.75
988.019	2065.75
988.241	2111.75
988.462	2052.75
988.684	2138.75
988.906	2143.75
989.127	2156.75
989.349	2047.75
989.57	2086.75
989.792	2107.75
990.013	2125.75
990.234	2101.75
990.456	2121.75
990.677	2128.75
990.898	2046.75
991.119	2054.75
991.341	2054.75
991.562	2000.75
991.783	2020.75
992.004	1975.75
992.225	1950.75
992.446	1993.75
992.667	1915.75
992.887	1980.75
993.108	1875.75
993.329	1981.75
993.55	1967.75
993.77	1880.75
993.991	1886.75
994.212	1915.75
994.432	1922.75
994.653	1918.75
994.873	1883.75
995.093	1820.75
995.314	1840.75
995.534	1880.75
995.754	1873.75
995.975	1918.75
996.195	1810.75
996.415	1857.75
996.635	1826.75
996.855	1858.75
997.075	1812.75
997.295	1814.75
997.515	1821.75
997.735	1832.75
997.955	1833.75
998.174	1788.75
998.394	1778.75
998.614	1838.75
998.834	1775.75
999.053	1820.75
999.273	1828.75
999.492	1818.75
999.712	1808.75
999.931	1754.75
1000.151	1781.75
1000.37	1764.75
1000.589	1831.75
1000.809	1733.75
1001.028	1852.75
1001.247	1754.75
1001.466	1693.75
1001.685	1817.75
1001.904	1723.75
1002.123	1729.75
1002.342	1745.75
1002.561	1673.75
1002.78	1681.75
1002.999	1763.75
1003.218	1682.75
1003.436	1664.75
1003.655	1749.75
1003.874	1649.75
1004.092	1662.75
1004.311	1697.75
1004.53	1705.75
1004.748	1758.75
1004.966	1642.75
1005.185	1701.75
1005.403	1667.75
1005.622	1660.75
1005.84	1741.75
1006.058	1638.75
1006.276	1660.75
1006.494	2152.75
1006.712	1668.75
1006.931	1708.75
1007.149	1621.75
1007.367	1647.75
1007.584	1667.75
1007.802	1737.75
1008.02	1666.75
1008.238	1750.75
1008.456	1744.75
1008.673	1631.75
1008.891	1737.75
1009.109	1664.75
1009.326	1726.75
1009.544	1854.75
1009.761	1754.75
1009.979	1863.75
1010.196	1871.75
1010.413	1952.75
1010.631	2052.75
1010.848	2051.75
1011.065	2069.75
1011.282	2040.75
1011.5	1978.75
1011.717	2052.75
1011.934	1964.75
1012.151	1996.75
1012.368	2010.75
1012.585	1969.75
1012.801	2005.75
1013.018	1984.75
1013.235	1963.75
1013.452	1938.75
1013.669	1971.75
1013.885	1969.75
1014.102	1997.75
1014.318	1974.75
1014.535	1911.75
1014.751	1920.75
1014.968	1964.75
1015.184	1986.75
1015.401	1868.75
1015.617	1898.75
1015.833	1849.75
1016.049	1875.75
1016.266	1813.75
1016.482	1789.75
1016.698	1719.75
1016.914	1797.75
1017.13	1738.75
1017.346	1724.75
1017.562	1797.75
1017.778	1697.75
1017.993	1696.75
1018.209	1725.75
1018.425	1698.75
1018.641	1653.75
1018.856	1642.75
1019.072	1674.75
1019.288	1702.75
1019.503	1664.75
1019.719	1575.75
1019.934	1577.75
1020.149	1660.75
1020.365	1587.75
1020.58	1559.75
1020.795	1571.75
1021.011	1496.75
1021.226	1499.75
1021.441	1484.75
1021.656	1454.75
1021.871	1361.75
1022.086	1350.75
1022.301	1337.75
1022.516	1342.75
1022.731	1380.75
1022.946	1259.75
1023.16	1290.75
1023.375	1235.75
1023.59	1223.75
1023.804	1193.75
1024.019	1266.75
1024.234	1136.75
1024.448	1171.75
1024.663	1117.75
1024.877	1115.75
1025.092	1136.75
1025.306	1149.75
1025.52	1018.75
1025.734	1103.75
1025.949	1038.75
1026.163	994.75
1026.377	928.75
1026.591	990.75
1026.805	920.75
1027.019	897.75
1027.233	861.75
1027.447	799.75
1027.661	899.75
1027.875	845.75
1028.088	863.75
1028.302	779.75
1028.516	763.75
1028.73	773.75
1028.943	759.75
1029.157	689.75
1029.37	672.75
1029.584	-0.25
1029.797	-1.25
1030.011	-2.25
1030.224	0.75
