Data from QEP037381__199__15-56-39-891.txt Node

Date: Fri Dec 16 15:56:39 EST 2022
User: dcclab
Spectrometer: QEP03738
Trigger mode: 4
Integration Time (sec): 1.000000E1
Scans to average: 1
Electric dark correction enabled: true
Nonlinearity correction enabled: false
Boxcar width: 0
XAxis mode: Wavelengths
Number of Pixels in Spectrum: 1044
>>>>>Begin Spectral Data<<<<<
784.041	15.75
784.3	0.75
784.558	-2.25
784.817	-3.25
785.075	118557.75
785.334	20408.75
785.592	9545.75
785.851	6608.75
786.109	4919.75
786.368	3852.75
786.626	3082.75
786.884	2546.75
787.143	2164.75
787.401	1775.75
787.659	1591.75
787.917	1357.75
788.175	1219.75
788.433	1089.75
788.691	971.75
788.949	892.75
789.207	843.75
789.465	739.75
789.723	694.75
789.98	640.75
790.238	662.75
790.496	636.75
790.753	598.75
791.011	624.75
791.268	569.75
791.526	551.75
791.783	571.75
792.041	535.75
792.298	470.75
792.556	516.75
792.813	495.75
793.07	494.75
793.327	472.75
793.584	553.75
793.841	476.75
794.099	497.75
794.356	540.75
794.613	457.75
794.869	489.75
795.126	438.75
795.383	431.75
795.64	443.75
795.897	401.75
796.153	451.75
796.41	423.75
796.667	425.75
796.923	427.75
797.18	425.75
797.436	453.75
797.693	434.75
797.949	483.75
798.206	518.75
798.462	415.75
798.718	474.75
798.974	444.75
799.231	508.75
799.487	481.75
799.743	487.75
799.999	532.75
800.255	513.75
800.511	502.75
800.767	543.75
801.023	522.75
801.279	554.75
801.534	614.75
801.79	650.75
802.046	695.75
802.302	835.75
802.557	934.75
802.813	1175.75
803.068	1425.75
803.324	1989.75
803.579	2674.75
803.835	3717.75
804.09	5132.75
804.345	6709.75
804.601	8414.75
804.856	10143.75
805.111	11745.75
805.366	12941.75
805.621	13905.75
805.876	14540.75
806.131	14864.75
806.386	15092.75
806.641	15413.75
806.896	15669.75
807.151	15871.75
807.406	16144.75
807.661	16402.75
807.915	16558.75
808.17	16850.75
808.425	17077.75
808.679	17095.75
808.934	17407.75
809.188	17514.75
809.443	17720.75
809.697	17819.75
809.951	17999.75
810.206	18049.75
810.46	18272.75
810.714	18388.75
810.968	18616.75
811.223	18640.75
811.477	18900.75
811.731	19054.75
811.985	19094.75
812.239	19163.75
812.493	19268.75
812.747	19405.75
813	19300.75
813.254	19448.75
813.508	19535.75
813.762	19515.75
814.015	19596.75
814.269	19728.75
814.522	19953.75
814.776	20171.75
815.03	20352.75
815.283	20675.75
815.536	20947.75
815.79	21180.75
816.043	21567.75
816.296	21737.75
816.55	21975.75
816.803	22243.75
817.056	22608.75
817.309	22736.75
817.562	22887.75
817.815	23077.75
818.068	23181.75
818.321	23473.75
818.574	23662.75
818.827	23995.75
819.079	24181.75
819.332	24579.75
819.585	24925.75
819.838	25248.75
820.09	25252.75
820.343	25523.75
820.595	25570.75
820.848	25799.75
821.1	25750.75
821.353	25847.75
821.605	25767.75
821.857	25873.75
822.11	25770.75
822.362	25599.75
822.614	25579.75
822.866	25627.75
823.118	25426.75
823.37	25754.75
823.622	25761.75
823.874	25813.75
824.126	25962.75
824.378	25927.75
824.63	26047.75
824.882	26011.75
825.134	25921.75
825.385	25856.75
825.637	25805.75
825.888	25629.75
826.14	25578.75
826.392	25541.75
826.643	25415.75
826.895	25437.75
827.146	25186.75
827.397	25122.75
827.649	25211.75
827.9	25013.75
828.151	25166.75
828.402	25178.75
828.653	25255.75
828.905	25348.75
829.156	25347.75
829.407	25243.75
829.658	25278.75
829.909	25397.75
830.159	25368.75
830.41	25138.75
830.661	25134.75
830.912	24854.75
831.162	24805.75
831.413	24639.75
831.664	24749.75
831.914	24738.75
832.165	24655.75
832.415	24695.75
832.666	24700.75
832.916	24655.75
833.167	24504.75
833.417	24595.75
833.667	24407.75
833.917	24429.75
834.168	24478.75
834.418	24335.75
834.668	24300.75
834.918	24109.75
835.168	23870.75
835.418	23796.75
835.668	23766.75
835.918	23748.75
836.167	23637.75
836.417	23476.75
836.667	23690.75
836.917	23476.75
837.166	23442.75
837.416	23526.75
837.666	23450.75
837.915	23296.75
838.165	23426.75
838.414	23359.75
838.663	23352.75
838.913	23174.75
839.162	23166.75
839.411	23167.75
839.661	22970.75
839.91	22957.75
840.159	22929.75
840.408	22923.75
840.657	22792.75
840.906	22825.75
841.155	22843.75
841.404	22774.75
841.653	22836.75
841.902	22899.75
842.15	22942.75
842.399	23005.75
842.648	22905.75
842.897	22669.75
843.145	22576.75
843.394	22515.75
843.642	22352.75
843.891	22193.75
844.139	22111.75
844.388	21928.75
844.636	21800.75
844.884	21792.75
845.133	21820.75
845.381	21751.75
845.629	21876.75
845.877	21785.75
846.125	21682.75
846.373	21635.75
846.621	21551.75
846.869	21427.75
847.117	21384.75
847.365	21240.75
847.613	21143.75
847.861	21048.75
848.108	21035.75
848.356	20935.75
848.604	20912.75
848.851	20930.75
849.099	20955.75
849.346	20970.75
849.594	21040.75
849.841	21071.75
850.089	21214.75
850.336	21034.75
850.583	21042.75
850.831	20944.75
851.078	20734.75
851.325	20811.75
851.572	20875.75
851.819	20688.75
852.066	20338.75
852.313	20043.75
852.56	19879.75
852.807	19770.75
853.054	19685.75
853.301	19634.75
853.548	19659.75
853.794	19933.75
854.041	19932.75
854.288	19936.75
854.534	20099.75
854.781	20043.75
855.028	19976.75
855.274	20008.75
855.52	19876.75
855.767	19698.75
856.013	19839.75
856.26	20177.75
856.506	19489.75
856.752	19551.75
856.998	19550.75
857.244	19582.75
857.49	19710.75
857.736	19725.75
857.982	19770.75
858.228	19653.75
858.474	19419.75
858.72	19306.75
858.966	19146.75
859.212	18947.75
859.458	18724.75
859.703	18655.75
859.949	18463.75
860.195	18287.75
860.44	18188.75
860.686	18198.75
860.931	18107.75
861.177	17863.75
861.422	17910.75
861.667	17813.75
861.913	17858.75
862.158	17798.75
862.403	17905.75
862.648	17839.75
862.893	17958.75
863.138	17871.75
863.384	17848.75
863.629	17820.75
863.873	17872.75
864.118	17730.75
864.363	17598.75
864.608	17559.75
864.853	17523.75
865.098	17409.75
865.342	17324.75
865.587	17342.75
865.832	17229.75
866.076	17159.75
866.321	17117.75
866.565	17021.75
866.81	16926.75
867.054	16926.75
867.298	16935.75
867.543	16795.75
867.787	16754.75
868.031	16705.75
868.275	16648.75
868.519	16698.75
868.764	16635.75
869.008	16527.75
869.252	16565.75
869.496	16443.75
869.739	16429.75
869.983	16515.75
870.227	16442.75
870.471	16363.75
870.715	16452.75
870.958	16475.75
871.202	16545.75
871.446	16553.75
871.689	16486.75
871.933	16560.75
872.176	16497.75
872.42	16501.75
872.663	16534.75
872.906	16375.75
873.15	16406.75
873.393	16294.75
873.636	16345.75
873.879	16103.75
874.122	16034.75
874.366	15730.75
874.609	15574.75
874.852	15532.75
875.095	15382.75
875.337	15360.75
875.58	15191.75
875.823	15187.75
876.066	15133.75
876.309	15084.75
876.551	14891.75
876.794	14899.75
877.037	15021.75
877.279	14819.75
877.522	14792.75
877.764	14839.75
878.007	14829.75
878.249	14814.75
878.491	14614.75
878.734	14708.75
878.976	14687.75
879.218	14502.75
879.46	14562.75
879.702	14431.75
879.945	14251.75
880.187	14152.75
880.429	14098.75
880.671	13992.75
880.912	14023.75
881.154	13838.75
881.396	13799.75
881.638	13811.75
881.88	13802.75
882.121	13723.75
882.363	13857.75
882.605	13758.75
882.846	13761.75
883.088	13705.75
883.329	13686.75
883.571	13733.75
883.812	13789.75
884.053	13990.75
884.295	14303.75
884.536	14413.75
884.777	14356.75
885.018	14222.75
885.259	14132.75
885.5	14079.75
885.742	14281.75
885.982	13976.75
886.223	13846.75
886.464	13840.75
886.705	13613.75
886.946	13404.75
887.187	13242.75
887.428	13155.75
887.668	12957.75
887.909	12676.75
888.15	12635.75
888.39	12560.75
888.631	12494.75
888.871	12417.75
889.111	12274.75
889.352	12151.75
889.592	12012.75
889.833	12011.75
890.073	11948.75
890.313	11878.75
890.553	11767.75
890.793	11787.75
891.033	11708.75
891.273	11649.75
891.513	11559.75
891.753	11612.75
891.993	11565.75
892.233	11513.75
892.473	11672.75
892.713	11634.75
892.952	11476.75
893.192	11574.75
893.432	11505.75
893.671	11509.75
893.911	11392.75
894.15	11393.75
894.39	11267.75
894.629	11215.75
894.869	11125.75
895.108	11078.75
895.347	11077.75
895.587	11036.75
895.826	10997.75
896.065	10914.75
896.304	10934.75
896.543	11007.75
896.782	10884.75
897.021	10789.75
897.26	10791.75
897.499	10877.75
897.738	10846.75
897.977	10766.75
898.216	10611.75
898.454	10527.75
898.693	10431.75
898.932	10464.75
899.17	10290.75
899.409	10395.75
899.647	10332.75
899.886	10351.75
900.124	10354.75
900.363	10258.75
900.601	10323.75
900.839	10345.75
901.078	10314.75
901.316	10339.75
901.554	10417.75
901.792	10477.75
902.03	10386.75
902.268	10395.75
902.506	10410.75
902.744	10331.75
902.982	10333.75
903.22	10121.75
903.458	9947.75
903.695	9843.75
903.933	9730.75
904.171	9515.75
904.409	9367.75
904.646	9302.75
904.884	9214.75
905.121	9174.75
905.359	8998.75
905.596	8957.75
905.833	8764.75
906.071	8794.75
906.308	8811.75
906.545	8817.75
906.783	8689.75
907.02	8755.75
907.257	8650.75
907.494	8694.75
907.731	8650.75
907.968	8617.75
908.205	8520.75
908.442	8474.75
908.679	8420.75
908.915	8331.75
909.152	8297.75
909.389	8225.75
909.626	8103.75
909.862	8090.75
910.099	8088.75
910.335	8054.75
910.572	7982.75
910.808	7952.75
911.045	7913.75
911.281	7910.75
911.518	7893.75
911.754	7821.75
911.99	7768.75
912.226	7748.75
912.463	7631.75
912.699	7599.75
912.935	7481.75
913.171	7494.75
913.407	7363.75
913.643	7407.75
913.879	7307.75
914.114	7264.75
914.35	7159.75
914.586	7101.75
914.822	6987.75
915.057	7063.75
915.293	6930.75
915.529	6878.75
915.764	6977.75
916	6944.75
916.235	6853.75
916.471	6899.75
916.706	6786.75
916.941	6854.75
917.177	6779.75
917.412	6788.75
917.647	6806.75
917.882	6721.75
918.117	6802.75
918.352	6714.75
918.588	6830.75
918.823	6662.75
919.057	6543.75
919.292	6401.75
919.527	6574.75
919.762	6309.75
919.997	6378.75
920.232	6252.75
920.466	6246.75
920.701	6133.75
920.935	6132.75
921.17	6049.75
921.405	6054.75
921.639	6063.75
921.873	5971.75
922.108	5995.75
922.342	6005.75
922.576	5914.75
922.811	5937.75
923.045	5892.75
923.279	5899.75
923.513	5767.75
923.747	5819.75
923.981	5856.75
924.215	5722.75
924.449	5690.75
924.683	5595.75
924.917	5636.75
925.151	5603.75
925.385	5596.75
925.618	5548.75
925.852	5549.75
926.086	5427.75
926.319	5542.75
926.553	5481.75
926.786	5502.75
927.02	5490.75
927.253	5553.75
927.486	5534.75
927.72	5437.75
927.953	5456.75
928.186	5441.75
928.42	5419.75
928.653	5326.75
928.886	5333.75
929.119	5359.75
929.352	5284.75
929.585	5272.75
929.818	5212.75
930.051	5214.75
930.284	5222.75
930.516	5031.75
930.749	5029.75
930.982	5078.75
931.215	5093.75
931.447	4933.75
931.68	4922.75
931.912	4968.75
932.145	4942.75
932.377	4962.75
932.61	5102.75
932.842	4874.75
933.074	4966.75
933.307	4910.75
933.539	5008.75
933.771	4980.75
934.003	4867.75
934.236	4964.75
934.468	4992.75
934.7	4889.75
934.932	4876.75
935.164	4820.75
935.395	4791.75
935.627	4850.75
935.859	4821.75
936.091	4747.75
936.323	4771.75
936.554	4802.75
936.786	4697.75
937.017	4653.75
937.249	4714.75
937.481	4619.75
937.712	4641.75
937.943	4648.75
938.175	4674.75
938.406	4613.75
938.637	4671.75
938.869	4552.75
939.1	4626.75
939.331	4547.75
939.562	4570.75
939.793	4553.75
940.024	4583.75
940.255	4554.75
940.486	4515.75
940.717	4463.75
940.948	4502.75
941.179	4431.75
941.409	4393.75
941.64	4424.75
941.871	4423.75
942.102	4397.75
942.332	4385.75
942.563	4474.75
942.793	4414.75
943.024	4366.75
943.254	4391.75
943.484	4410.75
943.715	4382.75
943.945	4430.75
944.175	4340.75
944.405	4289.75
944.636	4296.75
944.866	4355.75
945.096	4308.75
945.326	4245.75
945.556	4284.75
945.786	4335.75
946.016	4215.75
946.245	4165.75
946.475	4164.75
946.705	4158.75
946.935	4126.75
947.164	4108.75
947.394	4074.75
947.624	4066.75
947.853	4128.75
948.083	4055.75
948.312	4039.75
948.542	3951.75
948.771	3894.75
949	3975.75
949.23	3989.75
949.459	3953.75
949.688	3966.75
949.917	3914.75
950.146	3981.75
950.375	3999.75
950.604	3886.75
950.833	3939.75
951.062	3944.75
951.291	3878.75
951.52	3890.75
951.749	3864.75
951.978	3830.75
952.206	3829.75
952.435	3821.75
952.664	3832.75
952.892	3839.75
953.121	3800.75
953.349	3769.75
953.578	3752.75
953.806	3753.75
954.035	3654.75
954.263	3736.75
954.491	3704.75
954.719	3646.75
954.948	3656.75
955.176	3635.75
955.404	3550.75
955.632	3642.75
955.86	3628.75
956.088	3624.75
956.316	3604.75
956.544	3587.75
956.772	3514.75
956.999	3487.75
957.227	3563.75
957.455	3468.75
957.683	3436.75
957.91	3384.75
958.138	3399.75
958.365	3344.75
958.593	3372.75
958.82	3278.75
959.048	3415.75
959.275	3369.75
959.502	3339.75
959.73	3302.75
959.957	3355.75
960.184	3335.75
960.411	3280.75
960.638	3360.75
960.865	3296.75
961.092	3343.75
961.319	3187.75
961.546	3325.75
961.773	3312.75
962	3240.75
962.227	3314.75
962.454	3251.75
962.68	3241.75
962.907	3254.75
963.134	3181.75
963.36	3195.75
963.587	3194.75
963.813	3088.75
964.04	3146.75
964.266	3089.75
964.493	3148.75
964.719	3161.75
964.945	3093.75
965.171	3026.75
965.398	3096.75
965.624	3064.75
965.85	2981.75
966.076	2957.75
966.302	3033.75
966.528	3000.75
966.754	3016.75
966.98	2989.75
967.206	2947.75
967.431	2897.75
967.657	3002.75
967.883	2927.75
968.109	2934.75
968.334	2873.75
968.56	2848.75
968.785	2864.75
969.011	2814.75
969.236	2902.75
969.462	2810.75
969.687	2837.75
969.912	2891.75
970.138	2902.75
970.363	2797.75
970.588	2816.75
970.813	2810.75
971.038	2786.75
971.263	2837.75
971.488	2785.75
971.713	2826.75
971.938	2774.75
972.163	2674.75
972.388	2708.75
972.613	2670.75
972.838	2686.75
973.062	2667.75
973.287	2637.75
973.512	2606.75
973.736	2661.75
973.961	2612.75
974.185	2572.75
974.41	2611.75
974.634	2530.75
974.858	2549.75
975.083	2575.75
975.307	2583.75
975.531	2522.75
975.755	2451.75
975.98	2465.75
976.204	2407.75
976.428	2371.75
976.652	2424.75
976.876	2374.75
977.1	2391.75
977.324	2379.75
977.547	2411.75
977.771	2433.75
977.995	2408.75
978.219	2310.75
978.442	2440.75
978.666	2342.75
978.89	2375.75
979.113	2374.75
979.337	2353.75
979.56	2309.75
979.783	2409.75
980.007	2311.75
980.23	2311.75
980.453	2254.75
980.677	2304.75
980.9	2283.75
981.123	2214.75
981.346	2312.75
981.569	2258.75
981.792	2273.75
982.015	2245.75
982.238	2162.75
982.461	2242.75
982.684	2181.75
982.907	2132.75
983.129	2136.75
983.352	2200.75
983.575	2163.75
983.797	2186.75
984.02	2138.75
984.242	2143.75
984.465	2135.75
984.687	2133.75
984.91	2167.75
985.132	2104.75
985.354	2136.75
985.577	2104.75
985.799	2100.75
986.021	2013.75
986.243	2018.75
986.465	2047.75
986.687	2065.75
986.909	2100.75
987.131	2053.75
987.353	2000.75
987.575	2069.75
987.797	2027.75
988.019	1960.75
988.241	2020.75
988.462	1970.75
988.684	2031.75
988.906	2033.75
989.127	2031.75
989.349	1938.75
989.57	1953.75
989.792	2008.75
990.013	2012.75
990.234	2019.75
990.456	2016.75
990.677	2000.75
990.898	1958.75
991.119	1957.75
991.341	1955.75
991.562	1889.75
991.783	1920.75
992.004	1869.75
992.225	1878.75
992.446	1924.75
992.667	1813.75
992.887	1892.75
993.108	1782.75
993.329	1889.75
993.55	1867.75
993.77	1793.75
993.991	1795.75
994.212	1800.75
994.432	1797.75
994.653	1817.75
994.873	1849.75
995.093	1698.75
995.314	1757.75
995.534	1806.75
995.754	1816.75
995.975	1837.75
996.195	1693.75
996.415	1777.75
996.635	1741.75
996.855	1779.75
997.075	1771.75
997.295	1733.75
997.515	1724.75
997.735	1774.75
997.955	1738.75
998.174	1728.75
998.394	1712.75
998.614	1730.75
998.834	1689.75
999.053	1753.75
999.273	1715.75
999.492	1760.75
999.712	1719.75
999.931	1638.75
1000.151	1705.75
1000.37	1706.75
1000.589	1737.75
1000.809	1654.75
1001.028	1776.75
1001.247	1704.75
1001.466	1603.75
1001.685	1755.75
1001.904	1691.75
1002.123	1655.75
1002.342	1654.75
1002.561	1604.75
1002.78	1637.75
1002.999	1702.75
1003.218	1657.75
1003.436	1639.75
1003.655	1688.75
1003.874	1568.75
1004.092	1615.75
1004.311	1676.75
1004.53	1632.75
1004.748	1650.75
1004.966	1601.75
1005.185	1632.75
1005.403	1647.75
1005.622	1613.75
1005.84	1704.75
1006.058	1577.75
1006.276	1605.75
1006.494	2091.75
1006.712	1611.75
1006.931	1654.75
1007.149	1566.75
1007.367	1561.75
1007.584	1597.75
1007.802	1649.75
1008.02	1586.75
1008.238	1696.75
1008.456	1694.75
1008.673	1577.75
1008.891	1665.75
1009.109	1637.75
1009.326	1680.75
1009.544	1768.75
1009.761	1686.75
1009.979	1790.75
1010.196	1792.75
1010.413	1902.75
1010.631	1928.75
1010.848	2043.75
1011.065	1994.75
1011.282	1963.75
1011.5	1887.75
1011.717	2024.75
1011.934	1898.75
1012.151	1944.75
1012.368	1919.75
1012.585	1894.75
1012.801	1921.75
1013.018	1890.75
1013.235	1863.75
1013.452	1888.75
1013.669	1914.75
1013.885	1898.75
1014.102	1921.75
1014.318	1885.75
1014.535	1868.75
1014.751	1889.75
1014.968	1862.75
1015.184	1884.75
1015.401	1786.75
1015.617	1832.75
1015.833	1761.75
1016.049	1788.75
1016.266	1736.75
1016.482	1759.75
1016.698	1656.75
1016.914	1705.75
1017.13	1669.75
1017.346	1624.75
1017.562	1718.75
1017.778	1621.75
1017.993	1607.75
1018.209	1671.75
1018.425	1644.75
1018.641	1611.75
1018.856	1570.75
1019.072	1601.75
1019.288	1647.75
1019.503	1606.75
1019.719	1490.75
1019.934	1543.75
1020.149	1605.75
1020.365	1533.75
1020.58	1475.75
1020.795	1558.75
1021.011	1464.75
1021.226	1423.75
1021.441	1444.75
1021.656	1383.75
1021.871	1285.75
1022.086	1310.75
1022.301	1289.75
1022.516	1274.75
1022.731	1321.75
1022.946	1248.75
1023.16	1225.75
1023.375	1208.75
1023.59	1187.75
1023.804	1124.75
1024.019	1236.75
1024.234	1115.75
1024.448	1149.75
1024.663	1056.75
1024.877	1073.75
1025.092	1089.75
1025.306	1072.75
1025.52	980.75
1025.734	1051.75
1025.949	987.75
1026.163	977.75
1026.377	916.75
1026.591	952.75
1026.805	883.75
1027.019	875.75
1027.233	834.75
1027.447	795.75
1027.661	878.75
1027.875	797.75
1028.088	824.75
1028.302	745.75
1028.516	731.75
1028.73	739.75
1028.943	743.75
1029.157	665.75
1029.37	645.75
1029.584	-1.25
1029.797	-3.25
1030.011	-2.25
1030.224	-4.25
