Data from QEP037381__185__15-54-19-888.txt Node

Date: Fri Dec 16 15:54:19 EST 2022
User: dcclab
Spectrometer: QEP03738
Trigger mode: 4
Integration Time (sec): 1.000000E1
Scans to average: 1
Electric dark correction enabled: true
Nonlinearity correction enabled: false
Boxcar width: 0
XAxis mode: Wavelengths
Number of Pixels in Spectrum: 1044
>>>>>Begin Spectral Data<<<<<
784.041	14
784.3	3
784.558	-3
784.817	-4
785.075	113165
785.334	19520
785.592	9117
785.851	6309
786.109	4734
786.368	3691
786.626	2977
786.884	2500
787.143	2048
787.401	1694
787.659	1532
787.917	1335
788.175	1178
788.433	1046
788.691	943
788.949	865
789.207	823
789.465	731
789.723	704
789.98	627
790.238	670
790.496	629
790.753	602
791.011	656
791.268	577
791.526	562
791.783	587
792.041	552
792.298	482
792.556	527
792.813	511
793.07	493
793.327	486
793.584	553
793.841	464
794.099	513
794.356	550
794.613	453
794.869	497
795.126	459
795.383	430
795.64	469
795.897	418
796.153	482
796.41	463
796.667	440
796.923	467
797.18	442
797.436	477
797.693	455
797.949	499
798.206	532
798.462	427
798.718	513
798.974	474
799.231	534
799.487	514
799.743	524
799.999	565
800.255	551
800.511	541
800.767	586
801.023	581
801.279	645
801.534	663
801.79	720
802.046	770
802.302	933
802.557	1082
802.813	1326
803.068	1657
803.324	2356
803.579	3190
803.835	4515
804.09	6170
804.345	8244
804.601	10561
804.856	12845
805.111	15050
805.366	16646
805.621	17772
805.876	18573
806.131	19211
806.386	19512
806.641	19871
806.896	20160
807.151	20533
807.406	20919
807.661	21300
807.915	21714
808.17	22015
808.425	22298
808.679	22363
808.934	22558
809.188	22770
809.443	23090
809.697	23234
809.951	23421
810.206	23584
810.46	23838
810.714	23949
810.968	24223
811.223	24483
811.477	24689
811.731	24839
811.985	24992
812.239	25067
812.493	25214
812.747	25191
813	25322
813.254	25504
813.508	25662
813.762	25793
814.015	25732
814.269	25987
814.522	26159
814.776	26557
815.03	26964
815.283	27195
815.536	27550
815.79	28086
816.043	28464
816.296	28776
816.55	29161
816.803	29556
817.056	29873
817.309	30135
817.562	30420
817.815	30574
818.068	30869
818.321	31230
818.574	31469
818.827	32000
819.079	32317
819.332	33006
819.585	33110
819.838	33687
820.09	33778
820.343	33988
820.595	34147
820.848	34448
821.1	34622
821.353	34538
821.605	34518
821.857	34431
822.11	34433
822.362	34298
822.614	34104
822.866	34128
823.118	34219
823.37	34303
823.622	34219
823.874	34305
824.126	34553
824.378	34619
824.63	34669
824.882	34921
825.134	34738
825.385	34564
825.637	34696
825.888	34484
826.14	34415
826.392	34317
826.643	34114
826.895	33998
827.146	33800
827.397	33693
827.649	33770
827.9	33626
828.151	33675
828.402	33805
828.653	33958
828.905	33957
829.156	34038
829.407	33941
829.658	34081
829.909	34139
830.159	33948
830.41	33854
830.661	33523
830.912	33228
831.162	33342
831.413	33184
831.664	33252
831.914	33088
832.165	32933
832.415	33135
832.666	33090
832.916	33091
833.167	32823
833.417	32981
833.667	32981
833.917	32717
834.168	32577
834.418	32672
834.668	32280
834.918	32116
835.168	32093
835.418	31965
835.668	31936
835.918	31834
836.167	31620
836.417	31577
836.667	31611
836.917	31609
837.166	31597
837.416	31536
837.666	31543
837.915	31381
838.165	31362
838.414	31225
838.663	31157
838.913	31162
839.162	30916
839.411	31008
839.661	30783
839.91	30779
840.159	30732
840.408	30654
840.657	30652
840.906	30679
841.155	30607
841.404	30701
841.653	30576
841.902	30498
842.15	30688
842.399	30618
842.648	30555
842.897	30431
843.145	30140
843.394	30098
843.642	29875
843.891	29879
844.139	29621
844.388	29572
844.636	29234
844.884	29221
845.133	29235
845.381	29207
845.629	29232
845.877	29047
846.125	29089
846.373	29097
846.621	28772
846.869	28683
847.117	28632
847.365	28561
847.613	28298
847.861	28215
848.108	28200
848.356	28067
848.604	27940
848.851	27969
849.099	28088
849.346	28096
849.594	28241
849.841	28330
850.089	28439
850.336	28334
850.583	28295
850.831	28059
851.078	27876
851.325	27825
851.572	27932
851.819	27643
852.066	27154
852.313	26819
852.56	26618
852.807	26588
853.054	26505
853.301	26524
853.548	26382
853.794	26510
854.041	26574
854.288	26601
854.534	26847
854.781	26831
855.028	26757
855.274	26667
855.52	26601
855.767	26275
856.013	26213
856.26	26532
856.506	26061
856.752	26044
856.998	25920
857.244	26088
857.49	26187
857.736	26202
857.982	26214
858.228	26161
858.474	25953
858.72	25788
858.966	25465
859.212	25391
859.458	25002
859.703	24805
859.949	24520
860.195	24499
860.44	24351
860.686	24200
860.931	24192
861.177	23989
861.422	23888
861.667	23760
861.913	23808
862.158	23838
862.403	23814
862.648	23875
862.893	23959
863.138	23883
863.384	23833
863.629	23817
863.873	23850
864.118	23608
864.363	23482
864.608	23565
864.853	23411
865.098	23207
865.342	23151
865.587	23000
865.832	22945
866.076	22949
866.321	22880
866.565	22795
866.81	22597
867.054	22592
867.298	22511
867.543	22463
867.787	22425
868.031	22304
868.275	22426
868.519	22135
868.764	22211
869.008	22129
869.252	22096
869.496	22013
869.739	21857
869.983	21858
870.227	21821
870.471	21847
870.715	21956
870.958	21929
871.202	21933
871.446	21974
871.689	22087
871.933	21942
872.176	21953
872.42	21878
872.663	21754
872.906	21698
873.15	21774
873.393	21502
873.636	21653
873.879	21269
874.122	21053
874.366	20799
874.609	20605
874.852	20427
875.095	20483
875.337	20289
875.58	20159
875.823	20053
876.066	20130
876.309	20093
876.551	19822
876.794	19714
877.037	19655
877.279	19646
877.522	19623
877.764	19702
878.007	19621
878.249	19562
878.491	19520
878.734	19540
878.976	19480
879.218	19281
879.46	19254
879.702	19064
879.945	18932
880.187	18741
880.429	18653
880.671	18460
880.912	18485
881.154	18418
881.396	18352
881.638	18304
881.88	18355
882.121	18139
882.363	18257
882.605	18245
882.846	18116
883.088	18190
883.329	18016
883.571	17991
883.812	18116
884.053	18361
884.295	18511
884.536	18793
884.777	18573
885.018	18412
885.259	18453
885.5	18243
885.742	18476
885.982	18209
886.223	18071
886.464	17970
886.705	17779
886.946	17725
887.187	17419
887.428	17407
887.668	17171
887.909	16998
888.15	16689
888.39	16687
888.631	16678
888.871	16415
889.111	16320
889.352	16257
889.592	16125
889.833	15921
890.073	15903
890.313	15740
890.553	15601
890.793	15548
891.033	15413
891.273	15417
891.513	15271
891.753	15347
891.993	15171
892.233	15229
892.473	15299
892.713	15339
892.952	15240
893.192	15328
893.432	15260
893.671	15299
893.911	15086
894.15	15008
894.39	14926
894.629	14886
894.869	14791
895.108	14627
895.347	14552
895.587	14545
895.826	14377
896.065	14396
896.304	14392
896.543	14456
896.782	14268
897.021	14312
897.26	14243
897.499	14307
897.738	14227
897.977	14080
898.216	13915
898.454	13857
898.693	13721
898.932	13733
899.17	13596
899.409	13566
899.647	13466
899.886	13532
900.124	13564
900.363	13436
900.601	13444
900.839	13527
901.078	13443
901.316	13525
901.554	13573
901.792	13548
902.03	13485
902.268	13503
902.506	13577
902.744	13494
902.982	13495
903.22	13189
903.458	12975
903.695	12870
903.933	12762
904.171	12567
904.409	12287
904.646	12229
904.884	12022
905.121	11904
905.359	11775
905.596	11742
905.833	11611
906.071	11517
906.308	11513
906.545	11514
906.783	11460
907.02	11425
907.257	11259
907.494	11413
907.731	11318
907.968	11309
908.205	11208
908.442	11060
908.679	11023
908.915	10969
909.152	10960
909.389	10721
909.626	10675
909.862	10546
910.099	10531
910.335	10536
910.572	10438
910.808	10407
911.045	10354
911.281	10265
911.518	10374
911.754	10189
911.99	10243
912.226	10127
912.463	9977
912.699	9941
912.935	9881
913.171	9815
913.407	9694
913.643	9673
913.879	9494
914.114	9522
914.35	9369
914.586	9271
914.822	9240
915.057	9184
915.293	9016
915.529	9064
915.764	9038
916	9060
916.235	8990
916.471	9021
916.706	8896
916.941	8887
917.177	8860
917.412	8933
917.647	8795
917.882	8810
918.117	8837
918.352	8857
918.588	8799
918.823	8770
919.057	8547
919.292	8343
919.527	8518
919.762	8230
919.997	8289
920.232	8115
920.466	8095
920.701	7959
920.935	7938
921.17	7878
921.405	7834
921.639	7889
921.873	7806
922.108	7809
922.342	7820
922.576	7718
922.811	7688
923.045	7672
923.279	7660
923.513	7518
923.747	7549
923.981	7449
924.215	7433
924.449	7356
924.683	7252
924.917	7235
925.151	7220
925.385	7268
925.618	7234
925.852	7190
926.086	7104
926.319	7142
926.553	7087
926.786	7164
927.02	7078
927.253	7087
927.486	7085
927.72	7024
927.953	7022
928.186	6958
928.42	7034
928.653	6912
928.886	6901
929.119	6913
929.352	6884
929.585	6857
929.818	6715
930.051	6749
930.284	6683
930.516	6547
930.749	6499
930.982	6469
931.215	6521
931.447	6420
931.68	6401
931.912	6397
932.145	6364
932.377	6369
932.61	6466
932.842	6268
933.074	6369
933.307	6302
933.539	6394
933.771	6367
934.003	6335
934.236	6414
934.468	6342
934.7	6273
934.932	6270
935.164	6241
935.395	6248
935.627	6210
935.859	6201
936.091	6128
936.323	6154
936.554	6164
936.786	6049
937.017	5996
937.249	6047
937.481	5966
937.712	5996
937.943	5942
938.175	5996
938.406	5930
938.637	5951
938.869	5910
939.1	5891
939.331	5866
939.562	5893
939.793	5844
940.024	5812
940.255	5826
940.486	5778
940.717	5730
940.948	5703
941.179	5629
941.409	5677
941.64	5650
941.871	5641
942.102	5622
942.332	5611
942.563	5669
942.793	5636
943.024	5549
943.254	5568
943.484	5667
943.715	5651
943.945	5607
944.175	5512
944.405	5545
944.636	5497
944.866	5578
945.096	5524
945.326	5489
945.556	5497
945.786	5475
946.016	5409
946.245	5304
946.475	5338
946.705	5280
946.935	5293
947.164	5293
947.394	5178
947.624	5184
947.853	5180
948.083	5155
948.312	5132
948.542	5052
948.771	5035
949	5040
949.23	5017
949.459	5022
949.688	5081
949.917	5091
950.146	5009
950.375	5084
950.604	4959
950.833	5053
951.062	5044
951.291	4958
951.52	4930
951.749	4945
951.978	4896
952.206	4881
952.435	4818
952.664	4843
952.892	4864
953.121	4800
953.349	4814
953.578	4832
953.806	4765
954.035	4654
954.263	4684
954.491	4601
954.719	4653
954.948	4599
955.176	4602
955.404	4505
955.632	4599
955.86	4581
956.088	4497
956.316	4539
956.544	4490
956.772	4467
956.999	4422
957.227	4501
957.455	4414
957.683	4380
957.91	4295
958.138	4310
958.365	4317
958.593	4259
958.82	4207
959.048	4226
959.275	4225
959.502	4203
959.73	4208
959.957	4230
960.184	4207
960.411	4138
960.638	4231
960.865	4126
961.092	4199
961.319	4053
961.546	4147
961.773	4131
962	4117
962.227	4202
962.454	4087
962.68	4107
962.907	4113
963.134	4028
963.36	4041
963.587	4011
963.813	3939
964.04	3987
964.266	3855
964.493	3954
964.719	3912
964.945	3909
965.171	3791
965.398	3816
965.624	3856
965.85	3771
966.076	3733
966.302	3793
966.528	3731
966.754	3769
966.98	3655
967.206	3719
967.431	3634
967.657	3715
967.883	3671
968.109	3640
968.334	3624
968.56	3573
968.785	3605
969.011	3543
969.236	3562
969.462	3512
969.687	3568
969.912	3588
970.138	3581
970.363	3511
970.588	3498
970.813	3438
971.038	3429
971.263	3464
971.488	3450
971.713	3447
971.938	3526
972.163	3349
972.388	3378
972.613	3364
972.838	3354
973.062	3366
973.287	3309
973.512	3240
973.736	3319
973.961	3257
974.185	3233
974.41	3237
974.634	3174
974.858	3156
975.083	3209
975.307	3176
975.531	3091
975.755	3083
975.98	3106
976.204	3024
976.428	3000
976.652	3019
976.876	2971
977.1	3002
977.324	2930
977.547	3012
977.771	3039
977.995	2963
978.219	2882
978.442	3009
978.666	2983
978.89	2902
979.113	2925
979.337	2947
979.56	2859
979.783	2924
980.007	2853
980.23	2855
980.453	2809
980.677	2808
980.9	2838
981.123	2715
981.346	2798
981.569	2798
981.792	2774
982.015	2760
982.238	2723
982.461	2733
982.684	2709
982.907	2637
983.129	2633
983.352	2709
983.575	2629
983.797	2627
984.02	2598
984.242	2612
984.465	2560
984.687	2600
984.91	2608
985.132	2577
985.354	2583
985.577	2572
985.799	2562
986.021	2488
986.243	2485
986.465	2468
986.687	2501
986.909	2568
987.131	2478
987.353	2427
987.575	2487
987.797	2469
988.019	2408
988.241	2444
988.462	2408
988.684	2445
988.906	2483
989.127	2507
989.349	2359
989.57	2413
989.792	2425
990.013	2397
990.234	2444
990.456	2413
990.677	2419
990.898	2361
991.119	2303
991.341	2340
991.562	2286
991.783	2333
992.004	2269
992.225	2248
992.446	2281
992.667	2172
992.887	2277
993.108	2171
993.329	2275
993.55	2212
993.77	2146
993.991	2151
994.212	2160
994.432	2164
994.653	2166
994.873	2178
995.093	2035
995.314	2079
995.534	2147
995.754	2159
995.975	2166
996.195	2062
996.415	2109
996.635	2131
996.855	2100
997.075	2066
997.295	2036
997.515	2015
997.735	2089
997.955	2044
998.174	2045
998.394	2013
998.614	2064
998.834	2016
999.053	2099
999.273	2025
999.492	2088
999.712	2045
999.931	1978
1000.151	2011
1000.37	1961
1000.589	2030
1000.809	1956
1001.028	2069
1001.247	1993
1001.466	1884
1001.685	2013
1001.904	1932
1002.123	1962
1002.342	1926
1002.561	1882
1002.78	1906
1002.999	1970
1003.218	1891
1003.436	1861
1003.655	1943
1003.874	1850
1004.092	1918
1004.311	1920
1004.53	1860
1004.748	1917
1004.966	1869
1005.185	1906
1005.403	1884
1005.622	1862
1005.84	1924
1006.058	1827
1006.276	1846
1006.494	2346
1006.712	1850
1006.931	1912
1007.149	1820
1007.367	1825
1007.584	1845
1007.802	1864
1008.02	1836
1008.238	1908
1008.456	1908
1008.673	1779
1008.891	1894
1009.109	1855
1009.326	1912
1009.544	1992
1009.761	1893
1009.979	1971
1010.196	2002
1010.413	2107
1010.631	2134
1010.848	2213
1011.065	2185
1011.282	2117
1011.5	2046
1011.717	2172
1011.934	2130
1012.151	2104
1012.368	2094
1012.585	2078
1012.801	2103
1013.018	2086
1013.235	2051
1013.452	2051
1013.669	2089
1013.885	2062
1014.102	2116
1014.318	2034
1014.535	1997
1014.751	2048
1014.968	2047
1015.184	2067
1015.401	1974
1015.617	1968
1015.833	1923
1016.049	1945
1016.266	1908
1016.482	1906
1016.698	1844
1016.914	1869
1017.13	1847
1017.346	1832
1017.562	1876
1017.778	1806
1017.993	1766
1018.209	1804
1018.425	1782
1018.641	1772
1018.856	1736
1019.072	1753
1019.288	1805
1019.503	1778
1019.719	1689
1019.934	1688
1020.149	1762
1020.365	1676
1020.58	1665
1020.795	1702
1021.011	1624
1021.226	1582
1021.441	1620
1021.656	1522
1021.871	1462
1022.086	1463
1022.301	1437
1022.516	1416
1022.731	1467
1022.946	1389
1023.16	1361
1023.375	1351
1023.59	1307
1023.804	1273
1024.019	1370
1024.234	1237
1024.448	1242
1024.663	1173
1024.877	1193
1025.092	1212
1025.306	1206
1025.52	1108
1025.734	1192
1025.949	1096
1026.163	1066
1026.377	1011
1026.591	1073
1026.805	993
1027.019	977
1027.233	939
1027.447	892
1027.661	979
1027.875	925
1028.088	927
1028.302	845
1028.516	831
1028.73	816
1028.943	820
1029.157	755
1029.37	711
1029.584	-3
1029.797	-1
1030.011	-3
1030.224	-3
