Data from QEP037381__184__15-54-09-888.txt Node

Date: Fri Dec 16 15:54:09 EST 2022
User: dcclab
Spectrometer: QEP03738
Trigger mode: 4
Integration Time (sec): 1.000000E1
Scans to average: 1
Electric dark correction enabled: true
Nonlinearity correction enabled: false
Boxcar width: 0
XAxis mode: Wavelengths
Number of Pixels in Spectrum: 1044
>>>>>Begin Spectral Data<<<<<
784.041	11.12
784.3	-1.88
784.558	-0.88
784.817	-1.88
785.075	110423.12
785.334	19373.12
785.592	9197.12
785.851	6373.12
786.109	4787.12
786.368	3709.12
786.626	2971.12
786.884	2450.12
787.143	2033.12
787.401	1692.12
787.659	1514.12
787.917	1310.12
788.175	1178.12
788.433	1021.12
788.691	918.12
788.949	844.12
789.207	822.12
789.465	719.12
789.723	670.12
789.98	602.12
790.238	647.12
790.496	623.12
790.753	593.12
791.011	623.12
791.268	575.12
791.526	549.12
791.783	578.12
792.041	546.12
792.298	446.12
792.556	529.12
792.813	499.12
793.07	470.12
793.327	468.12
793.584	552.12
793.841	472.12
794.099	498.12
794.356	557.12
794.613	437.12
794.869	475.12
795.126	446.12
795.383	424.12
795.64	439.12
795.897	404.12
796.153	451.12
796.41	426.12
796.667	426.12
796.923	444.12
797.18	438.12
797.436	458.12
797.693	426.12
797.949	475.12
798.206	503.12
798.462	413.12
798.718	484.12
798.974	452.12
799.231	495.12
799.487	489.12
799.743	504.12
799.999	512.12
800.255	535.12
800.511	499.12
800.767	565.12
801.023	559.12
801.279	582.12
801.534	623.12
801.79	662.12
802.046	690.12
802.302	830.12
802.557	940.12
802.813	1163.12
803.068	1448.12
803.324	1993.12
803.579	2679.12
803.835	3725.12
804.09	5160.12
804.345	6750.12
804.601	8484.12
804.856	10322.12
805.111	11993.12
805.366	13156.12
805.621	14142.12
805.876	14846.12
806.131	15148.12
806.386	15390.12
806.641	15740.12
806.896	15917.12
807.151	16259.12
807.406	16502.12
807.661	16749.12
807.915	17101.12
808.17	17379.12
808.425	17513.12
808.679	17668.12
808.934	17811.12
809.188	17904.12
809.443	18109.12
809.697	18370.12
809.951	18426.12
810.206	18652.12
810.46	18766.12
810.714	18946.12
810.968	19171.12
811.223	19246.12
811.477	19426.12
811.731	19633.12
811.985	19595.12
812.239	19647.12
812.493	19829.12
812.747	19909.12
813	19889.12
813.254	19994.12
813.508	20092.12
813.762	20156.12
814.015	20265.12
814.269	20489.12
814.522	20530.12
814.776	20743.12
815.03	21034.12
815.283	21239.12
815.536	21706.12
815.79	22004.12
816.043	22279.12
816.296	22423.12
816.55	22773.12
816.803	22963.12
817.056	23305.12
817.309	23432.12
817.562	23648.12
817.815	23859.12
818.068	23960.12
818.321	24238.12
818.574	24535.12
818.827	24758.12
819.079	25063.12
819.332	25511.12
819.585	25798.12
819.838	26072.12
820.09	26254.12
820.343	26437.12
820.595	26541.12
820.848	26700.12
821.1	26750.12
821.353	26798.12
821.605	26752.12
821.857	26784.12
822.11	26644.12
822.362	26622.12
822.614	26474.12
822.866	26523.12
823.118	26411.12
823.37	26629.12
823.622	26673.12
823.874	26664.12
824.126	26863.12
824.378	26771.12
824.63	27008.12
824.882	27017.12
825.134	26914.12
825.385	26772.12
825.637	26968.12
825.888	26585.12
826.14	26584.12
826.392	26613.12
826.643	26300.12
826.895	26341.12
827.146	26155.12
827.397	26201.12
827.649	26107.12
827.9	26057.12
828.151	26130.12
828.402	26080.12
828.653	26228.12
828.905	26336.12
829.156	26338.12
829.407	26354.12
829.658	26209.12
829.909	26320.12
830.159	26354.12
830.41	26275.12
830.661	25948.12
830.912	25794.12
831.162	25604.12
831.413	25752.12
831.664	25683.12
831.914	25617.12
832.165	25599.12
832.415	25546.12
832.666	25531.12
832.916	25717.12
833.167	25534.12
833.417	25521.12
833.667	25406.12
833.917	25379.12
834.168	25239.12
834.418	25298.12
834.668	25088.12
834.918	25022.12
835.168	24923.12
835.418	24736.12
835.668	24813.12
835.918	24755.12
836.167	24685.12
836.417	24526.12
836.667	24580.12
836.917	24456.12
837.166	24420.12
837.416	24401.12
837.666	24323.12
837.915	24228.12
838.165	24314.12
838.414	24202.12
838.663	24025.12
838.913	24051.12
839.162	24055.12
839.411	23973.12
839.661	23836.12
839.91	23897.12
840.159	23782.12
840.408	23855.12
840.657	23809.12
840.906	23710.12
841.155	23652.12
841.404	23654.12
841.653	23745.12
841.902	23737.12
842.15	23696.12
842.399	23808.12
842.648	23719.12
842.897	23597.12
843.145	23480.12
843.394	23407.12
843.642	23261.12
843.891	23150.12
844.139	22883.12
844.388	22883.12
844.636	22631.12
844.884	22732.12
845.133	22611.12
845.381	22606.12
845.629	22700.12
845.877	22674.12
846.125	22544.12
846.373	22532.12
846.621	22440.12
846.869	22272.12
847.117	22087.12
847.365	21954.12
847.613	22010.12
847.861	21882.12
848.108	21800.12
848.356	21876.12
848.604	21731.12
848.851	21811.12
849.099	21684.12
849.346	21707.12
849.594	21902.12
849.841	21943.12
850.089	21924.12
850.336	21972.12
850.583	21964.12
850.831	21811.12
851.078	21715.12
851.325	21690.12
851.572	21727.12
851.819	21571.12
852.066	21221.12
852.313	20846.12
852.56	20637.12
852.807	20613.12
853.054	20569.12
853.301	20543.12
853.548	20622.12
853.794	20633.12
854.041	20661.12
854.288	20681.12
854.534	21061.12
854.781	20883.12
855.028	20819.12
855.274	20783.12
855.52	20628.12
855.767	20560.12
856.013	20620.12
856.26	20882.12
856.506	20303.12
856.752	20371.12
856.998	20314.12
857.244	20303.12
857.49	20467.12
857.736	20498.12
857.982	20527.12
858.228	20418.12
858.474	20186.12
858.72	20112.12
858.966	19938.12
859.212	19734.12
859.458	19544.12
859.703	19352.12
859.949	19092.12
860.195	19062.12
860.44	18897.12
860.686	18776.12
860.931	18858.12
861.177	18679.12
861.422	18710.12
861.667	18464.12
861.913	18522.12
862.158	18511.12
862.403	18478.12
862.648	18625.12
862.893	18681.12
863.138	18601.12
863.384	18466.12
863.629	18564.12
863.873	18522.12
864.118	18477.12
864.363	18340.12
864.608	18403.12
864.853	18196.12
865.098	18101.12
865.342	17904.12
865.587	17893.12
865.832	17969.12
866.076	17926.12
866.321	17800.12
866.565	17695.12
866.81	17655.12
867.054	17615.12
867.298	17511.12
867.543	17483.12
867.787	17514.12
868.031	17400.12
868.275	17353.12
868.519	17407.12
868.764	17365.12
869.008	17330.12
869.252	17322.12
869.496	17159.12
869.739	17129.12
869.983	17128.12
870.227	17103.12
870.471	17080.12
870.715	17133.12
870.958	17214.12
871.202	17204.12
871.446	17253.12
871.689	17186.12
871.933	17254.12
872.176	17235.12
872.42	17209.12
872.663	17126.12
872.906	17102.12
873.15	17060.12
873.393	16960.12
873.636	17035.12
873.879	16878.12
874.122	16694.12
874.366	16328.12
874.609	16240.12
874.852	16139.12
875.095	16059.12
875.337	15966.12
875.58	15804.12
875.823	15815.12
876.066	15793.12
876.309	15709.12
876.551	15598.12
876.794	15480.12
877.037	15446.12
877.279	15420.12
877.522	15434.12
877.764	15484.12
878.007	15394.12
878.249	15482.12
878.491	15321.12
878.734	15333.12
878.976	15273.12
879.218	15064.12
879.46	15092.12
879.702	15079.12
879.945	14797.12
880.187	14730.12
880.429	14620.12
880.671	14478.12
880.912	14572.12
881.154	14484.12
881.396	14325.12
881.638	14356.12
881.88	14338.12
882.121	14388.12
882.363	14254.12
882.605	14317.12
882.846	14227.12
883.088	14252.12
883.329	14205.12
883.571	14284.12
883.812	14338.12
884.053	14551.12
884.295	14779.12
884.536	15064.12
884.777	14883.12
885.018	14813.12
885.259	14676.12
885.5	14594.12
885.742	14896.12
885.982	14515.12
886.223	14338.12
886.464	14297.12
886.705	14151.12
886.946	14004.12
887.187	13801.12
887.428	13731.12
887.668	13487.12
887.909	13305.12
888.15	13122.12
888.39	13109.12
888.631	13046.12
888.871	12858.12
889.111	12819.12
889.352	12719.12
889.592	12596.12
889.833	12466.12
890.073	12438.12
890.313	12485.12
890.553	12228.12
890.793	12225.12
891.033	12093.12
891.273	12093.12
891.513	12033.12
891.753	12057.12
891.993	11965.12
892.233	12012.12
892.473	12082.12
892.713	12039.12
892.952	11992.12
893.192	12040.12
893.432	11940.12
893.671	11982.12
893.911	11870.12
894.15	11861.12
894.39	11771.12
894.629	11661.12
894.869	11629.12
895.108	11580.12
895.347	11421.12
895.587	11425.12
895.826	11412.12
896.065	11386.12
896.304	11419.12
896.543	11416.12
896.782	11232.12
897.021	11299.12
897.26	11297.12
897.499	11271.12
897.738	11247.12
897.977	11143.12
898.216	11048.12
898.454	10948.12
898.693	10818.12
898.932	10863.12
899.17	10766.12
899.409	10701.12
899.647	10681.12
899.886	10628.12
900.124	10697.12
900.363	10715.12
900.601	10708.12
900.839	10741.12
901.078	10706.12
901.316	10780.12
901.554	10846.12
901.792	10846.12
902.03	10849.12
902.268	10789.12
902.506	10790.12
902.744	10729.12
902.982	10729.12
903.22	10526.12
903.458	10376.12
903.695	10253.12
903.933	10116.12
904.171	9946.12
904.409	9839.12
904.646	9770.12
904.884	9479.12
905.121	9464.12
905.359	9291.12
905.596	9263.12
905.833	9177.12
906.071	9181.12
906.308	9194.12
906.545	9193.12
906.783	9059.12
907.02	8973.12
907.257	8945.12
907.494	8933.12
907.731	8934.12
907.968	8918.12
908.205	8903.12
908.442	8770.12
908.679	8715.12
908.915	8638.12
909.152	8610.12
909.389	8495.12
909.626	8457.12
909.862	8340.12
910.099	8370.12
910.335	8303.12
910.572	8247.12
910.808	8280.12
911.045	8288.12
911.281	8188.12
911.518	8189.12
911.754	8174.12
911.99	8110.12
912.226	8017.12
912.463	7922.12
912.699	7954.12
912.935	7821.12
913.171	7733.12
913.407	7627.12
913.643	7663.12
913.879	7615.12
914.114	7544.12
914.35	7456.12
914.586	7374.12
914.822	7347.12
915.057	7340.12
915.293	7131.12
915.529	7119.12
915.764	7154.12
916	7145.12
916.235	7121.12
916.471	7123.12
916.706	7035.12
916.941	7109.12
917.177	7058.12
917.412	7032.12
917.647	7049.12
917.882	7035.12
918.117	7027.12
918.352	6937.12
918.588	7037.12
918.823	6925.12
919.057	6814.12
919.292	6686.12
919.527	6737.12
919.762	6644.12
919.997	6573.12
920.232	6453.12
920.466	6474.12
920.701	6334.12
920.935	6366.12
921.17	6332.12
921.405	6254.12
921.639	6295.12
921.873	6246.12
922.108	6235.12
922.342	6174.12
922.576	6126.12
922.811	6107.12
923.045	6116.12
923.279	6129.12
923.513	5976.12
923.747	6072.12
923.981	6017.12
924.215	5953.12
924.449	5885.12
924.683	5767.12
924.917	5830.12
925.151	5802.12
925.385	5820.12
925.618	5737.12
925.852	5728.12
926.086	5664.12
926.319	5747.12
926.553	5692.12
926.786	5679.12
927.02	5641.12
927.253	5735.12
927.486	5717.12
927.72	5585.12
927.953	5664.12
928.186	5639.12
928.42	5612.12
928.653	5557.12
928.886	5503.12
929.119	5543.12
929.352	5494.12
929.585	5456.12
929.818	5364.12
930.051	5400.12
930.284	5424.12
930.516	5304.12
930.749	5228.12
930.982	5239.12
931.215	5237.12
931.447	5154.12
931.68	5158.12
931.912	5083.12
932.145	5107.12
932.377	5129.12
932.61	5282.12
932.842	5004.12
933.074	5142.12
933.307	5078.12
933.539	5149.12
933.771	5161.12
934.003	5076.12
934.236	5142.12
934.468	5082.12
934.7	5079.12
934.932	5054.12
935.164	5034.12
935.395	4991.12
935.627	5041.12
935.859	4975.12
936.091	4927.12
936.323	4953.12
936.554	4927.12
936.786	4877.12
937.017	4779.12
937.249	4836.12
937.481	4825.12
937.712	4839.12
937.943	4794.12
938.175	4827.12
938.406	4791.12
938.637	4837.12
938.869	4741.12
939.1	4817.12
939.331	4720.12
939.562	4740.12
939.793	4721.12
940.024	4772.12
940.255	4691.12
940.486	4682.12
940.717	4663.12
940.948	4574.12
941.179	4593.12
941.409	4575.12
941.64	4546.12
941.871	4568.12
942.102	4515.12
942.332	4564.12
942.563	4613.12
942.793	4557.12
943.024	4542.12
943.254	4556.12
943.484	4563.12
943.715	4561.12
943.945	4574.12
944.175	4447.12
944.405	4461.12
944.636	4476.12
944.866	4493.12
945.096	4445.12
945.326	4383.12
945.556	4429.12
945.786	4485.12
946.016	4337.12
946.245	4295.12
946.475	4279.12
946.705	4283.12
946.935	4302.12
947.164	4271.12
947.394	4219.12
947.624	4173.12
947.853	4260.12
948.083	4199.12
948.312	4153.12
948.542	4097.12
948.771	4074.12
949	4054.12
949.23	4066.12
949.459	4091.12
949.688	4189.12
949.917	4098.12
950.146	4100.12
950.375	4145.12
950.604	4006.12
950.833	4081.12
951.062	4135.12
951.291	4029.12
951.52	3966.12
951.749	3975.12
951.978	3927.12
952.206	3956.12
952.435	3960.12
952.664	3988.12
952.892	3973.12
953.121	3905.12
953.349	3952.12
953.578	3905.12
953.806	3850.12
954.035	3810.12
954.263	3826.12
954.491	3757.12
954.719	3835.12
954.948	3734.12
955.176	3772.12
955.404	3659.12
955.632	3738.12
955.86	3701.12
956.088	3676.12
956.316	3672.12
956.544	3756.12
956.772	3630.12
956.999	3613.12
957.227	3657.12
957.455	3564.12
957.683	3553.12
957.91	3540.12
958.138	3505.12
958.365	3540.12
958.593	3447.12
958.82	3407.12
959.048	3498.12
959.275	3449.12
959.502	3432.12
959.73	3418.12
959.957	3446.12
960.184	3454.12
960.411	3406.12
960.638	3474.12
960.865	3374.12
961.092	3425.12
961.319	3315.12
961.546	3422.12
961.773	3455.12
962	3366.12
962.227	3415.12
962.454	3343.12
962.68	3374.12
962.907	3348.12
963.134	3293.12
963.36	3299.12
963.587	3295.12
963.813	3212.12
964.04	3287.12
964.266	3149.12
964.493	3251.12
964.719	3232.12
964.945	3214.12
965.171	3119.12
965.398	3172.12
965.624	3170.12
965.85	3061.12
966.076	3060.12
966.302	3140.12
966.528	3044.12
966.754	3132.12
966.98	3083.12
967.206	3083.12
967.431	3007.12
967.657	3086.12
967.883	3036.12
968.109	2995.12
968.334	2969.12
968.56	2966.12
968.785	2965.12
969.011	2906.12
969.236	2969.12
969.462	2903.12
969.687	2920.12
969.912	2978.12
970.138	2985.12
970.363	2883.12
970.588	2918.12
970.813	2854.12
971.038	2845.12
971.263	2878.12
971.488	2900.12
971.713	2874.12
971.938	2857.12
972.163	2774.12
972.388	2797.12
972.613	2763.12
972.838	2774.12
973.062	2787.12
973.287	2761.12
973.512	2698.12
973.736	2713.12
973.961	2689.12
974.185	2665.12
974.41	2752.12
974.634	2603.12
974.858	2648.12
975.083	2665.12
975.307	2669.12
975.531	2572.12
975.755	2548.12
975.98	2544.12
976.204	2506.12
976.428	2485.12
976.652	2505.12
976.876	2463.12
977.1	2492.12
977.324	2437.12
977.547	2500.12
977.771	2517.12
977.995	2481.12
978.219	2414.12
978.442	2485.12
978.666	2441.12
978.89	2449.12
979.113	2434.12
979.337	2423.12
979.56	2376.12
979.783	2505.12
980.007	2360.12
980.23	2403.12
980.453	2358.12
980.677	2401.12
980.9	2371.12
981.123	2271.12
981.346	2371.12
981.569	2361.12
981.792	2328.12
982.015	2285.12
982.238	2256.12
982.461	2307.12
982.684	2233.12
982.907	2251.12
983.129	2215.12
983.352	2299.12
983.575	2227.12
983.797	2248.12
984.02	2179.12
984.242	2205.12
984.465	2157.12
984.687	2232.12
984.91	2213.12
985.132	2202.12
985.354	2228.12
985.577	2176.12
985.799	2143.12
986.021	2055.12
986.243	2071.12
986.465	2127.12
986.687	2173.12
986.909	2179.12
987.131	2116.12
987.353	2092.12
987.575	2110.12
987.797	2057.12
988.019	1995.12
988.241	2082.12
988.462	2017.12
988.684	2077.12
988.906	2126.12
989.127	2096.12
989.349	2003.12
989.57	2019.12
989.792	2080.12
990.013	2081.12
990.234	2090.12
990.456	2070.12
990.677	2037.12
990.898	2022.12
991.119	2017.12
991.341	2044.12
991.562	1934.12
991.783	1972.12
992.004	1915.12
992.225	1892.12
992.446	1943.12
992.667	1878.12
992.887	1946.12
993.108	1858.12
993.329	1943.12
993.55	1907.12
993.77	1846.12
993.991	1841.12
994.212	1896.12
994.432	1839.12
994.653	1830.12
994.873	1839.12
995.093	1730.12
995.314	1788.12
995.534	1856.12
995.754	1875.12
995.975	1878.12
996.195	1788.12
996.415	1813.12
996.635	1809.12
996.855	1814.12
997.075	1784.12
997.295	1788.12
997.515	1751.12
997.735	1825.12
997.955	1764.12
998.174	1785.12
998.394	1783.12
998.614	1836.12
998.834	1757.12
999.053	1814.12
999.273	1778.12
999.492	1846.12
999.712	1757.12
999.931	1739.12
1000.151	1746.12
1000.37	1732.12
1000.589	1779.12
1000.809	1690.12
1001.028	1788.12
1001.247	1750.12
1001.466	1626.12
1001.685	1739.12
1001.904	1696.12
1002.123	1702.12
1002.342	1693.12
1002.561	1663.12
1002.78	1694.12
1002.999	1762.12
1003.218	1650.12
1003.436	1663.12
1003.655	1706.12
1003.874	1627.12
1004.092	1651.12
1004.311	1682.12
1004.53	1619.12
1004.748	1711.12
1004.966	1612.12
1005.185	1700.12
1005.403	1681.12
1005.622	1649.12
1005.84	1737.12
1006.058	1607.12
1006.276	1653.12
1006.494	2136.12
1006.712	1666.12
1006.931	1718.12
1007.149	1602.12
1007.367	1609.12
1007.584	1665.12
1007.802	1687.12
1008.02	1650.12
1008.238	1717.12
1008.456	1744.12
1008.673	1578.12
1008.891	1712.12
1009.109	1668.12
1009.326	1700.12
1009.544	1778.12
1009.761	1697.12
1009.979	1793.12
1010.196	1837.12
1010.413	1933.12
1010.631	2025.12
1010.848	2028.12
1011.065	2063.12
1011.282	2029.12
1011.5	1958.12
1011.717	2062.12
1011.934	1977.12
1012.151	1964.12
1012.368	1965.12
1012.585	1906.12
1012.801	1978.12
1013.018	1934.12
1013.235	1918.12
1013.452	1952.12
1013.669	1949.12
1013.885	1942.12
1014.102	1992.12
1014.318	1951.12
1014.535	1913.12
1014.751	1909.12
1014.968	1932.12
1015.184	1947.12
1015.401	1858.12
1015.617	1895.12
1015.833	1822.12
1016.049	1826.12
1016.266	1801.12
1016.482	1782.12
1016.698	1726.12
1016.914	1784.12
1017.13	1731.12
1017.346	1703.12
1017.562	1763.12
1017.778	1703.12
1017.993	1661.12
1018.209	1734.12
1018.425	1685.12
1018.641	1665.12
1018.856	1615.12
1019.072	1679.12
1019.288	1694.12
1019.503	1638.12
1019.719	1552.12
1019.934	1576.12
1020.149	1633.12
1020.365	1566.12
1020.58	1545.12
1020.795	1584.12
1021.011	1496.12
1021.226	1493.12
1021.441	1494.12
1021.656	1400.12
1021.871	1352.12
1022.086	1318.12
1022.301	1347.12
1022.516	1304.12
1022.731	1359.12
1022.946	1299.12
1023.16	1274.12
1023.375	1241.12
1023.59	1217.12
1023.804	1169.12
1024.019	1271.12
1024.234	1106.12
1024.448	1165.12
1024.663	1081.12
1024.877	1097.12
1025.092	1123.12
1025.306	1100.12
1025.52	1007.12
1025.734	1073.12
1025.949	1035.12
1026.163	965.12
1026.377	922.12
1026.591	969.12
1026.805	904.12
1027.019	882.12
1027.233	851.12
1027.447	805.12
1027.661	913.12
1027.875	840.12
1028.088	826.12
1028.302	766.12
1028.516	766.12
1028.73	765.12
1028.943	756.12
1029.157	697.12
1029.37	661.12
1029.584	-0.88
1029.797	-0.88
1030.011	-3.88
1030.224	-0.88
