Data from QEP037381__147__15-47-59-883.txt Node

Date: Fri Dec 16 15:47:59 EST 2022
User: dcclab
Spectrometer: QEP03738
Trigger mode: 4
Integration Time (sec): 1.000000E1
Scans to average: 1
Electric dark correction enabled: true
Nonlinearity correction enabled: false
Boxcar width: 0
XAxis mode: Wavelengths
Number of Pixels in Spectrum: 1044
>>>>>Begin Spectral Data<<<<<
784.041	13.62
784.3	-1.38
784.558	-2.38
784.817	-2.38
785.075	113459.62
785.334	19571.62
785.592	9121.62
785.851	6250.62
786.109	4750.62
786.368	3703.62
786.626	3001.62
786.884	2484.62
787.143	2105.62
787.401	1731.62
787.659	1569.62
787.917	1338.62
788.175	1191.62
788.433	1037.62
788.691	945.62
788.949	870.62
789.207	829.62
789.465	717.62
789.723	693.62
789.98	646.62
790.238	676.62
790.496	617.62
790.753	596.62
791.011	662.62
791.268	593.62
791.526	555.62
791.783	578.62
792.041	556.62
792.298	462.62
792.556	525.62
792.813	523.62
793.07	502.62
793.327	490.62
793.584	570.62
793.841	508.62
794.099	506.62
794.356	552.62
794.613	467.62
794.869	501.62
795.126	474.62
795.383	445.62
795.64	475.62
795.897	418.62
796.153	493.62
796.41	477.62
796.667	445.62
796.923	459.62
797.18	471.62
797.436	506.62
797.693	456.62
797.949	499.62
798.206	544.62
798.462	466.62
798.718	506.62
798.974	495.62
799.231	536.62
799.487	535.62
799.743	537.62
799.999	569.62
800.255	573.62
800.511	564.62
800.767	598.62
801.023	616.62
801.279	656.62
801.534	700.62
801.79	778.62
802.046	846.62
802.302	1004.62
802.557	1170.62
802.813	1516.62
803.068	1877.62
803.324	2651.62
803.579	3669.62
803.835	5070.62
804.09	7072.62
804.345	9290.62
804.601	11730.62
804.856	14187.62
805.111	16532.62
805.366	18298.62
805.621	19585.62
805.876	20440.62
806.131	21053.62
806.386	21537.62
806.641	21881.62
806.896	22286.62
807.151	22654.62
807.406	22958.62
807.661	23228.62
807.915	23796.62
808.17	24119.62
808.425	24492.62
808.679	24635.62
808.934	24900.62
809.188	25100.62
809.443	25446.62
809.697	25806.62
809.951	25870.62
810.206	26099.62
810.46	26397.62
810.714	26534.62
810.968	26788.62
811.223	27019.62
811.477	27312.62
811.731	27402.62
811.985	27629.62
812.239	27707.62
812.493	27831.62
812.747	27878.62
813	28072.62
813.254	28251.62
813.508	28278.62
813.762	28411.62
814.015	28502.62
814.269	28716.62
814.522	28995.62
814.776	29222.62
815.03	29619.62
815.283	30144.62
815.536	30632.62
815.79	31032.62
816.043	31390.62
816.296	31847.62
816.55	32254.62
816.803	32718.62
817.056	33037.62
817.309	33429.62
817.562	33585.62
817.815	33973.62
818.068	34170.62
818.321	34604.62
818.574	34968.62
818.827	35431.62
819.079	35739.62
819.332	36560.62
819.585	36823.62
819.838	37230.62
820.09	37534.62
820.343	37901.62
820.595	37875.62
820.848	38153.62
821.1	38355.62
821.353	38314.62
821.605	38368.62
821.857	38420.62
822.11	38163.62
822.362	38013.62
822.614	38028.62
822.866	38039.62
823.118	37989.62
823.37	38261.62
823.622	38248.62
823.874	38276.62
824.126	38513.62
824.378	38482.62
824.63	38732.62
824.882	38628.62
825.134	38735.62
825.385	38544.62
825.637	38633.62
825.888	38372.62
826.14	38341.62
826.392	38174.62
826.643	37921.62
826.895	37854.62
827.146	37941.62
827.397	37728.62
827.649	37800.62
827.9	37691.62
828.151	37776.62
828.402	37872.62
828.653	37964.62
828.905	38149.62
829.156	38021.62
829.407	37984.62
829.658	38094.62
829.909	38114.62
830.159	38153.62
830.41	37911.62
830.661	37611.62
830.912	37474.62
831.162	37412.62
831.413	37241.62
831.664	37291.62
831.914	37239.62
832.165	36993.62
832.415	37133.62
832.666	37112.62
832.916	37100.62
833.167	37147.62
833.417	37020.62
833.667	37053.62
833.917	36778.62
834.168	36659.62
834.418	36720.62
834.668	36405.62
834.918	36258.62
835.168	36208.62
835.418	36085.62
835.668	35835.62
835.918	35898.62
836.167	35624.62
836.417	35647.62
836.667	35673.62
836.917	35496.62
837.166	35459.62
837.416	35584.62
837.666	35482.62
837.915	35546.62
838.165	35377.62
838.414	35213.62
838.663	35133.62
838.913	35271.62
839.162	35160.62
839.411	35059.62
839.661	34817.62
839.91	34775.62
840.159	34762.62
840.408	34710.62
840.657	34726.62
840.906	34689.62
841.155	34625.62
841.404	34650.62
841.653	34587.62
841.902	34665.62
842.15	34714.62
842.399	34862.62
842.648	34710.62
842.897	34548.62
843.145	34363.62
843.394	34040.62
843.642	33898.62
843.891	33841.62
844.139	33664.62
844.388	33469.62
844.636	33369.62
844.884	33197.62
845.133	33215.62
845.381	33165.62
845.629	33250.62
845.877	33081.62
846.125	32941.62
846.373	33027.62
846.621	32939.62
846.869	32778.62
847.117	32512.62
847.365	32379.62
847.613	32363.62
847.861	32193.62
848.108	32174.62
848.356	32039.62
848.604	32031.62
848.851	32025.62
849.099	31978.62
849.346	32179.62
849.594	32198.62
849.841	32318.62
850.089	32321.62
850.336	32348.62
850.583	32287.62
850.831	32038.62
851.078	31851.62
851.325	31811.62
851.572	31944.62
851.819	31611.62
852.066	30974.62
852.313	30694.62
852.56	30493.62
852.807	30478.62
853.054	30119.62
853.301	30186.62
853.548	30184.62
853.794	30289.62
854.041	30431.62
854.288	30517.62
854.534	30827.62
854.781	30773.62
855.028	30548.62
855.274	30614.62
855.52	30399.62
855.767	30163.62
856.013	30301.62
856.26	30532.62
856.506	30019.62
856.752	29972.62
856.998	29874.62
857.244	29830.62
857.49	30012.62
857.736	30164.62
857.982	29918.62
858.228	30002.62
858.474	29755.62
858.72	29647.62
858.966	29393.62
859.212	29112.62
859.458	28765.62
859.703	28468.62
859.949	28148.62
860.195	28071.62
860.44	27863.62
860.686	27722.62
860.931	27703.62
861.177	27565.62
861.422	27627.62
861.667	27518.62
861.913	27439.62
862.158	27475.62
862.403	27538.62
862.648	27592.62
862.893	27569.62
863.138	27600.62
863.384	27406.62
863.629	27434.62
863.873	27345.62
864.118	27432.62
864.363	27198.62
864.608	27012.62
864.853	27118.62
865.098	26863.62
865.342	26776.62
865.587	26425.62
865.832	26536.62
866.076	26379.62
866.321	26477.62
866.565	26288.62
866.81	26221.62
867.054	26065.62
867.298	25971.62
867.543	25872.62
867.787	25982.62
868.031	25877.62
868.275	25771.62
868.519	25764.62
868.764	25703.62
869.008	25516.62
869.252	25499.62
869.496	25396.62
869.739	25340.62
869.983	25418.62
870.227	25380.62
870.471	25352.62
870.715	25533.62
870.958	25418.62
871.202	25326.62
871.446	25403.62
871.689	25442.62
871.933	25473.62
872.176	25343.62
872.42	25308.62
872.663	25243.62
872.906	25257.62
873.15	25155.62
873.393	25051.62
873.636	24937.62
873.879	24709.62
874.122	24600.62
874.366	24225.62
874.609	23979.62
874.852	23825.62
875.095	23690.62
875.337	23561.62
875.58	23427.62
875.823	23436.62
876.066	23344.62
876.309	23133.62
876.551	23218.62
876.794	23000.62
877.037	23011.62
877.279	22851.62
877.522	22902.62
877.764	22960.62
878.007	22759.62
878.249	22848.62
878.491	22748.62
878.734	22808.62
878.976	22683.62
879.218	22564.62
879.46	22509.62
879.702	22277.62
879.945	22104.62
880.187	21876.62
880.429	21760.62
880.671	21625.62
880.912	21622.62
881.154	21422.62
881.396	21437.62
881.638	21384.62
881.88	21446.62
882.121	21364.62
882.363	21341.62
882.605	21509.62
882.846	21279.62
883.088	21255.62
883.329	21212.62
883.571	21133.62
883.812	21244.62
884.053	21591.62
884.295	21856.62
884.536	21955.62
884.777	21852.62
885.018	21753.62
885.259	21560.62
885.5	21555.62
885.742	21695.62
885.982	21387.62
886.223	21233.62
886.464	21076.62
886.705	20992.62
886.946	20731.62
887.187	20567.62
887.428	20257.62
887.668	19989.62
887.909	19700.62
888.15	19558.62
888.39	19491.62
888.631	19327.62
888.871	19307.62
889.111	19005.62
889.352	19027.62
889.592	18760.62
889.833	18605.62
890.073	18431.62
890.313	18534.62
890.553	18213.62
890.793	18209.62
891.033	18056.62
891.273	18018.62
891.513	18016.62
891.753	18042.62
891.993	17838.62
892.233	17944.62
892.473	17966.62
892.713	17937.62
892.952	17884.62
893.192	17987.62
893.432	17922.62
893.671	17799.62
893.911	17781.62
894.15	17764.62
894.39	17562.62
894.629	17485.62
894.869	17348.62
895.108	17224.62
895.347	17085.62
895.587	17102.62
895.826	17123.62
896.065	16987.62
896.304	16971.62
896.543	17000.62
896.782	16879.62
897.021	16790.62
897.26	16759.62
897.499	16732.62
897.738	16651.62
897.977	16514.62
898.216	16369.62
898.454	16266.62
898.693	16118.62
898.932	16214.62
899.17	16092.62
899.409	15998.62
899.647	16066.62
899.886	15877.62
900.124	15886.62
900.363	15884.62
900.601	15943.62
900.839	15969.62
901.078	15942.62
901.316	15979.62
901.554	16024.62
901.792	16074.62
902.03	16045.62
902.268	16014.62
902.506	15980.62
902.744	15889.62
902.982	15835.62
903.22	15567.62
903.458	15365.62
903.695	15180.62
903.933	15034.62
904.171	14794.62
904.409	14608.62
904.646	14457.62
904.884	14239.62
905.121	14053.62
905.359	13922.62
905.596	13822.62
905.833	13721.62
906.071	13648.62
906.308	13637.62
906.545	13626.62
906.783	13471.62
907.02	13496.62
907.257	13391.62
907.494	13447.62
907.731	13356.62
907.968	13305.62
908.205	13238.62
908.442	13090.62
908.679	13067.62
908.915	12951.62
909.152	12743.62
909.389	12756.62
909.626	12674.62
909.862	12488.62
910.099	12536.62
910.335	12479.62
910.572	12360.62
910.808	12407.62
911.045	12377.62
911.281	12231.62
911.518	12251.62
911.754	12142.62
911.99	12065.62
912.226	11982.62
912.463	11883.62
912.699	11886.62
912.935	11667.62
913.171	11564.62
913.407	11408.62
913.643	11431.62
913.879	11324.62
914.114	11185.62
914.35	11078.62
914.586	11063.62
914.822	10941.62
915.057	10824.62
915.293	10774.62
915.529	10754.62
915.764	10687.62
916	10746.62
916.235	10602.62
916.471	10657.62
916.706	10536.62
916.941	10547.62
917.177	10538.62
917.412	10544.62
917.647	10570.62
917.882	10471.62
918.117	10458.62
918.352	10491.62
918.588	10425.62
918.823	10301.62
919.057	10252.62
919.292	10032.62
919.527	10007.62
919.762	9873.62
919.997	9754.62
920.232	9719.62
920.466	9630.62
920.701	9413.62
920.935	9440.62
921.17	9415.62
921.405	9368.62
921.639	9323.62
921.873	9204.62
922.108	9264.62
922.342	9232.62
922.576	9182.62
922.811	9094.62
923.045	9166.62
923.279	9114.62
923.513	8919.62
923.747	8970.62
923.981	8942.62
924.215	8784.62
924.449	8751.62
924.683	8669.62
924.917	8587.62
925.151	8623.62
925.385	8647.62
925.618	8577.62
925.852	8459.62
926.086	8454.62
926.319	8568.62
926.553	8506.62
926.786	8479.62
927.02	8372.62
927.253	8502.62
927.486	8448.62
927.72	8358.62
927.953	8376.62
928.186	8359.62
928.42	8363.62
928.653	8218.62
928.886	8299.62
929.119	8167.62
929.352	8183.62
929.585	8062.62
929.818	7950.62
930.051	7996.62
930.284	7954.62
930.516	7804.62
930.749	7786.62
930.982	7789.62
931.215	7690.62
931.447	7665.62
931.68	7622.62
931.912	7570.62
932.145	7609.62
932.377	7595.62
932.61	7673.62
932.842	7498.62
933.074	7513.62
933.307	7431.62
933.539	7573.62
933.771	7595.62
934.003	7481.62
934.236	7549.62
934.468	7628.62
934.7	7460.62
934.932	7461.62
935.164	7364.62
935.395	7402.62
935.627	7345.62
935.859	7315.62
936.091	7274.62
936.323	7282.62
936.554	7303.62
936.786	7261.62
937.017	7133.62
937.249	7188.62
937.481	7032.62
937.712	7173.62
937.943	7098.62
938.175	7083.62
938.406	7076.62
938.637	7114.62
938.869	6971.62
939.1	7064.62
939.331	6981.62
939.562	6997.62
939.793	6938.62
940.024	6919.62
940.255	6892.62
940.486	6864.62
940.717	6821.62
940.948	6756.62
941.179	6718.62
941.409	6724.62
941.64	6745.62
941.871	6713.62
942.102	6662.62
942.332	6734.62
942.563	6722.62
942.793	6687.62
943.024	6628.62
943.254	6638.62
943.484	6688.62
943.715	6741.62
943.945	6663.62
944.175	6601.62
944.405	6558.62
944.636	6556.62
944.866	6577.62
945.096	6562.62
945.326	6461.62
945.556	6526.62
945.786	6511.62
946.016	6451.62
946.245	6387.62
946.475	6304.62
946.705	6299.62
946.935	6293.62
947.164	6242.62
947.394	6191.62
947.624	6138.62
947.853	6209.62
948.083	6131.62
948.312	6067.62
948.542	5959.62
948.771	5988.62
949	5961.62
949.23	6027.62
949.459	5992.62
949.688	6044.62
949.917	5986.62
950.146	5984.62
950.375	6034.62
950.604	5884.62
950.833	5952.62
951.062	5974.62
951.291	5922.62
951.52	5851.62
951.749	5863.62
951.978	5814.62
952.206	5788.62
952.435	5791.62
952.664	5812.62
952.892	5804.62
953.121	5730.62
953.349	5735.62
953.578	5645.62
953.806	5683.62
954.035	5610.62
954.263	5608.62
954.491	5502.62
954.719	5572.62
954.948	5503.62
955.176	5438.62
955.404	5396.62
955.632	5474.62
955.86	5398.62
956.088	5388.62
956.316	5415.62
956.544	5385.62
956.772	5308.62
956.999	5258.62
957.227	5287.62
957.455	5206.62
957.683	5234.62
957.91	5156.62
958.138	5126.62
958.365	5102.62
958.593	5072.62
958.82	5047.62
959.048	5095.62
959.275	5008.62
959.502	5025.62
959.73	4982.62
959.957	4981.62
960.184	5004.62
960.411	4996.62
960.638	5006.62
960.865	4951.62
961.092	4951.62
961.319	4883.62
961.546	4927.62
961.773	4965.62
962	4868.62
962.227	4963.62
962.454	4912.62
962.68	4814.62
962.907	4806.62
963.134	4752.62
963.36	4773.62
963.587	4711.62
963.813	4688.62
964.04	4716.62
964.266	4592.62
964.493	4687.62
964.719	4609.62
964.945	4615.62
965.171	4487.62
965.398	4555.62
965.624	4526.62
965.85	4486.62
966.076	4442.62
966.302	4492.62
966.528	4431.62
966.754	4449.62
966.98	4391.62
967.206	4389.62
967.431	4254.62
967.657	4377.62
967.883	4371.62
968.109	4323.62
968.334	4277.62
968.56	4257.62
968.785	4233.62
969.011	4201.62
969.236	4262.62
969.462	4219.62
969.687	4188.62
969.912	4245.62
970.138	4252.62
970.363	4148.62
970.588	4149.62
970.813	4120.62
971.038	4080.62
971.263	4075.62
971.488	4069.62
971.713	4102.62
971.938	4045.62
972.163	3962.62
972.388	4025.62
972.613	3996.62
972.838	3979.62
973.062	3948.62
973.287	3921.62
973.512	3844.62
973.736	3878.62
973.961	3856.62
974.185	3802.62
974.41	3848.62
974.634	3744.62
974.858	3712.62
975.083	3743.62
975.307	3783.62
975.531	3698.62
975.755	3605.62
975.98	3632.62
976.204	3554.62
976.428	3606.62
976.652	3584.62
976.876	3535.62
977.1	3538.62
977.324	3512.62
977.547	3531.62
977.771	3573.62
977.995	3536.62
978.219	3503.62
978.442	3560.62
978.666	3477.62
978.89	3476.62
979.113	3461.62
979.337	3477.62
979.56	3395.62
979.783	3452.62
980.007	3353.62
980.23	3368.62
980.453	3365.62
980.677	3359.62
980.9	3313.62
981.123	3258.62
981.346	3323.62
981.569	3292.62
981.792	3312.62
982.015	3236.62
982.238	3201.62
982.461	3201.62
982.684	3188.62
982.907	3157.62
983.129	3119.62
983.352	3186.62
983.575	3114.62
983.797	3113.62
984.02	3047.62
984.242	3081.62
984.465	3074.62
984.687	3059.62
984.91	3064.62
985.132	3044.62
985.354	3063.62
985.577	3041.62
985.799	2971.62
986.021	2910.62
986.243	2888.62
986.465	2948.62
986.687	2963.62
986.909	2996.62
987.131	2925.62
987.353	2895.62
987.575	2937.62
987.797	2844.62
988.019	2837.62
988.241	2864.62
988.462	2824.62
988.684	2865.62
988.906	2854.62
989.127	2894.62
989.349	2807.62
989.57	2807.62
989.792	2818.62
990.013	2832.62
990.234	2795.62
990.456	2799.62
990.677	2768.62
990.898	2764.62
991.119	2765.62
991.341	2771.62
991.562	2673.62
991.783	2738.62
992.004	2639.62
992.225	2633.62
992.446	2656.62
992.667	2592.62
992.887	2649.62
993.108	2519.62
993.329	2708.62
993.55	2606.62
993.77	2550.62
993.991	2529.62
994.212	2552.62
994.432	2527.62
994.653	2535.62
994.873	2561.62
995.093	2400.62
995.314	2418.62
995.534	2504.62
995.754	2533.62
995.975	2509.62
996.195	2423.62
996.415	2442.62
996.635	2429.62
996.855	2421.62
997.075	2389.62
997.295	2405.62
997.515	2346.62
997.735	2446.62
997.955	2401.62
998.174	2378.62
998.394	2347.62
998.614	2385.62
998.834	2351.62
999.053	2382.62
999.273	2368.62
999.492	2396.62
999.712	2359.62
999.931	2312.62
1000.151	2276.62
1000.37	2283.62
1000.589	2325.62
1000.809	2311.62
1001.028	2353.62
1001.247	2293.62
1001.466	2183.62
1001.685	2286.62
1001.904	2212.62
1002.123	2229.62
1002.342	2202.62
1002.561	2165.62
1002.78	2177.62
1002.999	2243.62
1003.218	2172.62
1003.436	2170.62
1003.655	2179.62
1003.874	2131.62
1004.092	2129.62
1004.311	2161.62
1004.53	2118.62
1004.748	2170.62
1004.966	2106.62
1005.185	2157.62
1005.403	2125.62
1005.622	2120.62
1005.84	2194.62
1006.058	2094.62
1006.276	2093.62
1006.494	2568.62
1006.712	2072.62
1006.931	2138.62
1007.149	2059.62
1007.367	2083.62
1007.584	2120.62
1007.802	2132.62
1008.02	2070.62
1008.238	2197.62
1008.456	2181.62
1008.673	2049.62
1008.891	2169.62
1009.109	2151.62
1009.326	2146.62
1009.544	2258.62
1009.761	2215.62
1009.979	2263.62
1010.196	2303.62
1010.413	2432.62
1010.631	2463.62
1010.848	2502.62
1011.065	2555.62
1011.282	2496.62
1011.5	2439.62
1011.717	2543.62
1011.934	2465.62
1012.151	2452.62
1012.368	2428.62
1012.585	2373.62
1012.801	2432.62
1013.018	2386.62
1013.235	2377.62
1013.452	2401.62
1013.669	2382.62
1013.885	2384.62
1014.102	2421.62
1014.318	2381.62
1014.535	2372.62
1014.751	2382.62
1014.968	2381.62
1015.184	2366.62
1015.401	2260.62
1015.617	2308.62
1015.833	2247.62
1016.049	2242.62
1016.266	2207.62
1016.482	2204.62
1016.698	2121.62
1016.914	2161.62
1017.13	2128.62
1017.346	2107.62
1017.562	2134.62
1017.778	2100.62
1017.993	2038.62
1018.209	2105.62
1018.425	2077.62
1018.641	2052.62
1018.856	2028.62
1019.072	2030.62
1019.288	2090.62
1019.503	2035.62
1019.719	1954.62
1019.934	1936.62
1020.149	2018.62
1020.365	1968.62
1020.58	1892.62
1020.795	1932.62
1021.011	1843.62
1021.226	1822.62
1021.441	1826.62
1021.656	1753.62
1021.871	1692.62
1022.086	1683.62
1022.301	1637.62
1022.516	1618.62
1022.731	1663.62
1022.946	1566.62
1023.16	1538.62
1023.375	1514.62
1023.59	1482.62
1023.804	1456.62
1024.019	1548.62
1024.234	1414.62
1024.448	1457.62
1024.663	1350.62
1024.877	1359.62
1025.092	1357.62
1025.306	1372.62
1025.52	1243.62
1025.734	1323.62
1025.949	1264.62
1026.163	1200.62
1026.377	1124.62
1026.591	1181.62
1026.805	1083.62
1027.019	1092.62
1027.233	1075.62
1027.447	1007.62
1027.661	1113.62
1027.875	1042.62
1028.088	1037.62
1028.302	962.62
1028.516	931.62
1028.73	914.62
1028.943	906.62
1029.157	871.62
1029.37	803.62
1029.584	-2.38
1029.797	-2.38
1030.011	-2.38
1030.224	-0.38
