Data from QEP037381__155__15-22-20-384.txt Node

Date: Wed Dec 21 15:22:20 EST 2022
User: dcclab
Spectrometer: QEP03738
Trigger mode: 4
Integration Time (sec): 1.000000E1
Scans to average: 1
Electric dark correction enabled: true
Nonlinearity correction enabled: false
Boxcar width: 0
XAxis mode: Wavelengths
Number of Pixels in Spectrum: 1044
>>>>>Begin Spectral Data<<<<<
784.041	11.75
784.3	-0.25
784.558	-1.25
784.817	-3.25
785.075	103499.75
785.334	17781.75
785.592	8302.75
785.851	5687.75
786.109	4304.75
786.368	3329.75
786.626	2698.75
786.884	2254.75
787.143	1912.75
787.401	1533.75
787.659	1380.75
787.917	1191.75
788.175	1108.75
788.433	965.75
788.691	874.75
788.949	794.75
789.207	771.75
789.465	665.75
789.723	651.75
789.98	582.75
790.238	633.75
790.496	579.75
790.753	568.75
791.011	590.75
791.268	529.75
791.526	529.75
791.783	530.75
792.041	529.75
792.298	438.75
792.556	503.75
792.813	474.75
793.07	459.75
793.327	438.75
793.584	529.75
793.841	454.75
794.099	468.75
794.356	514.75
794.613	434.75
794.869	459.75
795.126	416.75
795.383	404.75
795.64	433.75
795.897	372.75
796.153	447.75
796.41	420.75
796.667	409.75
796.923	427.75
797.18	411.75
797.436	438.75
797.693	400.75
797.949	460.75
798.206	491.75
798.462	400.75
798.718	448.75
798.974	420.75
799.231	471.75
799.487	446.75
799.743	466.75
799.999	498.75
800.255	499.75
800.511	471.75
800.767	514.75
801.023	510.75
801.279	511.75
801.534	557.75
801.79	608.75
802.046	624.75
802.302	755.75
802.557	838.75
802.813	1044.75
803.068	1290.75
803.324	1765.75
803.579	2375.75
803.835	3194.75
804.09	4417.75
804.345	5656.75
804.601	7133.75
804.856	8489.75
805.111	9805.75
805.366	10832.75
805.621	11534.75
805.876	11960.75
806.131	12427.75
806.386	12539.75
806.641	12792.75
806.896	12940.75
807.151	13192.75
807.406	13278.75
807.661	13586.75
807.915	13744.75
808.17	13936.75
808.425	14026.75
808.679	14088.75
808.934	14338.75
809.188	14330.75
809.443	14424.75
809.697	14544.75
809.951	14673.75
810.206	14775.75
810.46	15015.75
810.714	15117.75
810.968	15289.75
811.223	15300.75
811.477	15523.75
811.731	15602.75
811.985	15607.75
812.239	15610.75
812.493	15618.75
812.747	15734.75
813	15663.75
813.254	15736.75
813.508	15859.75
813.762	15822.75
814.015	15883.75
814.269	15966.75
814.522	16052.75
814.776	16291.75
815.03	16515.75
815.283	16585.75
815.536	16961.75
815.79	17092.75
816.043	17372.75
816.296	17604.75
816.55	17776.75
816.803	17908.75
817.056	18170.75
817.309	18389.75
817.562	18432.75
817.815	18609.75
818.068	18646.75
818.321	18804.75
818.574	18912.75
818.827	19161.75
819.079	19436.75
819.332	19806.75
819.585	20091.75
819.838	20254.75
820.09	20163.75
820.343	20396.75
820.595	20345.75
820.848	20506.75
821.1	20589.75
821.353	20639.75
821.605	20577.75
821.857	20455.75
822.11	20316.75
822.362	20377.75
822.614	20286.75
822.866	20401.75
823.118	20283.75
823.37	20391.75
823.622	20568.75
823.874	20613.75
824.126	20678.75
824.378	20590.75
824.63	20567.75
824.882	20610.75
825.134	20570.75
825.385	20509.75
825.637	20466.75
825.888	20348.75
826.14	20375.75
826.392	20257.75
826.643	20134.75
826.895	20115.75
827.146	19903.75
827.397	19909.75
827.649	19890.75
827.9	19922.75
828.151	19830.75
828.402	19983.75
828.653	19934.75
828.905	20067.75
829.156	20140.75
829.407	20179.75
829.658	20248.75
829.909	20427.75
830.159	20525.75
830.41	20378.75
830.661	20156.75
830.912	19829.75
831.162	19795.75
831.413	19788.75
831.664	19884.75
831.914	19784.75
832.165	19646.75
832.415	19614.75
832.666	19755.75
832.916	19741.75
833.167	19728.75
833.417	19758.75
833.667	19557.75
833.917	19497.75
834.168	19478.75
834.418	19333.75
834.668	19319.75
834.918	19207.75
835.168	19185.75
835.418	19105.75
835.668	19030.75
835.918	19049.75
836.167	18889.75
836.417	18846.75
836.667	18892.75
836.917	18930.75
837.166	18892.75
837.416	18914.75
837.666	18966.75
837.915	18948.75
838.165	18797.75
838.414	18710.75
838.663	18677.75
838.913	18883.75
839.162	18755.75
839.411	18765.75
839.661	18716.75
839.91	18751.75
840.159	18629.75
840.408	18689.75
840.657	18666.75
840.906	18660.75
841.155	18675.75
841.404	18624.75
841.653	18608.75
841.902	18605.75
842.15	18777.75
842.399	18781.75
842.648	18703.75
842.897	18665.75
843.145	18535.75
843.394	18433.75
843.642	18157.75
843.891	18073.75
844.139	17953.75
844.388	17861.75
844.636	17718.75
844.884	17807.75
845.133	17819.75
845.381	17819.75
845.629	17734.75
845.877	17679.75
846.125	17724.75
846.373	17688.75
846.621	17593.75
846.869	17449.75
847.117	17418.75
847.365	17305.75
847.613	17207.75
847.861	17248.75
848.108	17271.75
848.356	17235.75
848.604	17161.75
848.851	17275.75
849.099	17250.75
849.346	17160.75
849.594	17254.75
849.841	17349.75
850.089	17260.75
850.336	17358.75
850.583	17376.75
850.831	17090.75
851.078	17100.75
851.325	17082.75
851.572	17337.75
851.819	17098.75
852.066	16698.75
852.313	16560.75
852.56	16270.75
852.807	16326.75
853.054	16279.75
853.301	16227.75
853.548	16285.75
853.794	16418.75
854.041	16519.75
854.288	16446.75
854.534	16706.75
854.781	16746.75
855.028	16670.75
855.274	16715.75
855.52	16647.75
855.767	16714.75
856.013	16950.75
856.26	17189.75
856.506	16597.75
856.752	16499.75
856.998	16470.75
857.244	16481.75
857.49	16622.75
857.736	16711.75
857.982	16629.75
858.228	16591.75
858.474	16300.75
858.72	16135.75
858.966	15899.75
859.212	15798.75
859.458	15653.75
859.703	15530.75
859.949	15359.75
860.195	15277.75
860.44	15198.75
860.686	15167.75
860.931	15306.75
861.177	15071.75
861.422	14967.75
861.667	14732.75
861.913	14696.75
862.158	14686.75
862.403	14712.75
862.648	14674.75
862.893	14721.75
863.138	14693.75
863.384	14705.75
863.629	14697.75
863.873	14601.75
864.118	14583.75
864.363	14578.75
864.608	14560.75
864.853	14460.75
865.098	14316.75
865.342	14157.75
865.587	14175.75
865.832	14121.75
866.076	14157.75
866.321	14108.75
866.565	14078.75
866.81	13919.75
867.054	13907.75
867.298	13965.75
867.543	13819.75
867.787	13902.75
868.031	13902.75
868.275	13774.75
868.519	13792.75
868.764	13717.75
869.008	13790.75
869.252	13790.75
869.496	13639.75
869.739	13725.75
869.983	13736.75
870.227	13821.75
870.471	13810.75
870.715	13881.75
870.958	13904.75
871.202	14009.75
871.446	14066.75
871.689	13986.75
871.933	14043.75
872.176	14029.75
872.42	13932.75
872.663	13984.75
872.906	14031.75
873.15	14136.75
873.393	14189.75
873.636	14302.75
873.879	14100.75
874.122	13897.75
874.366	13527.75
874.609	13388.75
874.852	13242.75
875.095	13064.75
875.337	12910.75
875.58	12792.75
875.823	12703.75
876.066	12760.75
876.309	12687.75
876.551	12454.75
876.794	12474.75
877.037	12485.75
877.279	12336.75
877.522	12424.75
877.764	12507.75
878.007	12350.75
878.249	12310.75
878.491	12302.75
878.734	12289.75
878.976	12195.75
879.218	12106.75
879.46	12022.75
879.702	12009.75
879.945	11886.75
880.187	11718.75
880.429	11694.75
880.671	11585.75
880.912	11534.75
881.154	11486.75
881.396	11382.75
881.638	11429.75
881.88	11479.75
882.121	11412.75
882.363	11484.75
882.605	11478.75
882.846	11462.75
883.088	11507.75
883.329	11577.75
883.571	11825.75
883.812	12205.75
884.053	12710.75
884.295	13239.75
884.536	13627.75
884.777	13456.75
885.018	13187.75
885.259	13029.75
885.5	12812.75
885.742	13068.75
885.982	12691.75
886.223	12565.75
886.464	12293.75
886.705	12166.75
886.946	11873.75
887.187	11553.75
887.428	11310.75
887.668	11031.75
887.909	10740.75
888.15	10585.75
888.39	10548.75
888.631	10442.75
888.871	10311.75
889.111	10135.75
889.352	10125.75
889.592	9965.75
889.833	9865.75
890.073	9784.75
890.313	9789.75
890.553	9655.75
890.793	9624.75
891.033	9599.75
891.273	9497.75
891.513	9413.75
891.753	9462.75
891.993	9477.75
892.233	9451.75
892.473	9498.75
892.713	9425.75
892.952	9433.75
893.192	9415.75
893.432	9393.75
893.671	9451.75
893.911	9389.75
894.15	9377.75
894.39	9172.75
894.629	9200.75
894.869	9210.75
895.108	9151.75
895.347	8994.75
895.587	9002.75
895.826	8963.75
896.065	8928.75
896.304	8906.75
896.543	8972.75
896.782	8735.75
897.021	8842.75
897.26	8808.75
897.499	8886.75
897.738	8845.75
897.977	8767.75
898.216	8690.75
898.454	8579.75
898.693	8493.75
898.932	8566.75
899.17	8475.75
899.409	8418.75
899.647	8478.75
899.886	8471.75
900.124	8458.75
900.363	8384.75
900.601	8491.75
900.839	8540.75
901.078	8547.75
901.316	8668.75
901.554	8784.75
901.792	8755.75
902.03	8806.75
902.268	8761.75
902.506	8891.75
902.744	8741.75
902.982	8738.75
903.22	8580.75
903.458	8424.75
903.695	8198.75
903.933	8081.75
904.171	7874.75
904.409	7784.75
904.646	7706.75
904.884	7591.75
905.121	7482.75
905.359	7418.75
905.596	7298.75
905.833	7253.75
906.071	7277.75
906.308	7225.75
906.545	7214.75
906.783	7139.75
907.02	7182.75
907.257	7126.75
907.494	7076.75
907.731	7133.75
907.968	7054.75
908.205	7042.75
908.442	6993.75
908.679	6921.75
908.915	6921.75
909.152	6855.75
909.389	6646.75
909.626	6745.75
909.862	6608.75
910.099	6663.75
910.335	6625.75
910.572	6528.75
910.808	6530.75
911.045	6500.75
911.281	6450.75
911.518	6536.75
911.754	6432.75
911.99	6432.75
912.226	6333.75
912.463	6258.75
912.699	6240.75
912.935	6229.75
913.171	6193.75
913.407	6040.75
913.643	6081.75
913.879	6015.75
914.114	5980.75
914.35	5913.75
914.586	5863.75
914.822	5774.75
915.057	5825.75
915.293	5645.75
915.529	5656.75
915.764	5727.75
916	5681.75
916.235	5655.75
916.471	5644.75
916.706	5599.75
916.941	5590.75
917.177	5593.75
917.412	5546.75
917.647	5600.75
917.882	5536.75
918.117	5567.75
918.352	5527.75
918.588	5547.75
918.823	5483.75
919.057	5464.75
919.292	5278.75
919.527	5330.75
919.762	5277.75
919.997	5257.75
920.232	5157.75
920.466	5164.75
920.701	5050.75
920.935	5055.75
921.17	4970.75
921.405	4996.75
921.639	4973.75
921.873	4947.75
922.108	4999.75
922.342	4972.75
922.576	4898.75
922.811	4851.75
923.045	4859.75
923.279	4887.75
923.513	4726.75
923.747	4820.75
923.981	4729.75
924.215	4743.75
924.449	4681.75
924.683	4674.75
924.917	4645.75
925.151	4598.75
925.385	4660.75
925.618	4629.75
925.852	4623.75
926.086	4531.75
926.319	4531.75
926.553	4547.75
926.786	4614.75
927.02	4537.75
927.253	4615.75
927.486	4584.75
927.72	4455.75
927.953	4511.75
928.186	4469.75
928.42	4494.75
928.653	4413.75
928.886	4404.75
929.119	4432.75
929.352	4382.75
929.585	4355.75
929.818	4331.75
930.051	4313.75
930.284	4296.75
930.516	4170.75
930.749	4208.75
930.982	4248.75
931.215	4193.75
931.447	4111.75
931.68	4117.75
931.912	4095.75
932.145	4105.75
932.377	4132.75
932.61	4252.75
932.842	4051.75
933.074	4131.75
933.307	4069.75
933.539	4139.75
933.771	4080.75
934.003	4078.75
934.236	4202.75
934.468	4143.75
934.7	4057.75
934.932	4110.75
935.164	3981.75
935.395	4015.75
935.627	4054.75
935.859	4012.75
936.091	3950.75
936.323	3995.75
936.554	4011.75
936.786	3935.75
937.017	3902.75
937.249	3936.75
937.481	3892.75
937.712	3928.75
937.943	3892.75
938.175	3812.75
938.406	3852.75
938.637	3923.75
938.869	3788.75
939.1	3860.75
939.331	3780.75
939.562	3824.75
939.793	3786.75
940.024	3839.75
940.255	3805.75
940.486	3763.75
940.717	3756.75
940.948	3745.75
941.179	3653.75
941.409	3687.75
941.64	3686.75
941.871	3726.75
942.102	3677.75
942.332	3650.75
942.563	3700.75
942.793	3713.75
943.024	3630.75
943.254	3708.75
943.484	3721.75
943.715	3732.75
943.945	3683.75
944.175	3624.75
944.405	3587.75
944.636	3582.75
944.866	3635.75
945.096	3640.75
945.326	3595.75
945.556	3584.75
945.786	3569.75
946.016	3607.75
946.245	3521.75
946.475	3514.75
946.705	3519.75
946.935	3517.75
947.164	3479.75
947.394	3441.75
947.624	3470.75
947.853	3500.75
948.083	3421.75
948.312	3415.75
948.542	3348.75
948.771	3310.75
949	3317.75
949.23	3351.75
949.459	3357.75
949.688	3401.75
949.917	3357.75
950.146	3342.75
950.375	3412.75
950.604	3309.75
950.833	3364.75
951.062	3349.75
951.291	3277.75
951.52	3274.75
951.749	3259.75
951.978	3244.75
952.206	3213.75
952.435	3229.75
952.664	3245.75
952.892	3287.75
953.121	3240.75
953.349	3221.75
953.578	3203.75
953.806	3189.75
954.035	3134.75
954.263	3201.75
954.491	3130.75
954.719	3136.75
954.948	3120.75
955.176	3083.75
955.404	3019.75
955.632	3069.75
955.86	3055.75
956.088	3063.75
956.316	3092.75
956.544	3025.75
956.772	3023.75
956.999	2960.75
957.227	3043.75
957.455	2963.75
957.683	2947.75
957.91	2905.75
958.138	2922.75
958.365	2917.75
958.593	2871.75
958.82	2852.75
959.048	2925.75
959.275	2894.75
959.502	2871.75
959.73	2843.75
959.957	2846.75
960.184	2864.75
960.411	2831.75
960.638	2904.75
960.865	2842.75
961.092	2852.75
961.319	2786.75
961.546	2827.75
961.773	2852.75
962	2801.75
962.227	2854.75
962.454	2796.75
962.68	2789.75
962.907	2791.75
963.134	2751.75
963.36	2772.75
963.587	2802.75
963.813	2688.75
964.04	2736.75
964.266	2661.75
964.493	2741.75
964.719	2682.75
964.945	2708.75
965.171	2572.75
965.398	2655.75
965.624	2646.75
965.85	2567.75
966.076	2562.75
966.302	2608.75
966.528	2579.75
966.754	2633.75
966.98	2581.75
967.206	2574.75
967.431	2522.75
967.657	2583.75
967.883	2555.75
968.109	2536.75
968.334	2520.75
968.56	2478.75
968.785	2453.75
969.011	2457.75
969.236	2525.75
969.462	2441.75
969.687	2477.75
969.912	2502.75
970.138	2489.75
970.363	2407.75
970.588	2468.75
970.813	2426.75
971.038	2372.75
971.263	2433.75
971.488	2421.75
971.713	2459.75
971.938	2420.75
972.163	2358.75
972.388	2373.75
972.613	2316.75
972.838	2350.75
973.062	2325.75
973.287	2299.75
973.512	2279.75
973.736	2294.75
973.961	2281.75
974.185	2269.75
974.41	2304.75
974.634	2205.75
974.858	2192.75
975.083	2270.75
975.307	2227.75
975.531	2190.75
975.755	2135.75
975.98	2126.75
976.204	2090.75
976.428	2077.75
976.652	2114.75
976.876	2053.75
977.1	2093.75
977.324	2093.75
977.547	2097.75
977.771	2107.75
977.995	2074.75
978.219	2012.75
978.442	2157.75
978.666	2102.75
978.89	2048.75
979.113	2058.75
979.337	2054.75
979.56	2044.75
979.783	2116.75
980.007	2010.75
980.23	2040.75
980.453	2023.75
980.677	2058.75
980.9	2011.75
981.123	1911.75
981.346	2017.75
981.569	1959.75
981.792	2015.75
982.015	1966.75
982.238	1935.75
982.461	1982.75
982.684	1925.75
982.907	1907.75
983.129	1892.75
983.352	1954.75
983.575	1894.75
983.797	1915.75
984.02	1878.75
984.242	1841.75
984.465	1899.75
984.687	1913.75
984.91	1953.75
985.132	1878.75
985.354	1899.75
985.577	1908.75
985.799	1867.75
986.021	1793.75
986.243	1799.75
986.465	1854.75
986.687	1878.75
986.909	1931.75
987.131	1837.75
987.353	1836.75
987.575	1860.75
987.797	1800.75
988.019	1722.75
988.241	1797.75
988.462	1776.75
988.684	1817.75
988.906	1846.75
989.127	1889.75
989.349	1735.75
989.57	1784.75
989.792	1814.75
990.013	1845.75
990.234	1814.75
990.456	1872.75
990.677	1811.75
990.898	1755.75
991.119	1765.75
991.341	1781.75
991.562	1743.75
991.783	1788.75
992.004	1713.75
992.225	1692.75
992.446	1729.75
992.667	1649.75
992.887	1720.75
993.108	1665.75
993.329	1759.75
993.55	1706.75
993.77	1630.75
993.991	1648.75
994.212	1685.75
994.432	1670.75
994.653	1686.75
994.873	1659.75
995.093	1566.75
995.314	1641.75
995.534	1722.75
995.754	1693.75
995.975	1698.75
996.195	1606.75
996.415	1670.75
996.635	1660.75
996.855	1638.75
997.075	1646.75
997.295	1639.75
997.515	1627.75
997.735	1656.75
997.955	1642.75
998.174	1682.75
998.394	1619.75
998.614	1676.75
998.834	1599.75
999.053	1689.75
999.273	1623.75
999.492	1687.75
999.712	1602.75
999.931	1576.75
1000.151	1603.75
1000.37	1588.75
1000.589	1638.75
1000.809	1546.75
1001.028	1679.75
1001.247	1618.75
1001.466	1471.75
1001.685	1600.75
1001.904	1545.75
1002.123	1546.75
1002.342	1561.75
1002.561	1518.75
1002.78	1511.75
1002.999	1576.75
1003.218	1528.75
1003.436	1496.75
1003.655	1553.75
1003.874	1488.75
1004.092	1524.75
1004.311	1523.75
1004.53	1547.75
1004.748	1579.75
1004.966	1508.75
1005.185	1554.75
1005.403	1557.75
1005.622	1530.75
1005.84	1618.75
1006.058	1514.75
1006.276	1541.75
1006.494	2057.75
1006.712	1548.75
1006.931	1624.75
1007.149	1555.75
1007.367	1546.75
1007.584	1596.75
1007.802	1665.75
1008.02	1631.75
1008.238	1727.75
1008.456	1725.75
1008.673	1617.75
1008.891	1738.75
1009.109	1734.75
1009.326	1845.75
1009.544	1935.75
1009.761	1908.75
1009.979	2062.75
1010.196	2126.75
1010.413	2310.75
1010.631	2439.75
1010.848	2563.75
1011.065	2607.75
1011.282	2506.75
1011.5	2447.75
1011.717	2550.75
1011.934	2483.75
1012.151	2479.75
1012.368	2462.75
1012.585	2406.75
1012.801	2451.75
1013.018	2465.75
1013.235	2464.75
1013.452	2472.75
1013.669	2497.75
1013.885	2483.75
1014.102	2534.75
1014.318	2521.75
1014.535	2472.75
1014.751	2473.75
1014.968	2486.75
1015.184	2472.75
1015.401	2388.75
1015.617	2393.75
1015.833	2312.75
1016.049	2306.75
1016.266	2269.75
1016.482	2260.75
1016.698	2155.75
1016.914	2186.75
1017.13	2124.75
1017.346	2136.75
1017.562	2128.75
1017.778	2070.75
1017.993	2049.75
1018.209	2064.75
1018.425	2023.75
1018.641	2014.75
1018.856	2000.75
1019.072	2004.75
1019.288	2046.75
1019.503	1963.75
1019.719	1907.75
1019.934	1900.75
1020.149	1943.75
1020.365	1895.75
1020.58	1809.75
1020.795	1824.75
1021.011	1709.75
1021.226	1691.75
1021.441	1697.75
1021.656	1584.75
1021.871	1502.75
1022.086	1500.75
1022.301	1480.75
1022.516	1431.75
1022.731	1469.75
1022.946	1385.75
1023.16	1382.75
1023.375	1325.75
1023.59	1308.75
1023.804	1249.75
1024.019	1310.75
1024.234	1174.75
1024.448	1182.75
1024.663	1104.75
1024.877	1131.75
1025.092	1112.75
1025.306	1132.75
1025.52	1011.75
1025.734	1092.75
1025.949	1006.75
1026.163	954.75
1026.377	909.75
1026.591	950.75
1026.805	876.75
1027.019	894.75
1027.233	834.75
1027.447	771.75
1027.661	876.75
1027.875	819.75
1028.088	818.75
1028.302	739.75
1028.516	710.75
1028.73	723.75
1028.943	679.75
1029.157	648.75
1029.37	610.75
1029.584	-4.25
1029.797	0.75
1030.011	-0.25
1030.224	-3.25
