Data from QEP037381__491__17-17-17-255.txt Node

Date: Fri Dec 16 17:17:17 EST 2022
User: dcclab
Spectrometer: QEP03738
Trigger mode: 4
Integration Time (sec): 1.000000E1
Scans to average: 1
Electric dark correction enabled: true
Nonlinearity correction enabled: false
Boxcar width: 0
XAxis mode: Wavelengths
Number of Pixels in Spectrum: 1044
>>>>>Begin Spectral Data<<<<<
784.041	9.5
784.3	0.5
784.558	-1.5
784.817	-2.5
785.075	109004.5
785.334	18469.5
785.592	8485.5
785.851	5824.5
786.109	4398.5
786.368	3409.5
786.626	2742.5
786.884	2263.5
787.143	1929.5
787.401	1585.5
787.659	1433.5
787.917	1252.5
788.175	1134.5
788.433	990.5
788.691	896.5
788.949	803.5
789.207	796.5
789.465	693.5
789.723	658.5
789.98	602.5
790.238	634.5
790.496	594.5
790.753	567.5
791.011	642.5
791.268	565.5
791.526	540.5
791.783	535.5
792.041	534.5
792.298	459.5
792.556	516.5
792.813	473.5
793.07	466.5
793.327	463.5
793.584	526.5
793.841	466.5
794.099	482.5
794.356	526.5
794.613	453.5
794.869	479.5
795.126	448.5
795.383	425.5
795.64	439.5
795.897	399.5
796.153	467.5
796.41	446.5
796.667	427.5
796.923	431.5
797.18	431.5
797.436	467.5
797.693	423.5
797.949	476.5
798.206	498.5
798.462	419.5
798.718	477.5
798.974	462.5
799.231	493.5
799.487	500.5
799.743	501.5
799.999	515.5
800.255	527.5
800.511	509.5
800.767	549.5
801.023	542.5
801.279	592.5
801.534	619.5
801.79	679.5
802.046	717.5
802.302	868.5
802.557	990.5
802.813	1209.5
803.068	1520.5
803.324	2082.5
803.579	2849.5
803.835	4008.5
804.09	5577.5
804.345	7225.5
804.601	9218.5
804.856	11203.5
805.111	12872.5
805.366	14315.5
805.621	15228.5
805.876	15780.5
806.131	16242.5
806.386	16549.5
806.641	16890.5
806.896	17061.5
807.151	17375.5
807.406	17686.5
807.661	18006.5
807.915	18242.5
808.17	18544.5
808.425	18698.5
808.679	18774.5
808.934	19072.5
809.188	19067.5
809.443	19314.5
809.697	19518.5
809.951	19689.5
810.206	19871.5
810.46	20012.5
810.714	20158.5
810.968	20373.5
811.223	20524.5
811.477	20574.5
811.731	20728.5
811.985	20799.5
812.239	20948.5
812.493	21076.5
812.747	21211.5
813	21115.5
813.254	21266.5
813.508	21283.5
813.762	21365.5
814.015	21499.5
814.269	21647.5
814.522	21870.5
814.776	22066.5
815.03	22200.5
815.283	22605.5
815.536	22898.5
815.79	23284.5
816.043	23623.5
816.296	23922.5
816.55	24036.5
816.803	24355.5
817.056	24727.5
817.309	24775.5
817.562	24977.5
817.815	25318.5
818.068	25458.5
818.321	25718.5
818.574	25944.5
818.827	26170.5
819.079	26542.5
819.332	26955.5
819.585	27215.5
819.838	27647.5
820.09	27821.5
820.343	27816.5
820.595	27943.5
820.848	28313.5
821.1	28406.5
821.353	28424.5
821.605	28307.5
821.857	28413.5
822.11	28218.5
822.362	28208.5
822.614	28102.5
822.866	28089.5
823.118	28096.5
823.37	28246.5
823.622	28186.5
823.874	28181.5
824.126	28514.5
824.378	28283.5
824.63	28461.5
824.882	28587.5
825.134	28463.5
825.385	28542.5
825.637	28472.5
825.888	28391.5
826.14	28245.5
826.392	28226.5
826.643	27834.5
826.895	27897.5
827.146	27884.5
827.397	27632.5
827.649	27768.5
827.9	27671.5
828.151	27785.5
828.402	27813.5
828.653	27906.5
828.905	28003.5
829.156	27938.5
829.407	27953.5
829.658	27783.5
829.909	27888.5
830.159	27750.5
830.41	27662.5
830.661	27551.5
830.912	27357.5
831.162	27120.5
831.413	27137.5
831.664	27197.5
831.914	27069.5
832.165	27051.5
832.415	27194.5
832.666	26991.5
832.916	27081.5
833.167	27025.5
833.417	26955.5
833.667	26892.5
833.917	26792.5
834.168	26857.5
834.418	26689.5
834.668	26521.5
834.918	26425.5
835.168	26375.5
835.418	26179.5
835.668	26174.5
835.918	26061.5
836.167	26031.5
836.417	25923.5
836.667	25947.5
836.917	25874.5
837.166	25764.5
837.416	25890.5
837.666	25632.5
837.915	25659.5
838.165	25515.5
838.414	25414.5
838.663	25461.5
838.913	25413.5
839.162	25276.5
839.411	25326.5
839.661	25045.5
839.91	25041.5
840.159	24979.5
840.408	24978.5
840.657	24993.5
840.906	24962.5
841.155	24954.5
841.404	24913.5
841.653	24885.5
841.902	24921.5
842.15	24911.5
842.399	24940.5
842.648	24874.5
842.897	24843.5
843.145	24684.5
843.394	24445.5
843.642	24292.5
843.891	24316.5
844.139	24091.5
844.388	24034.5
844.636	23909.5
844.884	23798.5
845.133	23726.5
845.381	23657.5
845.629	23768.5
845.877	23626.5
846.125	23685.5
846.373	23559.5
846.621	23521.5
846.869	23532.5
847.117	23289.5
847.365	23184.5
847.613	23032.5
847.861	22986.5
848.108	22951.5
848.356	22881.5
848.604	22732.5
848.851	22838.5
849.099	22809.5
849.346	22810.5
849.594	22987.5
849.841	23048.5
850.089	23002.5
850.336	22992.5
850.583	22924.5
850.831	22811.5
851.078	22759.5
851.325	22696.5
851.572	22639.5
851.819	22443.5
852.066	22101.5
852.313	21800.5
852.56	21628.5
852.807	21451.5
853.054	21489.5
853.301	21448.5
853.548	21385.5
853.794	21587.5
854.041	21629.5
854.288	21594.5
854.534	21865.5
854.781	21830.5
855.028	21577.5
855.274	21589.5
855.52	21489.5
855.767	21329.5
856.013	21282.5
856.26	21613.5
856.506	21070.5
856.752	21093.5
856.998	21089.5
857.244	21068.5
857.49	21223.5
857.736	21163.5
857.982	21209.5
858.228	21231.5
858.474	20961.5
858.72	20776.5
858.966	20720.5
859.212	20568.5
859.458	20322.5
859.703	20113.5
859.949	19836.5
860.195	19863.5
860.44	19730.5
860.686	19503.5
860.931	19507.5
861.177	19355.5
861.422	19390.5
861.667	19368.5
861.913	19311.5
862.158	19349.5
862.403	19376.5
862.648	19398.5
862.893	19451.5
863.138	19375.5
863.384	19330.5
863.629	19281.5
863.873	19325.5
864.118	19139.5
864.363	18989.5
864.608	18973.5
864.853	19052.5
865.098	18795.5
865.342	18743.5
865.587	18709.5
865.832	18639.5
866.076	18544.5
866.321	18454.5
866.565	18504.5
866.81	18238.5
867.054	18284.5
867.298	18293.5
867.543	18198.5
867.787	18086.5
868.031	18039.5
868.275	18053.5
868.519	17984.5
868.764	17937.5
869.008	17848.5
869.252	17918.5
869.496	17777.5
869.739	17726.5
869.983	17686.5
870.227	17681.5
870.471	17633.5
870.715	17585.5
870.958	17735.5
871.202	17634.5
871.446	17696.5
871.689	17758.5
871.933	17795.5
872.176	17620.5
872.42	17703.5
872.663	17600.5
872.906	17523.5
873.15	17446.5
873.393	17408.5
873.636	17257.5
873.879	17135.5
874.122	16934.5
874.366	16711.5
874.609	16670.5
874.852	16546.5
875.095	16540.5
875.337	16433.5
875.58	16285.5
875.823	16240.5
876.066	16248.5
876.309	16135.5
876.551	16027.5
876.794	15956.5
877.037	15965.5
877.279	15870.5
877.522	15924.5
877.764	15945.5
878.007	15947.5
878.249	15929.5
878.491	15836.5
878.734	15781.5
878.976	15792.5
879.218	15651.5
879.46	15689.5
879.702	15573.5
879.945	15352.5
880.187	15169.5
880.429	15125.5
880.671	15089.5
880.912	15065.5
881.154	14927.5
881.396	14709.5
881.638	14853.5
881.88	14885.5
882.121	14774.5
882.363	14735.5
882.605	14830.5
882.846	14745.5
883.088	14637.5
883.329	14607.5
883.571	14619.5
883.812	14608.5
884.053	14696.5
884.295	14837.5
884.536	15047.5
884.777	14847.5
885.018	14710.5
885.259	14621.5
885.5	14600.5
885.742	14815.5
885.982	14715.5
886.223	14495.5
886.464	14460.5
886.705	14360.5
886.946	14265.5
887.187	14086.5
887.428	13989.5
887.668	13792.5
887.909	13696.5
888.15	13518.5
888.39	13516.5
888.631	13387.5
888.871	13318.5
889.111	13219.5
889.352	13200.5
889.592	13020.5
889.833	12912.5
890.073	12820.5
890.313	12836.5
890.553	12638.5
890.793	12660.5
891.033	12533.5
891.273	12445.5
891.513	12451.5
891.753	12511.5
891.993	12316.5
892.233	12385.5
892.473	12512.5
892.713	12405.5
892.952	12426.5
893.192	12417.5
893.432	12379.5
893.671	12331.5
893.911	12309.5
894.15	12300.5
894.39	12125.5
894.629	12059.5
894.869	12018.5
895.108	11903.5
895.347	11772.5
895.587	11820.5
895.826	11763.5
896.065	11674.5
896.304	11721.5
896.543	11685.5
896.782	11605.5
897.021	11637.5
897.26	11574.5
897.499	11624.5
897.738	11583.5
897.977	11340.5
898.216	11328.5
898.454	11219.5
898.693	11142.5
898.932	11073.5
899.17	11084.5
899.409	11023.5
899.647	10976.5
899.886	10971.5
900.124	10954.5
900.363	10854.5
900.601	10979.5
900.839	10929.5
901.078	10911.5
901.316	10938.5
901.554	10940.5
901.792	11008.5
902.03	10816.5
902.268	10871.5
902.506	10913.5
902.744	10856.5
902.982	10770.5
903.22	10662.5
903.458	10472.5
903.695	10467.5
903.933	10334.5
904.171	10204.5
904.409	10041.5
904.646	10004.5
904.884	9825.5
905.121	9769.5
905.359	9634.5
905.596	9553.5
905.833	9511.5
906.071	9414.5
906.308	9506.5
906.545	9423.5
906.783	9377.5
907.02	9349.5
907.257	9280.5
907.494	9251.5
907.731	9250.5
907.968	9254.5
908.205	9091.5
908.442	9122.5
908.679	9026.5
908.915	8910.5
909.152	8940.5
909.389	8725.5
909.626	8806.5
909.862	8660.5
910.099	8734.5
910.335	8705.5
910.572	8583.5
910.808	8521.5
911.045	8512.5
911.281	8435.5
911.518	8570.5
911.754	8368.5
911.99	8355.5
912.226	8322.5
912.463	8245.5
912.699	8204.5
912.935	8131.5
913.171	8001.5
913.407	8031.5
913.643	7965.5
913.879	7876.5
914.114	7777.5
914.35	7706.5
914.586	7678.5
914.822	7586.5
915.057	7587.5
915.293	7402.5
915.529	7439.5
915.764	7533.5
916	7433.5
916.235	7370.5
916.471	7447.5
916.706	7337.5
916.941	7334.5
917.177	7276.5
917.412	7322.5
917.647	7309.5
917.882	7203.5
918.117	7330.5
918.352	7225.5
918.588	7247.5
918.823	7210.5
919.057	7059.5
919.292	6978.5
919.527	6976.5
919.762	6852.5
919.997	6861.5
920.232	6777.5
920.466	6767.5
920.701	6531.5
920.935	6597.5
921.17	6478.5
921.405	6504.5
921.639	6558.5
921.873	6423.5
922.108	6498.5
922.342	6464.5
922.576	6355.5
922.811	6307.5
923.045	6404.5
923.279	6354.5
923.513	6230.5
923.747	6270.5
923.981	6196.5
924.215	6181.5
924.449	6147.5
924.683	6064.5
924.917	5984.5
925.151	6034.5
925.385	6046.5
925.618	5958.5
925.852	5923.5
926.086	5865.5
926.319	5915.5
926.553	5905.5
926.786	5872.5
927.02	5907.5
927.253	5945.5
927.486	5888.5
927.72	5813.5
927.953	5855.5
928.186	5828.5
928.42	5845.5
928.653	5697.5
928.886	5684.5
929.119	5726.5
929.352	5639.5
929.585	5633.5
929.818	5563.5
930.051	5562.5
930.284	5514.5
930.516	5453.5
930.749	5400.5
930.982	5401.5
931.215	5402.5
931.447	5314.5
931.68	5299.5
931.912	5232.5
932.145	5257.5
932.377	5274.5
932.61	5417.5
932.842	5202.5
933.074	5291.5
933.307	5237.5
933.539	5324.5
933.771	5257.5
934.003	5234.5
934.236	5273.5
934.468	5316.5
934.7	5220.5
934.932	5250.5
935.164	5148.5
935.395	5125.5
935.627	5179.5
935.859	5127.5
936.091	5106.5
936.323	5098.5
936.554	5115.5
936.786	5020.5
937.017	4936.5
937.249	5018.5
937.481	4888.5
937.712	4961.5
937.943	4949.5
938.175	4917.5
938.406	4913.5
938.637	4940.5
938.869	4842.5
939.1	4862.5
939.331	4804.5
939.562	4885.5
939.793	4865.5
940.024	4827.5
940.255	4858.5
940.486	4765.5
940.717	4785.5
940.948	4759.5
941.179	4681.5
941.409	4689.5
941.64	4663.5
941.871	4661.5
942.102	4667.5
942.332	4603.5
942.563	4711.5
942.793	4646.5
943.024	4629.5
943.254	4614.5
943.484	4664.5
943.715	4681.5
943.945	4603.5
944.175	4583.5
944.405	4530.5
944.636	4516.5
944.866	4560.5
945.096	4576.5
945.326	4515.5
945.556	4559.5
945.786	4540.5
946.016	4532.5
946.245	4425.5
946.475	4389.5
946.705	4397.5
946.935	4370.5
947.164	4367.5
947.394	4331.5
947.624	4292.5
947.853	4266.5
948.083	4268.5
948.312	4240.5
948.542	4187.5
948.771	4163.5
949	4169.5
949.23	4108.5
949.459	4171.5
949.688	4208.5
949.917	4190.5
950.146	4156.5
950.375	4232.5
950.604	4113.5
950.833	4167.5
951.062	4183.5
951.291	4121.5
951.52	4110.5
951.749	4094.5
951.978	4077.5
952.206	4045.5
952.435	4033.5
952.664	4033.5
952.892	4039.5
953.121	4013.5
953.349	3992.5
953.578	3992.5
953.806	3968.5
954.035	3865.5
954.263	3874.5
954.491	3855.5
954.719	3887.5
954.948	3780.5
955.176	3783.5
955.404	3738.5
955.632	3786.5
955.86	3806.5
956.088	3726.5
956.316	3801.5
956.544	3763.5
956.772	3684.5
956.999	3637.5
957.227	3715.5
957.455	3624.5
957.683	3632.5
957.91	3587.5
958.138	3548.5
958.365	3535.5
958.593	3528.5
958.82	3445.5
959.048	3518.5
959.275	3477.5
959.502	3518.5
959.73	3469.5
959.957	3507.5
960.184	3504.5
960.411	3439.5
960.638	3519.5
960.865	3502.5
961.092	3462.5
961.319	3388.5
961.546	3490.5
961.773	3482.5
962	3410.5
962.227	3441.5
962.454	3411.5
962.68	3394.5
962.907	3374.5
963.134	3323.5
963.36	3331.5
963.587	3355.5
963.813	3286.5
964.04	3280.5
964.266	3216.5
964.493	3296.5
964.719	3268.5
964.945	3240.5
965.171	3131.5
965.398	3222.5
965.624	3198.5
965.85	3097.5
966.076	3129.5
966.302	3179.5
966.528	3110.5
966.754	3113.5
966.98	3110.5
967.206	3102.5
967.431	2990.5
967.657	3085.5
967.883	3071.5
968.109	3098.5
968.334	2998.5
968.56	2951.5
968.785	2984.5
969.011	2929.5
969.236	3033.5
969.462	2922.5
969.687	2973.5
969.912	2995.5
970.138	3003.5
970.363	2939.5
970.588	2926.5
970.813	2889.5
971.038	2868.5
971.263	2920.5
971.488	2895.5
971.713	2947.5
971.938	2883.5
972.163	2803.5
972.388	2828.5
972.613	2791.5
972.838	2812.5
973.062	2767.5
973.287	2765.5
973.512	2677.5
973.736	2768.5
973.961	2727.5
974.185	2712.5
974.41	2708.5
974.634	2609.5
974.858	2604.5
975.083	2667.5
975.307	2663.5
975.531	2568.5
975.755	2551.5
975.98	2574.5
976.204	2512.5
976.428	2504.5
976.652	2487.5
976.876	2509.5
977.1	2528.5
977.324	2454.5
977.547	2547.5
977.771	2510.5
977.995	2502.5
978.219	2427.5
978.442	2520.5
978.666	2495.5
978.89	2441.5
979.113	2444.5
979.337	2381.5
979.56	2424.5
979.783	2450.5
980.007	2396.5
980.23	2398.5
980.453	2366.5
980.677	2380.5
980.9	2386.5
981.123	2289.5
981.346	2391.5
981.569	2336.5
981.792	2374.5
982.015	2329.5
982.238	2269.5
982.461	2259.5
982.684	2270.5
982.907	2223.5
983.129	2243.5
983.352	2269.5
983.575	2256.5
983.797	2239.5
984.02	2189.5
984.242	2189.5
984.465	2200.5
984.687	2206.5
984.91	2226.5
985.132	2205.5
985.354	2189.5
985.577	2194.5
985.799	2122.5
986.021	2066.5
986.243	2122.5
986.465	2128.5
986.687	2156.5
986.909	2210.5
987.131	2086.5
987.353	2060.5
987.575	2126.5
987.797	2039.5
988.019	1987.5
988.241	2060.5
988.462	2011.5
988.684	2096.5
988.906	2094.5
989.127	2104.5
989.349	2005.5
989.57	2024.5
989.792	2055.5
990.013	2062.5
990.234	2067.5
990.456	2077.5
990.677	2005.5
990.898	2000.5
991.119	1999.5
991.341	2005.5
991.562	1935.5
991.783	1999.5
992.004	1930.5
992.225	1884.5
992.446	1969.5
992.667	1852.5
992.887	1947.5
993.108	1827.5
993.329	1955.5
993.55	1890.5
993.77	1835.5
993.991	1830.5
994.212	1861.5
994.432	1834.5
994.653	1845.5
994.873	1841.5
995.093	1750.5
995.314	1788.5
995.534	1858.5
995.754	1861.5
995.975	1854.5
996.195	1744.5
996.415	1798.5
996.635	1778.5
996.855	1833.5
997.075	1760.5
997.295	1789.5
997.515	1760.5
997.735	1790.5
997.955	1752.5
998.174	1733.5
998.394	1679.5
998.614	1745.5
998.834	1720.5
999.053	1756.5
999.273	1726.5
999.492	1773.5
999.712	1726.5
999.931	1671.5
1000.151	1749.5
1000.37	1694.5
1000.589	1761.5
1000.809	1659.5
1001.028	1778.5
1001.247	1718.5
1001.466	1593.5
1001.685	1784.5
1001.904	1699.5
1002.123	1656.5
1002.342	1673.5
1002.561	1640.5
1002.78	1652.5
1002.999	1696.5
1003.218	1655.5
1003.436	1602.5
1003.655	1665.5
1003.874	1608.5
1004.092	1635.5
1004.311	1671.5
1004.53	1634.5
1004.748	1681.5
1004.966	1604.5
1005.185	1672.5
1005.403	1658.5
1005.622	1599.5
1005.84	1693.5
1006.058	1588.5
1006.276	1612.5
1006.494	2102.5
1006.712	1602.5
1006.931	1658.5
1007.149	1550.5
1007.367	1598.5
1007.584	1614.5
1007.802	1642.5
1008.02	1597.5
1008.238	1695.5
1008.456	1683.5
1008.673	1529.5
1008.891	1636.5
1009.109	1575.5
1009.326	1645.5
1009.544	1734.5
1009.761	1599.5
1009.979	1702.5
1010.196	1705.5
1010.413	1788.5
1010.631	1839.5
1010.848	1850.5
1011.065	1837.5
1011.282	1757.5
1011.5	1689.5
1011.717	1829.5
1011.934	1797.5
1012.151	1784.5
1012.368	1790.5
1012.585	1740.5
1012.801	1756.5
1013.018	1708.5
1013.235	1745.5
1013.452	1719.5
1013.669	1700.5
1013.885	1706.5
1014.102	1726.5
1014.318	1704.5
1014.535	1682.5
1014.751	1676.5
1014.968	1709.5
1015.184	1710.5
1015.401	1638.5
1015.617	1656.5
1015.833	1598.5
1016.049	1601.5
1016.266	1618.5
1016.482	1606.5
1016.698	1516.5
1016.914	1571.5
1017.13	1527.5
1017.346	1509.5
1017.562	1580.5
1017.778	1488.5
1017.993	1469.5
1018.209	1516.5
1018.425	1472.5
1018.641	1463.5
1018.856	1459.5
1019.072	1453.5
1019.288	1525.5
1019.503	1463.5
1019.719	1366.5
1019.934	1407.5
1020.149	1470.5
1020.365	1395.5
1020.58	1379.5
1020.795	1404.5
1021.011	1350.5
1021.226	1319.5
1021.441	1370.5
1021.656	1260.5
1021.871	1207.5
1022.086	1207.5
1022.301	1229.5
1022.516	1192.5
1022.731	1254.5
1022.946	1167.5
1023.16	1153.5
1023.375	1124.5
1023.59	1105.5
1023.804	1070.5
1024.019	1154.5
1024.234	1037.5
1024.448	1077.5
1024.663	1043.5
1024.877	1036.5
1025.092	1044.5
1025.306	1058.5
1025.52	940.5
1025.734	1027.5
1025.949	975.5
1026.163	920.5
1026.377	869.5
1026.591	927.5
1026.805	847.5
1027.019	835.5
1027.233	804.5
1027.447	763.5
1027.661	848.5
1027.875	820.5
1028.088	806.5
1028.302	738.5
1028.516	718.5
1028.73	737.5
1028.943	699.5
1029.157	670.5
1029.37	626.5
1029.584	0.5
1029.797	-2.5
1030.011	-2.5
1030.224	-1.5
