Data from QEP037381__474__17-14-27-251.txt Node

Date: Fri Dec 16 17:14:27 EST 2022
User: dcclab
Spectrometer: QEP03738
Trigger mode: 4
Integration Time (sec): 1.000000E1
Scans to average: 1
Electric dark correction enabled: true
Nonlinearity correction enabled: false
Boxcar width: 0
XAxis mode: Wavelengths
Number of Pixels in Spectrum: 1044
>>>>>Begin Spectral Data<<<<<
784.041	10.88
784.3	-0.12
784.558	-5.12
784.817	-3.12
785.075	106047.88
785.334	18674.88
785.592	8877.88
785.851	6135.88
786.109	4624.88
786.368	3595.88
786.626	2913.88
786.884	2383.88
787.143	2048.88
787.401	1692.88
787.659	1497.88
787.917	1300.88
788.175	1182.88
788.433	1038.88
788.691	939.88
788.949	852.88
789.207	820.88
789.465	734.88
789.723	698.88
789.98	633.88
790.238	670.88
790.496	631.88
790.753	598.88
791.011	633.88
791.268	571.88
791.526	561.88
791.783	585.88
792.041	565.88
792.298	481.88
792.556	544.88
792.813	513.88
793.07	497.88
793.327	485.88
793.584	560.88
793.841	489.88
794.099	497.88
794.356	564.88
794.613	478.88
794.869	510.88
795.126	460.88
795.383	452.88
795.64	469.88
795.897	439.88
796.153	491.88
796.41	465.88
796.667	449.88
796.923	460.88
797.18	474.88
797.436	499.88
797.693	466.88
797.949	522.88
798.206	542.88
798.462	466.88
798.718	528.88
798.974	510.88
799.231	562.88
799.487	553.88
799.743	555.88
799.999	604.88
800.255	597.88
800.511	595.88
800.767	634.88
801.023	648.88
801.279	723.88
801.534	750.88
801.79	844.88
802.046	897.88
802.302	1082.88
802.557	1274.88
802.813	1646.88
803.068	2094.88
803.324	2957.88
803.579	4204.88
803.835	5853.88
804.09	8235.88
804.345	11143.88
804.601	14300.88
804.856	17510.88
805.111	20317.88
805.366	22508.88
805.621	23993.88
805.876	25158.88
806.131	25767.88
806.386	26243.88
806.641	26659.88
806.896	27062.88
807.151	27600.88
807.406	28024.88
807.661	28563.88
807.915	29026.88
808.17	29391.88
808.425	29767.88
808.679	29879.88
808.934	30315.88
809.188	30588.88
809.443	30859.88
809.697	31280.88
809.951	31318.88
810.206	31698.88
810.46	32005.88
810.714	32255.88
810.968	32552.88
811.223	32635.88
811.477	32979.88
811.731	33273.88
811.985	33398.88
812.239	33663.88
812.493	33732.88
812.747	33834.88
813	34007.88
813.254	34151.88
813.508	34234.88
813.762	34414.88
814.015	34417.88
814.269	34661.88
814.522	34963.88
814.776	35467.88
815.03	35854.88
815.283	36361.88
815.536	36841.88
815.79	37397.88
816.043	37975.88
816.296	38437.88
816.55	38926.88
816.803	39471.88
817.056	39889.88
817.309	40077.88
817.562	40405.88
817.815	40873.88
818.068	41162.88
818.321	41517.88
818.574	42003.88
818.827	42518.88
819.079	42947.88
819.332	43721.88
819.585	44211.88
819.838	44858.88
820.09	45143.88
820.343	45383.88
820.595	45692.88
820.848	46021.88
821.1	46063.88
821.353	46231.88
821.605	46182.88
821.857	45940.88
822.11	45870.88
822.362	45629.88
822.614	45485.88
822.866	45662.88
823.118	45536.88
823.37	45740.88
823.622	45835.88
823.874	45803.88
824.126	45968.88
824.378	45976.88
824.63	46054.88
824.882	46362.88
825.134	46154.88
825.385	46248.88
825.637	46162.88
825.888	46052.88
826.14	45819.88
826.392	45607.88
826.643	45543.88
826.895	45368.88
827.146	45120.88
827.397	44926.88
827.649	44998.88
827.9	44799.88
828.151	44952.88
828.402	45123.88
828.653	45162.88
828.905	45135.88
829.156	45223.88
829.407	45114.88
829.658	45126.88
829.909	45075.88
830.159	44942.88
830.41	44625.88
830.661	44390.88
830.912	44128.88
831.162	44046.88
831.413	43830.88
831.664	43877.88
831.914	43946.88
832.165	43836.88
832.415	43770.88
832.666	43673.88
832.916	43801.88
833.167	43724.88
833.417	43524.88
833.667	43320.88
833.917	43249.88
834.168	43159.88
834.418	42939.88
834.668	42702.88
834.918	42533.88
835.168	42570.88
835.418	42178.88
835.668	42190.88
835.918	42134.88
836.167	42097.88
836.417	41774.88
836.667	41700.88
836.917	41799.88
837.166	41561.88
837.416	41536.88
837.666	41507.88
837.915	41298.88
838.165	41205.88
838.414	41112.88
838.663	40880.88
838.913	40700.88
839.162	40666.88
839.411	40636.88
839.661	40198.88
839.91	40236.88
840.159	40139.88
840.408	39925.88
840.657	40195.88
840.906	39973.88
841.155	40046.88
841.404	39909.88
841.653	40000.88
841.902	39923.88
842.15	39911.88
842.399	39812.88
842.648	39724.88
842.897	39525.88
843.145	39589.88
843.394	39201.88
843.642	39018.88
843.891	38964.88
844.139	38723.88
844.388	38417.88
844.636	38269.88
844.884	38198.88
845.133	38053.88
845.381	37893.88
845.629	38104.88
845.877	37846.88
846.125	37768.88
846.373	37655.88
846.621	37629.88
846.869	37484.88
847.117	37280.88
847.365	37022.88
847.613	36834.88
847.861	36699.88
848.108	36588.88
848.356	36438.88
848.604	36300.88
848.851	36401.88
849.099	36506.88
849.346	36422.88
849.594	36660.88
849.841	36699.88
850.089	36714.88
850.336	36776.88
850.583	36657.88
850.831	36363.88
851.078	36170.88
851.325	36109.88
851.572	35863.88
851.819	35518.88
852.066	34934.88
852.313	34654.88
852.56	34521.88
852.807	34299.88
853.054	34116.88
853.301	34118.88
853.548	33968.88
853.794	34235.88
854.041	34117.88
854.288	34375.88
854.534	34585.88
854.781	34502.88
855.028	34322.88
855.274	34135.88
855.52	33965.88
855.767	33672.88
856.013	33643.88
856.26	33820.88
856.506	33274.88
856.752	33301.88
856.998	33228.88
857.244	33323.88
857.49	33385.88
857.736	33517.88
857.982	33345.88
858.228	33384.88
858.474	33315.88
858.72	32939.88
858.966	32618.88
859.212	32397.88
859.458	32144.88
859.703	31798.88
859.949	31370.88
860.195	31323.88
860.44	31153.88
860.686	30831.88
860.931	30757.88
861.177	30519.88
861.422	30542.88
861.667	30467.88
861.913	30567.88
862.158	30566.88
862.403	30506.88
862.648	30773.88
862.893	30775.88
863.138	30731.88
863.384	30636.88
863.629	30518.88
863.873	30468.88
864.118	30378.88
864.363	30085.88
864.608	30005.88
864.853	30067.88
865.098	29743.88
865.342	29605.88
865.587	29448.88
865.832	29405.88
866.076	29284.88
866.321	29159.88
866.565	29097.88
866.81	28900.88
867.054	28761.88
867.298	28725.88
867.543	28652.88
867.787	28643.88
868.031	28598.88
868.275	28371.88
868.519	28326.88
868.764	28339.88
869.008	28022.88
869.252	27931.88
869.496	27776.88
869.739	27808.88
869.983	27812.88
870.227	27543.88
870.471	27596.88
870.715	27558.88
870.958	27615.88
871.202	27600.88
871.446	27414.88
871.689	27625.88
871.933	27652.88
872.176	27494.88
872.42	27414.88
872.663	27450.88
872.906	27313.88
873.15	27097.88
873.393	26903.88
873.636	26712.88
873.879	26548.88
874.122	26307.88
874.366	25981.88
874.609	25853.88
874.852	25659.88
875.095	25531.88
875.337	25539.88
875.58	25289.88
875.823	25279.88
876.066	25317.88
876.309	25084.88
876.551	24901.88
876.794	24751.88
877.037	24836.88
877.279	24645.88
877.522	24643.88
877.764	24797.88
878.007	24787.88
878.249	24699.88
878.491	24645.88
878.734	24735.88
878.976	24666.88
879.218	24456.88
879.46	24287.88
879.702	24112.88
879.945	23901.88
880.187	23775.88
880.429	23612.88
880.671	23484.88
880.912	23355.88
881.154	23195.88
881.396	23180.88
881.638	23183.88
881.88	23082.88
882.121	22968.88
882.363	23016.88
882.605	23086.88
882.846	22844.88
883.088	22716.88
883.329	22587.88
883.571	22463.88
883.812	22639.88
884.053	22496.88
884.295	22645.88
884.536	22737.88
884.777	22583.88
885.018	22466.88
885.259	22345.88
885.5	22275.88
885.742	22534.88
885.982	22274.88
886.223	22089.88
886.464	22029.88
886.705	21852.88
886.946	21957.88
887.187	21598.88
887.428	21584.88
887.668	21314.88
887.909	21238.88
888.15	21025.88
888.39	21014.88
888.631	20899.88
888.871	20614.88
889.111	20394.88
889.352	20444.88
889.592	20162.88
889.833	20144.88
890.073	19944.88
890.313	19900.88
890.553	19660.88
890.793	19614.88
891.033	19500.88
891.273	19505.88
891.513	19277.88
891.753	19235.88
891.993	19224.88
892.233	19245.88
892.473	19395.88
892.713	19277.88
892.952	19186.88
893.192	19203.88
893.432	19262.88
893.671	19153.88
893.911	19073.88
894.15	18939.88
894.39	18662.88
894.629	18624.88
894.869	18615.88
895.108	18417.88
895.347	18380.88
895.587	18312.88
895.826	18202.88
896.065	18029.88
896.304	18120.88
896.543	17995.88
896.782	17966.88
897.021	17855.88
897.26	17703.88
897.499	17732.88
897.738	17663.88
897.977	17574.88
898.216	17383.88
898.454	17237.88
898.693	17101.88
898.932	17065.88
899.17	16933.88
899.409	16867.88
899.647	16883.88
899.886	16830.88
900.124	16762.88
900.363	16722.88
900.601	16630.88
900.839	16690.88
901.078	16663.88
901.316	16646.88
901.554	16658.88
901.792	16593.88
902.03	16513.88
902.268	16607.88
902.506	16604.88
902.744	16409.88
902.982	16319.88
903.22	16157.88
903.458	16032.88
903.695	15878.88
903.933	15765.88
904.171	15507.88
904.409	15356.88
904.646	15182.88
904.884	14968.88
905.121	14909.88
905.359	14687.88
905.596	14648.88
905.833	14513.88
906.071	14373.88
906.308	14468.88
906.545	14337.88
906.783	14327.88
907.02	14315.88
907.257	14182.88
907.494	14182.88
907.731	14150.88
907.968	14138.88
908.205	14050.88
908.442	13852.88
908.679	13834.88
908.915	13784.88
909.152	13653.88
909.389	13390.88
909.626	13363.88
909.862	13301.88
910.099	13250.88
910.335	13215.88
910.572	13120.88
910.808	13108.88
911.045	13037.88
911.281	12936.88
911.518	12962.88
911.754	12914.88
911.99	12803.88
912.226	12701.88
912.463	12593.88
912.699	12446.88
912.935	12483.88
913.171	12281.88
913.407	12154.88
913.643	12152.88
913.879	11941.88
914.114	11888.88
914.35	11748.88
914.586	11644.88
914.822	11524.88
915.057	11568.88
915.293	11289.88
915.529	11262.88
915.764	11345.88
916	11323.88
916.235	11288.88
916.471	11260.88
916.706	11136.88
916.941	11126.88
917.177	11131.88
917.412	11155.88
917.647	11146.88
917.882	11065.88
918.117	11109.88
918.352	10946.88
918.588	10989.88
918.823	10868.88
919.057	10690.88
919.292	10569.88
919.527	10613.88
919.762	10319.88
919.997	10316.88
920.232	10060.88
920.466	10127.88
920.701	9935.88
920.935	9940.88
921.17	9864.88
921.405	9754.88
921.639	9696.88
921.873	9711.88
922.108	9730.88
922.342	9698.88
922.576	9616.88
922.811	9524.88
923.045	9498.88
923.279	9530.88
923.513	9305.88
923.747	9465.88
923.981	9300.88
924.215	9196.88
924.449	9158.88
924.683	9042.88
924.917	8984.88
925.151	9018.88
925.385	8990.88
925.618	9009.88
925.852	8887.88
926.086	8882.88
926.319	8893.88
926.553	8850.88
926.786	8820.88
927.02	8800.88
927.253	8812.88
927.486	8782.88
927.72	8739.88
927.953	8771.88
928.186	8725.88
928.42	8692.88
928.653	8611.88
928.886	8559.88
929.119	8549.88
929.352	8522.88
929.585	8405.88
929.818	8384.88
930.051	8330.88
930.284	8261.88
930.516	8167.88
930.749	8101.88
930.982	8070.88
931.215	8039.88
931.447	7930.88
931.68	7956.88
931.912	7861.88
932.145	7882.88
932.377	7872.88
932.61	7921.88
932.842	7820.88
933.074	7887.88
933.307	7789.88
933.539	7853.88
933.771	7833.88
934.003	7807.88
934.236	7854.88
934.468	7859.88
934.7	7735.88
934.932	7758.88
935.164	7726.88
935.395	7655.88
935.627	7687.88
935.859	7564.88
936.091	7536.88
936.323	7573.88
936.554	7584.88
936.786	7496.88
937.017	7371.88
937.249	7450.88
937.481	7302.88
937.712	7399.88
937.943	7297.88
938.175	7310.88
938.406	7283.88
938.637	7382.88
938.869	7272.88
939.1	7349.88
939.331	7241.88
939.562	7212.88
939.793	7122.88
940.024	7234.88
940.255	7116.88
940.486	7083.88
940.717	7065.88
940.948	6950.88
941.179	6918.88
941.409	6921.88
941.64	6881.88
941.871	6881.88
942.102	6869.88
942.332	6904.88
942.563	6905.88
942.793	6939.88
943.024	6822.88
943.254	6898.88
943.484	6841.88
943.715	6891.88
943.945	6801.88
944.175	6804.88
944.405	6779.88
944.636	6790.88
944.866	6751.88
945.096	6832.88
945.326	6691.88
945.556	6723.88
945.786	6672.88
946.016	6626.88
946.245	6564.88
946.475	6475.88
946.705	6484.88
946.935	6470.88
947.164	6440.88
947.394	6291.88
947.624	6296.88
947.853	6353.88
948.083	6276.88
948.312	6262.88
948.542	6160.88
948.771	6157.88
949	6138.88
949.23	6157.88
949.459	6111.88
949.688	6255.88
949.917	6181.88
950.146	6147.88
950.375	6141.88
950.604	6066.88
950.833	6104.88
951.062	6102.88
951.291	6028.88
951.52	6006.88
951.749	6027.88
951.978	5946.88
952.206	5965.88
952.435	5883.88
952.664	5935.88
952.892	5889.88
953.121	5892.88
953.349	5900.88
953.578	5823.88
953.806	5752.88
954.035	5710.88
954.263	5725.88
954.491	5632.88
954.719	5703.88
954.948	5616.88
955.176	5535.88
955.404	5504.88
955.632	5511.88
955.86	5566.88
956.088	5446.88
956.316	5451.88
956.544	5466.88
956.772	5417.88
956.999	5394.88
957.227	5408.88
957.455	5305.88
957.683	5300.88
957.91	5256.88
958.138	5200.88
958.365	5161.88
958.593	5170.88
958.82	5052.88
959.048	5150.88
959.275	5104.88
959.502	5114.88
959.73	5027.88
959.957	5101.88
960.184	5095.88
960.411	5056.88
960.638	5083.88
960.865	5013.88
961.092	5009.88
961.319	4916.88
961.546	5029.88
961.773	4994.88
962	4964.88
962.227	4979.88
962.454	4973.88
962.68	4920.88
962.907	4921.88
963.134	4831.88
963.36	4827.88
963.587	4838.88
963.813	4720.88
964.04	4737.88
964.266	4685.88
964.493	4749.88
964.719	4709.88
964.945	4667.88
965.171	4536.88
965.398	4579.88
965.624	4632.88
965.85	4546.88
966.076	4475.88
966.302	4507.88
966.528	4456.88
966.754	4485.88
966.98	4448.88
967.206	4465.88
967.431	4368.88
967.657	4403.88
967.883	4405.88
968.109	4388.88
968.334	4332.88
968.56	4317.88
968.785	4334.88
969.011	4281.88
969.236	4293.88
969.462	4246.88
969.687	4236.88
969.912	4245.88
970.138	4250.88
970.363	4177.88
970.588	4222.88
970.813	4168.88
971.038	4163.88
971.263	4168.88
971.488	4120.88
971.713	4165.88
971.938	4105.88
972.163	3993.88
972.388	4048.88
972.613	3993.88
972.838	3999.88
973.062	3978.88
973.287	3955.88
973.512	3866.88
973.736	3912.88
973.961	3875.88
974.185	3850.88
974.41	3872.88
974.634	3791.88
974.858	3757.88
975.083	3759.88
975.307	3761.88
975.531	3723.88
975.755	3628.88
975.98	3669.88
976.204	3587.88
976.428	3521.88
976.652	3579.88
976.876	3496.88
977.1	3564.88
977.324	3496.88
977.547	3541.88
977.771	3549.88
977.995	3511.88
978.219	3411.88
978.442	3558.88
978.666	3497.88
978.89	3466.88
979.113	3465.88
979.337	3420.88
979.56	3402.88
979.783	3483.88
980.007	3352.88
980.23	3420.88
980.453	3337.88
980.677	3341.88
980.9	3322.88
981.123	3282.88
981.346	3338.88
981.569	3323.88
981.792	3322.88
982.015	3204.88
982.238	3207.88
982.461	3234.88
982.684	3185.88
982.907	3112.88
983.129	3142.88
983.352	3169.88
983.575	3150.88
983.797	3130.88
984.02	3035.88
984.242	3031.88
984.465	3056.88
984.687	3050.88
984.91	3063.88
985.132	3056.88
985.354	3049.88
985.577	3018.88
985.799	2961.88
986.021	2900.88
986.243	2927.88
986.465	2912.88
986.687	2967.88
986.909	2996.88
987.131	2911.88
987.353	2878.88
987.575	2915.88
987.797	2848.88
988.019	2794.88
988.241	2866.88
988.462	2808.88
988.684	2869.88
988.906	2843.88
989.127	2890.88
989.349	2789.88
989.57	2793.88
989.792	2811.88
990.013	2865.88
990.234	2814.88
990.456	2826.88
990.677	2803.88
990.898	2733.88
991.119	2706.88
991.341	2760.88
991.562	2678.88
991.783	2706.88
992.004	2628.88
992.225	2607.88
992.446	2655.88
992.667	2534.88
992.887	2620.88
993.108	2510.88
993.329	2657.88
993.55	2593.88
993.77	2520.88
993.991	2524.88
994.212	2514.88
994.432	2512.88
994.653	2457.88
994.873	2491.88
995.093	2359.88
995.314	2410.88
995.534	2453.88
995.754	2481.88
995.975	2491.88
996.195	2354.88
996.415	2420.88
996.635	2360.88
996.855	2404.88
997.075	2361.88
997.295	2338.88
997.515	2296.88
997.735	2371.88
997.955	2343.88
998.174	2314.88
998.394	2255.88
998.614	2319.88
998.834	2301.88
999.053	2336.88
999.273	2305.88
999.492	2353.88
999.712	2321.88
999.931	2261.88
1000.151	2355.88
1000.37	2244.88
1000.589	2318.88
1000.809	2231.88
1001.028	2352.88
1001.247	2268.88
1001.466	2173.88
1001.685	2254.88
1001.904	2203.88
1002.123	2177.88
1002.342	2198.88
1002.561	2128.88
1002.78	2150.88
1002.999	2210.88
1003.218	2153.88
1003.436	2144.88
1003.655	2157.88
1003.874	2122.88
1004.092	2111.88
1004.311	2150.88
1004.53	2088.88
1004.748	2154.88
1004.966	2074.88
1005.185	2119.88
1005.403	2110.88
1005.622	2090.88
1005.84	2175.88
1006.058	2040.88
1006.276	2057.88
1006.494	2577.88
1006.712	2035.88
1006.931	2094.88
1007.149	1991.88
1007.367	1987.88
1007.584	2046.88
1007.802	2061.88
1008.02	1991.88
1008.238	2088.88
1008.456	2091.88
1008.673	1959.88
1008.891	2034.88
1009.109	1975.88
1009.326	2021.88
1009.544	2090.88
1009.761	1978.88
1009.979	2063.88
1010.196	2046.88
1010.413	2130.88
1010.631	2157.88
1010.848	2183.88
1011.065	2183.88
1011.282	2107.88
1011.5	2063.88
1011.717	2160.88
1011.934	2107.88
1012.151	2142.88
1012.368	2122.88
1012.585	2036.88
1012.801	2067.88
1013.018	2039.88
1013.235	2003.88
1013.452	2033.88
1013.669	2032.88
1013.885	1979.88
1014.102	2024.88
1014.318	2021.88
1014.535	1975.88
1014.751	1999.88
1014.968	1983.88
1015.184	2002.88
1015.401	1904.88
1015.617	1930.88
1015.833	1856.88
1016.049	1884.88
1016.266	1883.88
1016.482	1850.88
1016.698	1774.88
1016.914	1807.88
1017.13	1801.88
1017.346	1742.88
1017.562	1825.88
1017.778	1768.88
1017.993	1717.88
1018.209	1761.88
1018.425	1724.88
1018.641	1702.88
1018.856	1674.88
1019.072	1707.88
1019.288	1751.88
1019.503	1708.88
1019.719	1651.88
1019.934	1630.88
1020.149	1696.88
1020.365	1649.88
1020.58	1593.88
1020.795	1650.88
1021.011	1603.88
1021.226	1555.88
1021.441	1576.88
1021.656	1513.88
1021.871	1447.88
1022.086	1456.88
1022.301	1432.88
1022.516	1410.88
1022.731	1458.88
1022.946	1379.88
1023.16	1357.88
1023.375	1348.88
1023.59	1340.88
1023.804	1271.88
1024.019	1376.88
1024.234	1263.88
1024.448	1298.88
1024.663	1220.88
1024.877	1211.88
1025.092	1247.88
1025.306	1237.88
1025.52	1144.88
1025.734	1223.88
1025.949	1145.88
1026.163	1111.88
1026.377	1028.88
1026.591	1089.88
1026.805	1002.88
1027.019	997.88
1027.233	964.88
1027.447	922.88
1027.661	1012.88
1027.875	928.88
1028.088	937.88
1028.302	865.88
1028.516	854.88
1028.73	853.88
1028.943	813.88
1029.157	782.88
1029.37	742.88
1029.584	1.88
1029.797	-1.12
1030.011	-0.12
1030.224	-3.12
