Data from QEP037381__490__17-17-07-256.txt Node

Date: Fri Dec 16 17:17:07 EST 2022
User: dcclab
Spectrometer: QEP03738
Trigger mode: 4
Integration Time (sec): 1.000000E1
Scans to average: 1
Electric dark correction enabled: true
Nonlinearity correction enabled: false
Boxcar width: 0
XAxis mode: Wavelengths
Number of Pixels in Spectrum: 1044
>>>>>Begin Spectral Data<<<<<
784.041	10.12
784.3	-0.88
784.558	-2.88
784.817	-4.88
785.075	106427.12
785.334	18197.12
785.592	8549.12
785.851	5916.12
786.109	4457.12
786.368	3430.12
786.626	2791.12
786.884	2338.12
787.143	1976.12
787.401	1590.12
787.659	1449.12
787.917	1240.12
788.175	1128.12
788.433	996.12
788.691	895.12
788.949	834.12
789.207	779.12
789.465	701.12
789.723	654.12
789.98	624.12
790.238	646.12
790.496	599.12
790.753	564.12
791.011	623.12
791.268	561.12
791.526	537.12
791.783	556.12
792.041	540.12
792.298	453.12
792.556	511.12
792.813	495.12
793.07	475.12
793.327	460.12
793.584	526.12
793.841	443.12
794.099	475.12
794.356	530.12
794.613	455.12
794.869	480.12
795.126	428.12
795.383	415.12
795.64	431.12
795.897	384.12
796.153	447.12
796.41	437.12
796.667	430.12
796.923	426.12
797.18	429.12
797.436	465.12
797.693	421.12
797.949	456.12
798.206	501.12
798.462	422.12
798.718	467.12
798.974	461.12
799.231	490.12
799.487	484.12
799.743	494.12
799.999	519.12
800.255	507.12
800.511	498.12
800.767	553.12
801.023	532.12
801.279	556.12
801.534	600.12
801.79	654.12
802.046	688.12
802.302	815.12
802.557	929.12
802.813	1154.12
803.068	1416.12
803.324	1987.12
803.579	2666.12
803.835	3720.12
804.09	5102.12
804.345	6718.12
804.601	8527.12
804.856	10332.12
805.111	11967.12
805.366	13221.12
805.621	14127.12
805.876	14782.12
806.131	15220.12
806.386	15458.12
806.641	15594.12
806.896	15953.12
807.151	16245.12
807.406	16431.12
807.661	16696.12
807.915	17001.12
808.17	17175.12
808.425	17395.12
808.679	17586.12
808.934	17795.12
809.188	17782.12
809.443	18041.12
809.697	18214.12
809.951	18325.12
810.206	18429.12
810.46	18645.12
810.714	18836.12
810.968	18864.12
811.223	18989.12
811.477	19233.12
811.731	19389.12
811.985	19418.12
812.239	19530.12
812.493	19581.12
812.747	19644.12
813	19690.12
813.254	19841.12
813.508	19840.12
813.762	19956.12
814.015	20043.12
814.269	20162.12
814.522	20390.12
814.776	20512.12
815.03	20750.12
815.283	21027.12
815.536	21248.12
815.79	21646.12
816.043	21956.12
816.296	22274.12
816.55	22484.12
816.803	22517.12
817.056	22941.12
817.309	23100.12
817.562	23216.12
817.815	23473.12
818.068	23595.12
818.321	23820.12
818.574	24141.12
818.827	24339.12
819.079	24699.12
819.332	25044.12
819.585	25263.12
819.838	25647.12
820.09	25781.12
820.343	26045.12
820.595	26016.12
820.848	26388.12
821.1	26345.12
821.353	26341.12
821.605	26274.12
821.857	26303.12
822.11	26148.12
822.362	26264.12
822.614	26194.12
822.866	26124.12
823.118	26001.12
823.37	26285.12
823.622	26240.12
823.874	26261.12
824.126	26350.12
824.378	26441.12
824.63	26468.12
824.882	26433.12
825.134	26461.12
825.385	26506.12
825.637	26341.12
825.888	26371.12
826.14	26189.12
826.392	26017.12
826.643	25923.12
826.895	25899.12
827.146	25800.12
827.397	25661.12
827.649	25790.12
827.9	25623.12
828.151	25600.12
828.402	25676.12
828.653	25765.12
828.905	25892.12
829.156	25860.12
829.407	25789.12
829.658	25847.12
829.909	25900.12
830.159	25937.12
830.41	25719.12
830.661	25435.12
830.912	25346.12
831.162	25158.12
831.413	25217.12
831.664	25276.12
831.914	25154.12
832.165	25153.12
832.415	25282.12
832.666	25046.12
832.916	25137.12
833.167	25110.12
833.417	25115.12
833.667	24963.12
833.917	24903.12
834.168	24899.12
834.418	24797.12
834.668	24619.12
834.918	24556.12
835.168	24408.12
835.418	24284.12
835.668	24249.12
835.918	24233.12
836.167	24153.12
836.417	23944.12
836.667	24054.12
836.917	23943.12
837.166	23936.12
837.416	23984.12
837.666	23864.12
837.915	23908.12
838.165	23818.12
838.414	23536.12
838.663	23547.12
838.913	23514.12
839.162	23566.12
839.411	23530.12
839.661	23272.12
839.91	23209.12
840.159	23239.12
840.408	23205.12
840.657	23234.12
840.906	23183.12
841.155	23278.12
841.404	23137.12
841.653	23165.12
841.902	23088.12
842.15	23118.12
842.399	23040.12
842.648	23138.12
842.897	22995.12
843.145	22856.12
843.394	22718.12
843.642	22654.12
843.891	22514.12
844.139	22516.12
844.388	22253.12
844.636	22218.12
844.884	22064.12
845.133	22093.12
845.381	22031.12
845.629	22048.12
845.877	21919.12
846.125	21873.12
846.373	21853.12
846.621	21811.12
846.869	21687.12
847.117	21679.12
847.365	21436.12
847.613	21406.12
847.861	21308.12
848.108	21286.12
848.356	21140.12
848.604	21201.12
848.851	21207.12
849.099	21131.12
849.346	21216.12
849.594	21324.12
849.841	21387.12
850.089	21421.12
850.336	21281.12
850.583	21323.12
850.831	21131.12
851.078	21083.12
851.325	20994.12
851.572	20945.12
851.819	20821.12
852.066	20438.12
852.313	20193.12
852.56	20126.12
852.807	19972.12
853.054	19890.12
853.301	19873.12
853.548	19968.12
853.794	20082.12
854.041	20040.12
854.288	20134.12
854.534	20351.12
854.781	20286.12
855.028	20078.12
855.274	19996.12
855.52	19861.12
855.767	19857.12
856.013	19896.12
856.26	20055.12
856.506	19594.12
856.752	19516.12
856.998	19601.12
857.244	19655.12
857.49	19765.12
857.736	19719.12
857.982	19745.12
858.228	19666.12
858.474	19546.12
858.72	19338.12
858.966	19190.12
859.212	18977.12
859.458	18847.12
859.703	18699.12
859.949	18513.12
860.195	18323.12
860.44	18279.12
860.686	18104.12
860.931	18118.12
861.177	18061.12
861.422	17959.12
861.667	17940.12
861.913	17920.12
862.158	18048.12
862.403	17951.12
862.648	18029.12
862.893	18058.12
863.138	17915.12
863.384	17924.12
863.629	17911.12
863.873	17878.12
864.118	17852.12
864.363	17708.12
864.608	17542.12
864.853	17573.12
865.098	17545.12
865.342	17479.12
865.587	17319.12
865.832	17214.12
866.076	17237.12
866.321	17072.12
866.565	17197.12
866.81	17004.12
867.054	16923.12
867.298	16844.12
867.543	16883.12
867.787	16895.12
868.031	16671.12
868.275	16708.12
868.519	16660.12
868.764	16573.12
869.008	16626.12
869.252	16543.12
869.496	16413.12
869.739	16393.12
869.983	16389.12
870.227	16412.12
870.471	16306.12
870.715	16343.12
870.958	16349.12
871.202	16380.12
871.446	16462.12
871.689	16423.12
871.933	16480.12
872.176	16393.12
872.42	16390.12
872.663	16274.12
872.906	16231.12
873.15	16129.12
873.393	16046.12
873.636	16137.12
873.879	15904.12
874.122	15833.12
874.366	15550.12
874.609	15481.12
874.852	15364.12
875.095	15276.12
875.337	15221.12
875.58	15079.12
875.823	15026.12
876.066	14956.12
876.309	15086.12
876.551	14739.12
876.794	14749.12
877.037	14786.12
877.279	14724.12
877.522	14764.12
877.764	14761.12
878.007	14605.12
878.249	14697.12
878.491	14641.12
878.734	14738.12
878.976	14590.12
879.218	14468.12
879.46	14459.12
879.702	14346.12
879.945	14239.12
880.187	14075.12
880.429	14010.12
880.671	13951.12
880.912	13927.12
881.154	13796.12
881.396	13749.12
881.638	13677.12
881.88	13756.12
882.121	13673.12
882.363	13734.12
882.605	13654.12
882.846	13599.12
883.088	13591.12
883.329	13440.12
883.571	13406.12
883.812	13521.12
884.053	13696.12
884.295	13849.12
884.536	14008.12
884.777	13940.12
885.018	13824.12
885.259	13730.12
885.5	13537.12
885.742	13802.12
885.982	13613.12
886.223	13488.12
886.464	13369.12
886.705	13247.12
886.946	13294.12
887.187	13022.12
887.428	12969.12
887.668	12789.12
887.909	12604.12
888.15	12657.12
888.39	12587.12
888.631	12437.12
888.871	12296.12
889.111	12319.12
889.352	12224.12
889.592	12122.12
889.833	12052.12
890.073	11939.12
890.313	11832.12
890.553	11700.12
890.793	11693.12
891.033	11646.12
891.273	11588.12
891.513	11524.12
891.753	11519.12
891.993	11526.12
892.233	11492.12
892.473	11574.12
892.713	11485.12
892.952	11453.12
893.192	11584.12
893.432	11442.12
893.671	11437.12
893.911	11404.12
894.15	11384.12
894.39	11177.12
894.629	11148.12
894.869	11175.12
895.108	11092.12
895.347	10964.12
895.587	10977.12
895.826	10885.12
896.065	10877.12
896.304	10870.12
896.543	10944.12
896.782	10736.12
897.021	10792.12
897.26	10658.12
897.499	10780.12
897.738	10638.12
897.977	10629.12
898.216	10452.12
898.454	10379.12
898.693	10366.12
898.932	10294.12
899.17	10240.12
899.409	10210.12
899.647	10171.12
899.886	10063.12
900.124	10126.12
900.363	10149.12
900.601	10054.12
900.839	10130.12
901.078	10196.12
901.316	10183.12
901.554	10129.12
901.792	10178.12
902.03	10104.12
902.268	10093.12
902.506	10114.12
902.744	10044.12
902.982	9996.12
903.22	9889.12
903.458	9857.12
903.695	9697.12
903.933	9677.12
904.171	9392.12
904.409	9320.12
904.646	9265.12
904.884	9074.12
905.121	9044.12
905.359	8959.12
905.596	8845.12
905.833	8862.12
906.071	8782.12
906.308	8778.12
906.545	8736.12
906.783	8675.12
907.02	8682.12
907.257	8608.12
907.494	8645.12
907.731	8605.12
907.968	8556.12
908.205	8498.12
908.442	8429.12
908.679	8410.12
908.915	8295.12
909.152	8271.12
909.389	8144.12
909.626	8113.12
909.862	8084.12
910.099	8041.12
910.335	8063.12
910.572	7889.12
910.808	7961.12
911.045	7893.12
911.281	7793.12
911.518	7983.12
911.754	7779.12
911.99	7766.12
912.226	7668.12
912.463	7652.12
912.699	7574.12
912.935	7505.12
913.171	7512.12
913.407	7446.12
913.643	7380.12
913.879	7282.12
914.114	7208.12
914.35	7130.12
914.586	7090.12
914.822	7026.12
915.057	7031.12
915.293	6911.12
915.529	6866.12
915.764	6991.12
916	6910.12
916.235	6824.12
916.471	6893.12
916.706	6800.12
916.941	6805.12
917.177	6779.12
917.412	6818.12
917.647	6786.12
917.882	6702.12
918.117	6756.12
918.352	6669.12
918.588	6739.12
918.823	6629.12
919.057	6527.12
919.292	6434.12
919.527	6520.12
919.762	6354.12
919.997	6307.12
920.232	6271.12
920.466	6285.12
920.701	6071.12
920.935	6065.12
921.17	6028.12
921.405	6049.12
921.639	6044.12
921.873	6003.12
922.108	5957.12
922.342	5980.12
922.576	5859.12
922.811	5817.12
923.045	5910.12
923.279	5899.12
923.513	5716.12
923.747	5819.12
923.981	5779.12
924.215	5690.12
924.449	5673.12
924.683	5633.12
924.917	5631.12
925.151	5530.12
925.385	5650.12
925.618	5562.12
925.852	5533.12
926.086	5454.12
926.319	5532.12
926.553	5492.12
926.786	5518.12
927.02	5477.12
927.253	5422.12
927.486	5457.12
927.72	5427.12
927.953	5479.12
928.186	5364.12
928.42	5420.12
928.653	5315.12
928.886	5310.12
929.119	5302.12
929.352	5237.12
929.585	5224.12
929.818	5171.12
930.051	5203.12
930.284	5124.12
930.516	4996.12
930.749	5019.12
930.982	5013.12
931.215	5046.12
931.447	4933.12
931.68	4960.12
931.912	4948.12
932.145	4870.12
932.377	4885.12
932.61	5004.12
932.842	4856.12
933.074	4927.12
933.307	4841.12
933.539	4989.12
933.771	4971.12
934.003	4838.12
934.236	4919.12
934.468	4930.12
934.7	4813.12
934.932	4869.12
935.164	4786.12
935.395	4715.12
935.627	4730.12
935.859	4804.12
936.091	4702.12
936.323	4714.12
936.554	4688.12
936.786	4683.12
937.017	4556.12
937.249	4640.12
937.481	4534.12
937.712	4665.12
937.943	4583.12
938.175	4577.12
938.406	4537.12
938.637	4610.12
938.869	4524.12
939.1	4529.12
939.331	4527.12
939.562	4574.12
939.793	4494.12
940.024	4494.12
940.255	4488.12
940.486	4421.12
940.717	4450.12
940.948	4406.12
941.179	4353.12
941.409	4382.12
941.64	4319.12
941.871	4328.12
942.102	4302.12
942.332	4314.12
942.563	4351.12
942.793	4355.12
943.024	4268.12
943.254	4293.12
943.484	4373.12
943.715	4311.12
943.945	4329.12
944.175	4240.12
944.405	4218.12
944.636	4229.12
944.866	4288.12
945.096	4325.12
945.326	4177.12
945.556	4234.12
945.786	4179.12
946.016	4164.12
946.245	4115.12
946.475	4106.12
946.705	4079.12
946.935	4064.12
947.164	3998.12
947.394	3975.12
947.624	4005.12
947.853	4023.12
948.083	3954.12
948.312	3948.12
948.542	3891.12
948.771	3836.12
949	3895.12
949.23	3859.12
949.459	3867.12
949.688	3932.12
949.917	3876.12
950.146	3824.12
950.375	3913.12
950.604	3823.12
950.833	3855.12
951.062	3861.12
951.291	3819.12
951.52	3717.12
951.749	3775.12
951.978	3730.12
952.206	3745.12
952.435	3762.12
952.664	3773.12
952.892	3734.12
953.121	3724.12
953.349	3708.12
953.578	3718.12
953.806	3651.12
954.035	3594.12
954.263	3623.12
954.491	3555.12
954.719	3598.12
954.948	3538.12
955.176	3515.12
955.404	3491.12
955.632	3541.12
955.86	3537.12
956.088	3451.12
956.316	3505.12
956.544	3517.12
956.772	3457.12
956.999	3403.12
957.227	3480.12
957.455	3356.12
957.683	3396.12
957.91	3372.12
958.138	3334.12
958.365	3352.12
958.593	3265.12
958.82	3225.12
959.048	3315.12
959.275	3270.12
959.502	3230.12
959.73	3237.12
959.957	3227.12
960.184	3281.12
960.411	3185.12
960.638	3239.12
960.865	3197.12
961.092	3246.12
961.319	3131.12
961.546	3249.12
961.773	3221.12
962	3170.12
962.227	3201.12
962.454	3159.12
962.68	3139.12
962.907	3136.12
963.134	3113.12
963.36	3141.12
963.587	3117.12
963.813	3023.12
964.04	3088.12
964.266	2983.12
964.493	3100.12
964.719	3055.12
964.945	3017.12
965.171	2940.12
965.398	2980.12
965.624	2960.12
965.85	2906.12
966.076	2890.12
966.302	2923.12
966.528	2860.12
966.754	2897.12
966.98	2890.12
967.206	2878.12
967.431	2818.12
967.657	2903.12
967.883	2839.12
968.109	2881.12
968.334	2789.12
968.56	2771.12
968.785	2831.12
969.011	2772.12
969.236	2793.12
969.462	2766.12
969.687	2769.12
969.912	2785.12
970.138	2814.12
970.363	2723.12
970.588	2759.12
970.813	2726.12
971.038	2675.12
971.263	2729.12
971.488	2719.12
971.713	2761.12
971.938	2680.12
972.163	2601.12
972.388	2611.12
972.613	2592.12
972.838	2649.12
973.062	2583.12
973.287	2583.12
973.512	2530.12
973.736	2606.12
973.961	2540.12
974.185	2507.12
974.41	2532.12
974.634	2435.12
974.858	2441.12
975.083	2484.12
975.307	2519.12
975.531	2426.12
975.755	2382.12
975.98	2407.12
976.204	2373.12
976.428	2337.12
976.652	2355.12
976.876	2297.12
977.1	2343.12
977.324	2312.12
977.547	2344.12
977.771	2343.12
977.995	2317.12
978.219	2239.12
978.442	2373.12
978.666	2322.12
978.89	2298.12
979.113	2304.12
979.337	2297.12
979.56	2235.12
979.783	2328.12
980.007	2235.12
980.23	2236.12
980.453	2190.12
980.677	2246.12
980.9	2220.12
981.123	2144.12
981.346	2185.12
981.569	2203.12
981.792	2202.12
982.015	2129.12
982.238	2161.12
982.461	2159.12
982.684	2131.12
982.907	2088.12
983.129	2080.12
983.352	2095.12
983.575	2115.12
983.797	2091.12
984.02	2040.12
984.242	2032.12
984.465	2006.12
984.687	2072.12
984.91	2071.12
985.132	2041.12
985.354	2061.12
985.577	2018.12
985.799	2025.12
986.021	1937.12
986.243	1960.12
986.465	2010.12
986.687	2039.12
986.909	2027.12
987.131	2001.12
987.353	1950.12
987.575	1978.12
987.797	1915.12
988.019	1885.12
988.241	1940.12
988.462	1887.12
988.684	1940.12
988.906	1985.12
989.127	2001.12
989.349	1873.12
989.57	1917.12
989.792	1912.12
990.013	1958.12
990.234	1941.12
990.456	1977.12
990.677	1935.12
990.898	1849.12
991.119	1863.12
991.341	1900.12
991.562	1819.12
991.783	1906.12
992.004	1802.12
992.225	1773.12
992.446	1841.12
992.667	1728.12
992.887	1852.12
993.108	1732.12
993.329	1841.12
993.55	1799.12
993.77	1743.12
993.991	1742.12
994.212	1760.12
994.432	1723.12
994.653	1758.12
994.873	1761.12
995.093	1624.12
995.314	1692.12
995.534	1743.12
995.754	1749.12
995.975	1769.12
996.195	1639.12
996.415	1698.12
996.635	1676.12
996.855	1676.12
997.075	1662.12
997.295	1682.12
997.515	1660.12
997.735	1711.12
997.955	1650.12
998.174	1631.12
998.394	1648.12
998.614	1678.12
998.834	1630.12
999.053	1668.12
999.273	1645.12
999.492	1722.12
999.712	1676.12
999.931	1599.12
1000.151	1639.12
1000.37	1615.12
1000.589	1690.12
1000.809	1596.12
1001.028	1712.12
1001.247	1625.12
1001.466	1523.12
1001.685	1654.12
1001.904	1611.12
1002.123	1600.12
1002.342	1611.12
1002.561	1550.12
1002.78	1584.12
1002.999	1630.12
1003.218	1568.12
1003.436	1569.12
1003.655	1586.12
1003.874	1536.12
1004.092	1575.12
1004.311	1594.12
1004.53	1575.12
1004.748	1604.12
1004.966	1567.12
1005.185	1581.12
1005.403	1591.12
1005.622	1536.12
1005.84	1649.12
1006.058	1523.12
1006.276	1559.12
1006.494	2037.12
1006.712	1525.12
1006.931	1627.12
1007.149	1514.12
1007.367	1528.12
1007.584	1551.12
1007.802	1590.12
1008.02	1513.12
1008.238	1624.12
1008.456	1615.12
1008.673	1483.12
1008.891	1587.12
1009.109	1524.12
1009.326	1582.12
1009.544	1663.12
1009.761	1575.12
1009.979	1628.12
1010.196	1632.12
1010.413	1727.12
1010.631	1756.12
1010.848	1774.12
1011.065	1783.12
1011.282	1733.12
1011.5	1685.12
1011.717	1774.12
1011.934	1714.12
1012.151	1751.12
1012.368	1707.12
1012.585	1669.12
1012.801	1711.12
1013.018	1695.12
1013.235	1647.12
1013.452	1663.12
1013.669	1652.12
1013.885	1617.12
1014.102	1671.12
1014.318	1661.12
1014.535	1645.12
1014.751	1642.12
1014.968	1637.12
1015.184	1673.12
1015.401	1580.12
1015.617	1594.12
1015.833	1566.12
1016.049	1545.12
1016.266	1535.12
1016.482	1543.12
1016.698	1507.12
1016.914	1539.12
1017.13	1465.12
1017.346	1453.12
1017.562	1529.12
1017.778	1436.12
1017.993	1448.12
1018.209	1478.12
1018.425	1464.12
1018.641	1427.12
1018.856	1386.12
1019.072	1425.12
1019.288	1478.12
1019.503	1421.12
1019.719	1341.12
1019.934	1359.12
1020.149	1434.12
1020.365	1385.12
1020.58	1316.12
1020.795	1359.12
1021.011	1313.12
1021.226	1263.12
1021.441	1309.12
1021.656	1246.12
1021.871	1180.12
1022.086	1195.12
1022.301	1164.12
1022.516	1187.12
1022.731	1212.12
1022.946	1125.12
1023.16	1132.12
1023.375	1057.12
1023.59	1080.12
1023.804	1021.12
1024.019	1115.12
1024.234	1021.12
1024.448	1052.12
1024.663	966.12
1024.877	992.12
1025.092	998.12
1025.306	1007.12
1025.52	909.12
1025.734	991.12
1025.949	938.12
1026.163	878.12
1026.377	842.12
1026.591	884.12
1026.805	822.12
1027.019	812.12
1027.233	768.12
1027.447	715.12
1027.661	815.12
1027.875	768.12
1028.088	783.12
1028.302	707.12
1028.516	706.12
1028.73	695.12
1028.943	682.12
1029.157	640.12
1029.37	609.12
1029.584	0.12
1029.797	-1.88
1030.011	-1.88
1030.224	2.12
