Data from QEP037381__482__17-15-47-253.txt Node

Date: Fri Dec 16 17:15:47 EST 2022
User: dcclab
Spectrometer: QEP03738
Trigger mode: 4
Integration Time (sec): 1.000000E1
Scans to average: 1
Electric dark correction enabled: true
Nonlinearity correction enabled: false
Boxcar width: 0
XAxis mode: Wavelengths
Number of Pixels in Spectrum: 1044
>>>>>Begin Spectral Data<<<<<
784.041	12.38
784.3	2.38
784.558	-7.62
784.817	-3.62
785.075	105648.38
785.334	18617.38
785.592	8899.38
785.851	6187.38
786.109	4656.38
786.368	3622.38
786.626	2927.38
786.884	2357.38
787.143	2038.38
787.401	1677.38
787.659	1504.38
787.917	1295.38
788.175	1195.38
788.433	1051.38
788.691	930.38
788.949	862.38
789.207	791.38
789.465	721.38
789.723	675.38
789.98	641.38
790.238	659.38
790.496	616.38
790.753	582.38
791.011	640.38
791.268	576.38
791.526	556.38
791.783	560.38
792.041	552.38
792.298	477.38
792.556	545.38
792.813	505.38
793.07	502.38
793.327	489.38
793.584	575.38
793.841	466.38
794.099	508.38
794.356	559.38
794.613	463.38
794.869	502.38
795.126	465.38
795.383	439.38
795.64	457.38
795.897	409.38
796.153	483.38
796.41	452.38
796.667	438.38
796.923	458.38
797.18	446.38
797.436	492.38
797.693	442.38
797.949	495.38
798.206	527.38
798.462	444.38
798.718	527.38
798.974	479.38
799.231	521.38
799.487	510.38
799.743	532.38
799.999	556.38
800.255	552.38
800.511	555.38
800.767	615.38
801.023	595.38
801.279	659.38
801.534	710.38
801.79	768.38
802.046	811.38
802.302	985.38
802.557	1149.38
802.813	1473.38
803.068	1857.38
803.324	2590.38
803.579	3620.38
803.835	5094.38
804.09	7094.38
804.345	9436.38
804.601	12007.38
804.856	14567.38
805.111	16849.38
805.366	18629.38
805.621	19804.38
805.876	20627.38
806.131	21145.38
806.386	21450.38
806.641	21709.38
806.896	22114.38
807.151	22566.38
807.406	22926.38
807.661	23324.38
807.915	23686.38
808.17	24149.38
808.425	24348.38
808.679	24434.38
808.934	24832.38
809.188	25052.38
809.443	25192.38
809.697	25548.38
809.951	25605.38
810.206	25863.38
810.46	26163.38
810.714	26380.38
810.968	26671.38
811.223	26842.38
811.477	26918.38
811.731	27232.38
811.985	27362.38
812.239	27538.38
812.493	27748.38
812.747	27760.38
813	27731.38
813.254	27800.38
813.508	28093.38
813.762	28106.38
814.015	28255.38
814.269	28496.38
814.522	28798.38
814.776	29018.38
815.03	29491.38
815.283	29796.38
815.536	30206.38
815.79	30630.38
816.043	30993.38
816.296	31443.38
816.55	31724.38
816.803	32184.38
817.056	32793.38
817.309	32743.38
817.562	32983.38
817.815	33362.38
818.068	33602.38
818.321	33946.38
818.574	34474.38
818.827	34822.38
819.079	35248.38
819.332	35799.38
819.585	36117.38
819.838	36611.38
820.09	36752.38
820.343	37174.38
820.595	37340.38
820.848	37641.38
821.1	37762.38
821.353	37701.38
821.605	37679.38
821.857	37779.38
822.11	37550.38
822.362	37407.38
822.614	37505.38
822.866	37334.38
823.118	37334.38
823.37	37448.38
823.622	37557.38
823.874	37569.38
824.126	37747.38
824.378	37690.38
824.63	37984.38
824.882	37885.38
825.134	38024.38
825.385	38022.38
825.637	37766.38
825.888	37716.38
826.14	37562.38
826.392	37441.38
826.643	37167.38
826.895	37063.38
827.146	37086.38
827.397	36892.38
827.649	36878.38
827.9	36811.38
828.151	36751.38
828.402	36929.38
828.653	36983.38
828.905	37056.38
829.156	37127.38
829.407	37092.38
829.658	37098.38
829.909	37091.38
830.159	36879.38
830.41	36642.38
830.661	36391.38
830.912	36276.38
831.162	36202.38
831.413	36139.38
831.664	36166.38
831.914	36015.38
832.165	35973.38
832.415	36041.38
832.666	35919.38
832.916	36027.38
833.167	35772.38
833.417	35779.38
833.667	35735.38
833.917	35579.38
834.168	35410.38
834.418	35365.38
834.668	35212.38
834.918	35081.38
835.168	34856.38
835.418	34852.38
835.668	34693.38
835.918	34637.38
836.167	34531.38
836.417	34428.38
836.667	34354.38
836.917	34201.38
837.166	34272.38
837.416	34191.38
837.666	34116.38
837.915	34005.38
838.165	33927.38
838.414	33709.38
838.663	33575.38
838.913	33511.38
839.162	33475.38
839.411	33516.38
839.661	33253.38
839.91	33145.38
840.159	33015.38
840.408	33099.38
840.657	33028.38
840.906	32951.38
841.155	32926.38
841.404	32958.38
841.653	32891.38
841.902	32945.38
842.15	32892.38
842.399	32958.38
842.648	32856.38
842.897	32676.38
843.145	32552.38
843.394	32320.38
843.642	32239.38
843.891	31971.38
844.139	31825.38
844.388	31727.38
844.636	31600.38
844.884	31502.38
845.133	31474.38
845.381	31361.38
845.629	31399.38
845.877	31132.38
846.125	31144.38
846.373	31045.38
846.621	31007.38
846.869	30962.38
847.117	30777.38
847.365	30628.38
847.613	30348.38
847.861	30157.38
848.108	30276.38
848.356	30150.38
848.604	29993.38
848.851	29972.38
849.099	30098.38
849.346	30222.38
849.594	30200.38
849.841	30354.38
850.089	30397.38
850.336	30267.38
850.583	30264.38
850.831	30162.38
851.078	29917.38
851.325	29850.38
851.572	29664.38
851.819	29449.38
852.066	29032.38
852.313	28720.38
852.56	28424.38
852.807	28466.38
853.054	28222.38
853.301	28166.38
853.548	28120.38
853.794	28242.38
854.041	28374.38
854.288	28403.38
854.534	28682.38
854.781	28548.38
855.028	28420.38
855.274	28404.38
855.52	28076.38
855.767	27977.38
856.013	27799.38
856.26	28076.38
856.506	27511.38
856.752	27510.38
856.998	27590.38
857.244	27714.38
857.49	27699.38
857.736	27650.38
857.982	27662.38
858.228	27595.38
858.474	27359.38
858.72	27471.38
858.966	27164.38
859.212	26764.38
859.458	26473.38
859.703	26235.38
859.949	26012.38
860.195	25952.38
860.44	25790.38
860.686	25559.38
860.931	25462.38
861.177	25333.38
861.422	25370.38
861.667	25232.38
861.913	25274.38
862.158	25404.38
862.403	25396.38
862.648	25396.38
862.893	25335.38
863.138	25371.38
863.384	25437.38
863.629	25175.38
863.873	25161.38
864.118	25164.38
864.363	24936.38
864.608	24753.38
864.853	24847.38
865.098	24703.38
865.342	24547.38
865.587	24315.38
865.832	24404.38
866.076	24223.38
866.321	24213.38
866.565	24123.38
866.81	24000.38
867.054	23763.38
867.298	23833.38
867.543	23765.38
867.787	23734.38
868.031	23719.38
868.275	23552.38
868.519	23417.38
868.764	23466.38
869.008	23335.38
869.252	23256.38
869.496	23161.38
869.739	23199.38
869.983	22991.38
870.227	22934.38
870.471	22939.38
870.715	22921.38
870.958	22928.38
871.202	22820.38
871.446	22970.38
871.689	22989.38
871.933	22914.38
872.176	22939.38
872.42	22956.38
872.663	22738.38
872.906	22648.38
873.15	22510.38
873.393	22335.38
873.636	22362.38
873.879	22005.38
874.122	21944.38
874.366	21684.38
874.609	21465.38
874.852	21516.38
875.095	21383.38
875.337	21170.38
875.58	21140.38
875.823	21063.38
876.066	21040.38
876.309	20889.38
876.551	20685.38
876.794	20605.38
877.037	20641.38
877.279	20514.38
877.522	20585.38
877.764	20702.38
878.007	20567.38
878.249	20537.38
878.491	20586.38
878.734	20538.38
878.976	20429.38
879.218	20320.38
879.46	20148.38
879.702	20124.38
879.945	19948.38
880.187	19779.38
880.429	19687.38
880.671	19601.38
880.912	19436.38
881.154	19414.38
881.396	19238.38
881.638	19291.38
881.88	19221.38
882.121	19103.38
882.363	19188.38
882.605	19136.38
882.846	19021.38
883.088	18893.38
883.329	18822.38
883.571	18612.38
883.812	18739.38
884.053	18851.38
884.295	18927.38
884.536	19010.38
884.777	18955.38
885.018	18758.38
885.259	18776.38
885.5	18681.38
885.742	18946.38
885.982	18709.38
886.223	18513.38
886.464	18477.38
886.705	18293.38
886.946	18207.38
887.187	18065.38
887.428	18047.38
887.668	17842.38
887.909	17702.38
888.15	17470.38
888.39	17376.38
888.631	17354.38
888.871	17187.38
889.111	17049.38
889.352	17024.38
889.592	16796.38
889.833	16763.38
890.073	16619.38
890.313	16617.38
890.553	16425.38
890.793	16233.38
891.033	16252.38
891.273	16174.38
891.513	16059.38
891.753	16065.38
891.993	16031.38
892.233	16099.38
892.473	16198.38
892.713	16101.38
892.952	16022.38
893.192	16092.38
893.432	15965.38
893.671	15947.38
893.911	15890.38
894.15	15789.38
894.39	15608.38
894.629	15475.38
894.869	15464.38
895.108	15315.38
895.347	15313.38
895.587	15298.38
895.826	15103.38
896.065	15053.38
896.304	15117.38
896.543	15104.38
896.782	14985.38
897.021	15028.38
897.26	14857.38
897.499	14920.38
897.738	14825.38
897.977	14642.38
898.216	14586.38
898.454	14407.38
898.693	14371.38
898.932	14236.38
899.17	14176.38
899.409	14089.38
899.647	13994.38
899.886	13980.38
900.124	14000.38
900.363	13987.38
900.601	13969.38
900.839	13944.38
901.078	13939.38
901.316	13985.38
901.554	13944.38
901.792	13991.38
902.03	13843.38
902.268	13863.38
902.506	13766.38
902.744	13720.38
902.982	13708.38
903.22	13552.38
903.458	13425.38
903.695	13331.38
903.933	13185.38
904.171	12995.38
904.409	12835.38
904.646	12797.38
904.884	12631.38
905.121	12414.38
905.359	12355.38
905.596	12230.38
905.833	12079.38
906.071	12069.38
906.308	12052.38
906.545	12071.38
906.783	11984.38
907.02	11949.38
907.257	11850.38
907.494	11856.38
907.731	11814.38
907.968	11762.38
908.205	11703.38
908.442	11688.38
908.679	11605.38
908.915	11537.38
909.152	11447.38
909.389	11297.38
909.626	11238.38
909.862	11060.38
910.099	11089.38
910.335	11062.38
910.572	10986.38
910.808	10952.38
911.045	10883.38
911.281	10853.38
911.518	10864.38
911.754	10821.38
911.99	10813.38
912.226	10619.38
912.463	10481.38
912.699	10468.38
912.935	10407.38
913.171	10314.38
913.407	10232.38
913.643	10230.38
913.879	9987.38
914.114	10025.38
914.35	9885.38
914.586	9797.38
914.822	9659.38
915.057	9698.38
915.293	9513.38
915.529	9500.38
915.764	9542.38
916	9495.38
916.235	9406.38
916.471	9348.38
916.706	9365.38
916.941	9278.38
917.177	9285.38
917.412	9305.38
917.647	9318.38
917.882	9254.38
918.117	9298.38
918.352	9226.38
918.588	9185.38
918.823	9064.38
919.057	8983.38
919.292	8843.38
919.527	8896.38
919.762	8730.38
919.997	8704.38
920.232	8581.38
920.466	8501.38
920.701	8316.38
920.935	8326.38
921.17	8240.38
921.405	8264.38
921.639	8201.38
921.873	8216.38
922.108	8163.38
922.342	8155.38
922.576	8052.38
922.811	7983.38
923.045	8016.38
923.279	8048.38
923.513	7849.38
923.747	7958.38
923.981	7863.38
924.215	7803.38
924.449	7752.38
924.683	7609.38
924.917	7638.38
925.151	7587.38
925.385	7594.38
925.618	7569.38
925.852	7551.38
926.086	7428.38
926.319	7470.38
926.553	7419.38
926.786	7494.38
927.02	7444.38
927.253	7377.38
927.486	7421.38
927.72	7349.38
927.953	7401.38
928.186	7324.38
928.42	7304.38
928.653	7184.38
928.886	7235.38
929.119	7195.38
929.352	7192.38
929.585	7107.38
929.818	7078.38
930.051	6989.38
930.284	6970.38
930.516	6851.38
930.749	6840.38
930.982	6832.38
931.215	6773.38
931.447	6731.38
931.68	6659.38
931.912	6652.38
932.145	6645.38
932.377	6666.38
932.61	6750.38
932.842	6631.38
933.074	6648.38
933.307	6569.38
933.539	6660.38
933.771	6631.38
934.003	6576.38
934.236	6620.38
934.468	6649.38
934.7	6505.38
934.932	6600.38
935.164	6452.38
935.395	6404.38
935.627	6499.38
935.859	6453.38
936.091	6345.38
936.323	6404.38
936.554	6353.38
936.786	6333.38
937.017	6269.38
937.249	6266.38
937.481	6145.38
937.712	6245.38
937.943	6220.38
938.175	6173.38
938.406	6200.38
938.637	6181.38
938.869	6094.38
939.1	6173.38
939.331	6111.38
939.562	6132.38
939.793	6055.38
940.024	6111.38
940.255	6057.38
940.486	6010.38
940.717	5917.38
940.948	5896.38
941.179	5848.38
941.409	5894.38
941.64	5842.38
941.871	5810.38
942.102	5826.38
942.332	5842.38
942.563	5871.38
942.793	5831.38
943.024	5754.38
943.254	5849.38
943.484	5833.38
943.715	5837.38
943.945	5810.38
944.175	5775.38
944.405	5684.38
944.636	5716.38
944.866	5708.38
945.096	5743.38
945.326	5659.38
945.556	5676.38
945.786	5680.38
946.016	5600.38
946.245	5543.38
946.475	5517.38
946.705	5490.38
946.935	5429.38
947.164	5410.38
947.394	5330.38
947.624	5335.38
947.853	5329.38
948.083	5328.38
948.312	5328.38
948.542	5180.38
948.771	5181.38
949	5185.38
949.23	5251.38
949.459	5267.38
949.688	5278.38
949.917	5204.38
950.146	5219.38
950.375	5200.38
950.604	5142.38
950.833	5203.38
951.062	5183.38
951.291	5141.38
951.52	5085.38
951.749	5120.38
951.978	5054.38
952.206	5027.38
952.435	4993.38
952.664	5001.38
952.892	5030.38
953.121	4998.38
953.349	4994.38
953.578	4946.38
953.806	4925.38
954.035	4825.38
954.263	4871.38
954.491	4778.38
954.719	4807.38
954.948	4769.38
955.176	4749.38
955.404	4653.38
955.632	4703.38
955.86	4680.38
956.088	4697.38
956.316	4668.38
956.544	4685.38
956.772	4586.38
956.999	4530.38
957.227	4644.38
957.455	4495.38
957.683	4514.38
957.91	4414.38
958.138	4382.38
958.365	4426.38
958.593	4400.38
958.82	4360.38
959.048	4410.38
959.275	4339.38
959.502	4270.38
959.73	4288.38
959.957	4280.38
960.184	4332.38
960.411	4210.38
960.638	4347.38
960.865	4241.38
961.092	4235.38
961.319	4177.38
961.546	4318.38
961.773	4253.38
962	4212.38
962.227	4253.38
962.454	4227.38
962.68	4226.38
962.907	4172.38
963.134	4117.38
963.36	4170.38
963.587	4177.38
963.813	4009.38
964.04	4060.38
964.266	3990.38
964.493	4058.38
964.719	4015.38
964.945	4024.38
965.171	3880.38
965.398	3916.38
965.624	3951.38
965.85	3881.38
966.076	3812.38
966.302	3897.38
966.528	3838.38
966.754	3826.38
966.98	3837.38
967.206	3789.38
967.431	3691.38
967.657	3777.38
967.883	3773.38
968.109	3763.38
968.334	3677.38
968.56	3634.38
968.785	3702.38
969.011	3604.38
969.236	3683.38
969.462	3599.38
969.687	3590.38
969.912	3651.38
970.138	3626.38
970.363	3539.38
970.588	3603.38
970.813	3547.38
971.038	3542.38
971.263	3567.38
971.488	3580.38
971.713	3568.38
971.938	3553.38
972.163	3475.38
972.388	3398.38
972.613	3476.38
972.838	3459.38
973.062	3388.38
973.287	3399.38
973.512	3321.38
973.736	3352.38
973.961	3357.38
974.185	3330.38
974.41	3343.38
974.634	3240.38
974.858	3251.38
975.083	3260.38
975.307	3243.38
975.531	3199.38
975.755	3119.38
975.98	3145.38
976.204	3087.38
976.428	3075.38
976.652	3096.38
976.876	3036.38
977.1	3055.38
977.324	3036.38
977.547	3073.38
977.771	3063.38
977.995	3036.38
978.219	2957.38
978.442	3073.38
978.666	2997.38
978.89	2997.38
979.113	2977.38
979.337	2962.38
979.56	2910.38
979.783	3000.38
980.007	2881.38
980.23	2929.38
980.453	2854.38
980.677	2928.38
980.9	2884.38
981.123	2778.38
981.346	2902.38
981.569	2842.38
981.792	2862.38
982.015	2789.38
982.238	2767.38
982.461	2770.38
982.684	2759.38
982.907	2718.38
983.129	2703.38
983.352	2751.38
983.575	2713.38
983.797	2674.38
984.02	2638.38
984.242	2619.38
984.465	2620.38
984.687	2645.38
984.91	2648.38
985.132	2619.38
985.354	2602.38
985.577	2594.38
985.799	2569.38
986.021	2494.38
986.243	2526.38
986.465	2555.38
986.687	2586.38
986.909	2625.38
987.131	2540.38
987.353	2476.38
987.575	2523.38
987.797	2448.38
988.019	2385.38
988.241	2520.38
988.462	2440.38
988.684	2496.38
988.906	2508.38
989.127	2498.38
989.349	2394.38
989.57	2386.38
989.792	2460.38
990.013	2470.38
990.234	2432.38
990.456	2475.38
990.677	2437.38
990.898	2348.38
991.119	2385.38
991.341	2375.38
991.562	2338.38
991.783	2373.38
992.004	2273.38
992.225	2228.38
992.446	2288.38
992.667	2237.38
992.887	2328.38
993.108	2198.38
993.329	2330.38
993.55	2245.38
993.77	2188.38
993.991	2185.38
994.212	2214.38
994.432	2181.38
994.653	2211.38
994.873	2172.38
995.093	2077.38
995.314	2085.38
995.534	2185.38
995.754	2159.38
995.975	2200.38
996.195	2075.38
996.415	2120.38
996.635	2069.38
996.855	2115.38
997.075	2118.38
997.295	2040.38
997.515	2035.38
997.735	2118.38
997.955	2026.38
998.174	2082.38
998.394	2018.38
998.614	2106.38
998.834	2023.38
999.053	2076.38
999.273	2038.38
999.492	2091.38
999.712	2030.38
999.931	2006.38
1000.151	1998.38
1000.37	1981.38
1000.589	2053.38
1000.809	1964.38
1001.028	2069.38
1001.247	1997.38
1001.466	1892.38
1001.685	2023.38
1001.904	1978.38
1002.123	1956.38
1002.342	1931.38
1002.561	1916.38
1002.78	1917.38
1002.999	1954.38
1003.218	1919.38
1003.436	1842.38
1003.655	1924.38
1003.874	1856.38
1004.092	1883.38
1004.311	1909.38
1004.53	1862.38
1004.748	1929.38
1004.966	1844.38
1005.185	1904.38
1005.403	1877.38
1005.622	1871.38
1005.84	1930.38
1006.058	1823.38
1006.276	1845.38
1006.494	2323.38
1006.712	1818.38
1006.931	1881.38
1007.149	1784.38
1007.367	1794.38
1007.584	1826.38
1007.802	1856.38
1008.02	1792.38
1008.238	1884.38
1008.456	1875.38
1008.673	1753.38
1008.891	1844.38
1009.109	1800.38
1009.326	1827.38
1009.544	1870.38
1009.761	1769.38
1009.979	1891.38
1010.196	1860.38
1010.413	1957.38
1010.631	1966.38
1010.848	1978.38
1011.065	1976.38
1011.282	1958.38
1011.5	1874.38
1011.717	1979.38
1011.934	1927.38
1012.151	1970.38
1012.368	1899.38
1012.585	1866.38
1012.801	1941.38
1013.018	1889.38
1013.235	1848.38
1013.452	1845.38
1013.669	1879.38
1013.885	1833.38
1014.102	1877.38
1014.318	1832.38
1014.535	1813.38
1014.751	1809.38
1014.968	1834.38
1015.184	1808.38
1015.401	1756.38
1015.617	1803.38
1015.833	1713.38
1016.049	1727.38
1016.266	1721.38
1016.482	1702.38
1016.698	1628.38
1016.914	1705.38
1017.13	1663.38
1017.346	1628.38
1017.562	1698.38
1017.778	1625.38
1017.993	1593.38
1018.209	1671.38
1018.425	1618.38
1018.641	1577.38
1018.856	1541.38
1019.072	1562.38
1019.288	1622.38
1019.503	1578.38
1019.719	1474.38
1019.934	1508.38
1020.149	1588.38
1020.365	1523.38
1020.58	1471.38
1020.795	1554.38
1021.011	1455.38
1021.226	1428.38
1021.441	1474.38
1021.656	1373.38
1021.871	1324.38
1022.086	1328.38
1022.301	1324.38
1022.516	1319.38
1022.731	1362.38
1022.946	1290.38
1023.16	1264.38
1023.375	1217.38
1023.59	1205.38
1023.804	1180.38
1024.019	1284.38
1024.234	1141.38
1024.448	1197.38
1024.663	1108.38
1024.877	1121.38
1025.092	1128.38
1025.306	1124.38
1025.52	1039.38
1025.734	1139.38
1025.949	1037.38
1026.163	1020.38
1026.377	953.38
1026.591	1002.38
1026.805	922.38
1027.019	913.38
1027.233	895.38
1027.447	839.38
1027.661	941.38
1027.875	871.38
1028.088	874.38
1028.302	798.38
1028.516	783.38
1028.73	778.38
1028.943	778.38
1029.157	715.38
1029.37	678.38
1029.584	1.38
1029.797	-0.62
1030.011	-2.62
1030.224	-1.62
