Data from QEP037381__557__17-47-36-379.txt Node

Date: Fri Dec 16 17:47:36 EST 2022
User: dcclab
Spectrometer: QEP03738
Trigger mode: 4
Integration Time (sec): 1.000000E1
Scans to average: 1
Electric dark correction enabled: true
Nonlinearity correction enabled: false
Boxcar width: 0
XAxis mode: Wavelengths
Number of Pixels in Spectrum: 1044
>>>>>Begin Spectral Data<<<<<
784.041	12.38
784.3	3.38
784.558	-5.62
784.817	-4.62
785.075	116504.38
785.334	20237.38
785.592	9388.38
785.851	6526.38
786.109	4863.38
786.368	3780.38
786.626	2993.38
786.884	2483.38
787.143	2139.38
787.401	1727.38
787.659	1558.38
787.917	1362.38
788.175	1184.38
788.433	1041.38
788.691	965.38
788.949	875.38
789.207	840.38
789.465	733.38
789.723	700.38
789.98	649.38
790.238	669.38
790.496	634.38
790.753	594.38
791.011	635.38
791.268	552.38
791.526	569.38
791.783	564.38
792.041	561.38
792.298	453.38
792.556	523.38
792.813	489.38
793.07	478.38
793.327	473.38
793.584	542.38
793.841	476.38
794.099	498.38
794.356	536.38
794.613	438.38
794.869	485.38
795.126	442.38
795.383	425.38
795.64	456.38
795.897	395.38
796.153	462.38
796.41	449.38
796.667	419.38
796.923	431.38
797.18	432.38
797.436	459.38
797.693	425.38
797.949	470.38
798.206	496.38
798.462	402.38
798.718	477.38
798.974	446.38
799.231	490.38
799.487	485.38
799.743	499.38
799.999	522.38
800.255	506.38
800.511	500.38
800.767	553.38
801.023	524.38
801.279	561.38
801.534	597.38
801.79	643.38
802.046	680.38
802.302	806.38
802.557	910.38
802.813	1143.38
803.068	1351.38
803.324	1914.38
803.579	2562.38
803.835	3568.38
804.09	4948.38
804.345	6437.38
804.601	8125.38
804.856	9872.38
805.111	11462.38
805.366	12616.38
805.621	13462.38
805.876	14046.38
806.131	14333.38
806.386	14617.38
806.641	14865.38
806.896	15061.38
807.151	15420.38
807.406	15567.38
807.661	15840.38
807.915	16064.38
808.17	16244.38
808.425	16390.38
808.679	16561.38
808.934	16741.38
809.188	16922.38
809.443	17069.38
809.697	17201.38
809.951	17288.38
810.206	17415.38
810.46	17612.38
810.714	17784.38
810.968	17874.38
811.223	17854.38
811.477	18234.38
811.731	18225.38
811.985	18305.38
812.239	18368.38
812.493	18485.38
812.747	18591.38
813	18659.38
813.254	18661.38
813.508	18770.38
813.762	18692.38
814.015	18846.38
814.269	19013.38
814.522	19192.38
814.776	19277.38
815.03	19515.38
815.283	19773.38
815.536	20189.38
815.79	20396.38
816.043	20606.38
816.296	20924.38
816.55	21055.38
816.803	21369.38
817.056	21558.38
817.309	21794.38
817.562	21857.38
817.815	22171.38
818.068	22185.38
818.321	22478.38
818.574	22742.38
818.827	22964.38
819.079	23164.38
819.332	23765.38
819.585	23808.38
819.838	24306.38
820.09	24407.38
820.343	24488.38
820.595	24631.38
820.848	24741.38
821.1	24885.38
821.353	24837.38
821.605	24793.38
821.857	24725.38
822.11	24708.38
822.362	24519.38
822.614	24440.38
822.866	24600.38
823.118	24440.38
823.37	24629.38
823.622	24640.38
823.874	24690.38
824.126	24880.38
824.378	24814.38
824.63	24916.38
824.882	24931.38
825.134	24688.38
825.385	24720.38
825.637	24729.38
825.888	24750.38
826.14	24615.38
826.392	24482.38
826.643	24235.38
826.895	24323.38
827.146	24153.38
827.397	23997.38
827.649	24134.38
827.9	23828.38
828.151	23950.38
828.402	24095.38
828.653	24169.38
828.905	24201.38
829.156	24270.38
829.407	24178.38
829.658	24202.38
829.909	24201.38
830.159	24144.38
830.41	24028.38
830.661	23895.38
830.912	23673.38
831.162	23559.38
831.413	23578.38
831.664	23593.38
831.914	23568.38
832.165	23533.38
832.415	23576.38
832.666	23459.38
832.916	23497.38
833.167	23465.38
833.417	23416.38
833.667	23352.38
833.917	23165.38
834.168	23285.38
834.418	23213.38
834.668	22961.38
834.918	22882.38
835.168	22796.38
835.418	22682.38
835.668	22616.38
835.918	22569.38
836.167	22472.38
836.417	22304.38
836.667	22417.38
836.917	22336.38
837.166	22260.38
837.416	22320.38
837.666	22287.38
837.915	22235.38
838.165	22205.38
838.414	21983.38
838.663	21920.38
838.913	21957.38
839.162	21865.38
839.411	21793.38
839.661	21659.38
839.91	21761.38
840.159	21658.38
840.408	21675.38
840.657	21654.38
840.906	21661.38
841.155	21694.38
841.404	21589.38
841.653	21616.38
841.902	21576.38
842.15	21615.38
842.399	21653.38
842.648	21566.38
842.897	21493.38
843.145	21312.38
843.394	21209.38
843.642	21047.38
843.891	20995.38
844.139	20938.38
844.388	20727.38
844.636	20638.38
844.884	20644.38
845.133	20547.38
845.381	20509.38
845.629	20455.38
845.877	20370.38
846.125	20534.38
846.373	20372.38
846.621	20254.38
846.869	20252.38
847.117	20173.38
847.365	20039.38
847.613	19997.38
847.861	19881.38
848.108	19862.38
848.356	19717.38
848.604	19738.38
848.851	19705.38
849.099	19676.38
849.346	19802.38
849.594	19853.38
849.841	19852.38
850.089	19854.38
850.336	19885.38
850.583	19869.38
850.831	19709.38
851.078	19614.38
851.325	19556.38
851.572	19593.38
851.819	19430.38
852.066	19061.38
852.313	18821.38
852.56	18716.38
852.807	18619.38
853.054	18584.38
853.301	18592.38
853.548	18520.38
853.794	18689.38
854.041	18677.38
854.288	18811.38
854.534	18875.38
854.781	18836.38
855.028	18797.38
855.274	18685.38
855.52	18625.38
855.767	18550.38
856.013	18589.38
856.26	18845.38
856.506	18337.38
856.752	18099.38
856.998	18278.38
857.244	18281.38
857.49	18395.38
857.736	18359.38
857.982	18415.38
858.228	18344.38
858.474	18186.38
858.72	18050.38
858.966	17913.38
859.212	17781.38
859.458	17595.38
859.703	17431.38
859.949	17149.38
860.195	17111.38
860.44	16941.38
860.686	16934.38
860.931	16903.38
861.177	16800.38
861.422	16711.38
861.667	16734.38
861.913	16705.38
862.158	16755.38
862.403	16775.38
862.648	16737.38
862.893	16868.38
863.138	16819.38
863.384	16703.38
863.629	16723.38
863.873	16759.38
864.118	16569.38
864.363	16487.38
864.608	16546.38
864.853	16441.38
865.098	16308.38
865.342	16221.38
865.587	16141.38
865.832	16160.38
866.076	16131.38
866.321	16025.38
866.565	15915.38
866.81	15821.38
867.054	15863.38
867.298	15843.38
867.543	15742.38
867.787	15831.38
868.031	15679.38
868.275	15547.38
868.519	15593.38
868.764	15536.38
869.008	15566.38
869.252	15560.38
869.496	15399.38
869.739	15367.38
869.983	15340.38
870.227	15439.38
870.471	15315.38
870.715	15361.38
870.958	15384.38
871.202	15399.38
871.446	15448.38
871.689	15372.38
871.933	15344.38
872.176	15440.38
872.42	15336.38
872.663	15300.38
872.906	15221.38
873.15	15132.38
873.393	15110.38
873.636	15124.38
873.879	14954.38
874.122	14872.38
874.366	14622.38
874.609	14576.38
874.852	14468.38
875.095	14344.38
875.337	14327.38
875.58	14131.38
875.823	14122.38
876.066	14150.38
876.309	14056.38
876.551	13967.38
876.794	13853.38
877.037	13892.38
877.279	13789.38
877.522	13800.38
877.764	13943.38
878.007	13757.38
878.249	13807.38
878.491	13809.38
878.734	13792.38
878.976	13682.38
879.218	13489.38
879.46	13606.38
879.702	13537.38
879.945	13306.38
880.187	13234.38
880.429	13105.38
880.671	13087.38
880.912	13047.38
881.154	12942.38
881.396	12815.38
881.638	12949.38
881.88	12903.38
882.121	12878.38
882.363	12867.38
882.605	12849.38
882.846	12766.38
883.088	12747.38
883.329	12710.38
883.571	12677.38
883.812	12745.38
884.053	12954.38
884.295	13133.38
884.536	13374.38
884.777	13142.38
885.018	13042.38
885.259	13025.38
885.5	12985.38
885.742	13093.38
885.982	12845.38
886.223	12747.38
886.464	12729.38
886.705	12504.38
886.946	12494.38
887.187	12187.38
887.428	12302.38
887.668	12060.38
887.909	11925.38
888.15	11738.38
888.39	11714.38
888.631	11675.38
888.871	11518.38
889.111	11462.38
889.352	11349.38
889.592	11303.38
889.833	11159.38
890.073	11207.38
890.313	11114.38
890.553	10964.38
890.793	10997.38
891.033	10907.38
891.273	10822.38
891.513	10826.38
891.753	10781.38
891.993	10724.38
892.233	10775.38
892.473	10756.38
892.713	10781.38
892.952	10754.38
893.192	10785.38
893.432	10732.38
893.671	10814.38
893.911	10624.38
894.15	10580.38
894.39	10478.38
894.629	10406.38
894.869	10444.38
895.108	10351.38
895.347	10226.38
895.587	10273.38
895.826	10200.38
896.065	10145.38
896.304	10212.38
896.543	10177.38
896.782	10017.38
897.021	10121.38
897.26	10089.38
897.499	10001.38
897.738	10009.38
897.977	10015.38
898.216	9878.38
898.454	9658.38
898.693	9710.38
898.932	9696.38
899.17	9607.38
899.409	9608.38
899.647	9534.38
899.886	9501.38
900.124	9499.38
900.363	9453.38
900.601	9542.38
900.839	9530.38
901.078	9529.38
901.316	9561.38
901.554	9631.38
901.792	9600.38
902.03	9554.38
902.268	9556.38
902.506	9540.38
902.744	9471.38
902.982	9440.38
903.22	9327.38
903.458	9161.38
903.695	9093.38
903.933	8920.38
904.171	8801.38
904.409	8665.38
904.646	8638.38
904.884	8468.38
905.121	8444.38
905.359	8316.38
905.596	8310.38
905.833	8204.38
906.071	8143.38
906.308	8197.38
906.545	8156.38
906.783	8093.38
907.02	8093.38
907.257	8051.38
907.494	8010.38
907.731	8034.38
907.968	8030.38
908.205	7896.38
908.442	7840.38
908.679	7786.38
908.915	7784.38
909.152	7705.38
909.389	7524.38
909.626	7577.38
909.862	7501.38
910.099	7492.38
910.335	7543.38
910.572	7386.38
910.808	7392.38
911.045	7354.38
911.281	7423.38
911.518	7396.38
911.754	7233.38
911.99	7327.38
912.226	7213.38
912.463	7102.38
912.699	7067.38
912.935	7014.38
913.171	6990.38
913.407	6897.38
913.643	6926.38
913.879	6831.38
914.114	6776.38
914.35	6644.38
914.586	6627.38
914.822	6575.38
915.057	6589.38
915.293	6397.38
915.529	6420.38
915.764	6499.38
916	6424.38
916.235	6414.38
916.471	6410.38
916.706	6301.38
916.941	6319.38
917.177	6248.38
917.412	6315.38
917.647	6318.38
917.882	6265.38
918.117	6333.38
918.352	6205.38
918.588	6285.38
918.823	6147.38
919.057	6105.38
919.292	6062.38
919.527	6036.38
919.762	5931.38
919.997	5954.38
920.232	5826.38
920.466	5847.38
920.701	5641.38
920.935	5681.38
921.17	5609.38
921.405	5627.38
921.639	5584.38
921.873	5581.38
922.108	5595.38
922.342	5580.38
922.576	5487.38
922.811	5490.38
923.045	5545.38
923.279	5529.38
923.513	5344.38
923.747	5399.38
923.981	5396.38
924.215	5306.38
924.449	5312.38
924.683	5241.38
924.917	5189.38
925.151	5198.38
925.385	5236.38
925.618	5164.38
925.852	5134.38
926.086	5072.38
926.319	5081.38
926.553	5089.38
926.786	5093.38
927.02	5081.38
927.253	5112.38
927.486	5124.38
927.72	5041.38
927.953	5058.38
928.186	4982.38
928.42	5012.38
928.653	4926.38
928.886	4927.38
929.119	4966.38
929.352	4900.38
929.585	4866.38
929.818	4820.38
930.051	4829.38
930.284	4799.38
930.516	4680.38
930.749	4672.38
930.982	4695.38
931.215	4714.38
931.447	4600.38
931.68	4641.38
931.912	4587.38
932.145	4576.38
932.377	4617.38
932.61	4663.38
932.842	4498.38
933.074	4590.38
933.307	4536.38
933.539	4671.38
933.771	4620.38
934.003	4521.38
934.236	4640.38
934.468	4612.38
934.7	4520.38
934.932	4484.38
935.164	4475.38
935.395	4407.38
935.627	4426.38
935.859	4486.38
936.091	4377.38
936.323	4444.38
936.554	4483.38
936.786	4365.38
937.017	4323.38
937.249	4351.38
937.481	4281.38
937.712	4325.38
937.943	4283.38
938.175	4316.38
938.406	4264.38
938.637	4319.38
938.869	4233.38
939.1	4297.38
939.331	4269.38
939.562	4237.38
939.793	4237.38
940.024	4222.38
940.255	4272.38
940.486	4174.38
940.717	4104.38
940.948	4098.38
941.179	4061.38
941.409	4096.38
941.64	4070.38
941.871	4076.38
942.102	4061.38
942.332	4044.38
942.563	4153.38
942.793	4037.38
943.024	4026.38
943.254	4049.38
943.484	4125.38
943.715	4067.38
943.945	4047.38
944.175	3998.38
944.405	3958.38
944.636	3980.38
944.866	3989.38
945.096	4003.38
945.326	3927.38
945.556	3977.38
945.786	3964.38
946.016	3909.38
946.245	3840.38
946.475	3876.38
946.705	3859.38
946.935	3822.38
947.164	3814.38
947.394	3739.38
947.624	3819.38
947.853	3758.38
948.083	3751.38
948.312	3725.38
948.542	3680.38
948.771	3644.38
949	3659.38
949.23	3653.38
949.459	3639.38
949.688	3712.38
949.917	3658.38
950.146	3651.38
950.375	3695.38
950.604	3569.38
950.833	3684.38
951.062	3645.38
951.291	3585.38
951.52	3566.38
951.749	3582.38
951.978	3547.38
952.206	3502.38
952.435	3495.38
952.664	3561.38
952.892	3517.38
953.121	3539.38
953.349	3538.38
953.578	3535.38
953.806	3489.38
954.035	3479.38
954.263	3466.38
954.491	3427.38
954.719	3406.38
954.948	3406.38
955.176	3353.38
955.404	3289.38
955.632	3373.38
955.86	3314.38
956.088	3327.38
956.316	3331.38
956.544	3342.38
956.772	3280.38
956.999	3251.38
957.227	3284.38
957.455	3197.38
957.683	3215.38
957.91	3159.38
958.138	3172.38
958.365	3134.38
958.593	3141.38
958.82	3107.38
959.048	3136.38
959.275	3094.38
959.502	3110.38
959.73	3023.38
959.957	3090.38
960.184	3116.38
960.411	3058.38
960.638	3089.38
960.865	3048.38
961.092	3067.38
961.319	2958.38
961.546	3069.38
961.773	3062.38
962	3016.38
962.227	3070.38
962.454	3018.38
962.68	3008.38
962.907	3020.38
963.134	2981.38
963.36	2979.38
963.587	3021.38
963.813	2891.38
964.04	2944.38
964.266	2835.38
964.493	2913.38
964.719	2896.38
964.945	2882.38
965.171	2779.38
965.398	2846.38
965.624	2875.38
965.85	2750.38
966.076	2747.38
966.302	2812.38
966.528	2732.38
966.754	2796.38
966.98	2766.38
967.206	2722.38
967.431	2711.38
967.657	2783.38
967.883	2701.38
968.109	2723.38
968.334	2658.38
968.56	2688.38
968.785	2684.38
969.011	2644.38
969.236	2684.38
969.462	2637.38
969.687	2653.38
969.912	2678.38
970.138	2660.38
970.363	2566.38
970.588	2592.38
970.813	2613.38
971.038	2558.38
971.263	2615.38
971.488	2602.38
971.713	2648.38
971.938	2579.38
972.163	2476.38
972.388	2491.38
972.613	2491.38
972.838	2491.38
973.062	2484.38
973.287	2483.38
973.512	2402.38
973.736	2427.38
973.961	2453.38
974.185	2414.38
974.41	2413.38
974.634	2348.38
974.858	2343.38
975.083	2368.38
975.307	2381.38
975.531	2348.38
975.755	2279.38
975.98	2274.38
976.204	2244.38
976.428	2215.38
976.652	2254.38
976.876	2209.38
977.1	2253.38
977.324	2179.38
977.547	2228.38
977.771	2260.38
977.995	2228.38
978.219	2148.38
978.442	2277.38
978.666	2210.38
978.89	2210.38
979.113	2203.38
979.337	2165.38
979.56	2158.38
979.783	2207.38
980.007	2113.38
980.23	2142.38
980.453	2152.38
980.677	2183.38
980.9	2140.38
981.123	2034.38
981.346	2150.38
981.569	2130.38
981.792	2153.38
982.015	2053.38
982.238	2024.38
982.461	2070.38
982.684	2007.38
982.907	2007.38
983.129	2001.38
983.352	2043.38
983.575	2027.38
983.797	2030.38
984.02	1985.38
984.242	1943.38
984.465	1997.38
984.687	2005.38
984.91	2030.38
985.132	1973.38
985.354	2003.38
985.577	1974.38
985.799	1941.38
986.021	1879.38
986.243	1880.38
986.465	1910.38
986.687	1953.38
986.909	1988.38
987.131	1912.38
987.353	1880.38
987.575	1928.38
987.797	1893.38
988.019	1832.38
988.241	1884.38
988.462	1848.38
988.684	1888.38
988.906	1911.38
989.127	1934.38
989.349	1802.38
989.57	1842.38
989.792	1866.38
990.013	1883.38
990.234	1897.38
990.456	1912.38
990.677	1881.38
990.898	1826.38
991.119	1819.38
991.341	1861.38
991.562	1764.38
991.783	1821.38
992.004	1756.38
992.225	1700.38
992.446	1797.38
992.667	1689.38
992.887	1764.38
993.108	1657.38
993.329	1779.38
993.55	1738.38
993.77	1682.38
993.991	1686.38
994.212	1727.38
994.432	1700.38
994.653	1694.38
994.873	1682.38
995.093	1604.38
995.314	1631.38
995.534	1672.38
995.754	1711.38
995.975	1737.38
996.195	1611.38
996.415	1660.38
996.635	1666.38
996.855	1656.38
997.075	1614.38
997.295	1645.38
997.515	1603.38
997.735	1654.38
997.955	1631.38
998.174	1603.38
998.394	1605.38
998.614	1646.38
998.834	1583.38
999.053	1646.38
999.273	1612.38
999.492	1695.38
999.712	1626.38
999.931	1580.38
1000.151	1608.38
1000.37	1613.38
1000.589	1635.38
1000.809	1576.38
1001.028	1691.38
1001.247	1604.38
1001.466	1517.38
1001.685	1642.38
1001.904	1568.38
1002.123	1535.38
1002.342	1564.38
1002.561	1524.38
1002.78	1544.38
1002.999	1619.38
1003.218	1562.38
1003.436	1516.38
1003.655	1571.38
1003.874	1517.38
1004.092	1502.38
1004.311	1581.38
1004.53	1545.38
1004.748	1602.38
1004.966	1481.38
1005.185	1594.38
1005.403	1537.38
1005.622	1533.38
1005.84	1567.38
1006.058	1519.38
1006.276	1528.38
1006.494	1905.38
1006.712	1523.38
1006.931	1590.38
1007.149	1489.38
1007.367	1478.38
1007.584	1512.38
1007.802	1542.38
1008.02	1501.38
1008.238	1611.38
1008.456	1626.38
1008.673	1478.38
1008.891	1573.38
1009.109	1530.38
1009.326	1591.38
1009.544	1679.38
1009.761	1573.38
1009.979	1667.38
1010.196	1655.38
1010.413	1746.38
1010.631	1827.38
1010.848	1841.38
1011.065	1852.38
1011.282	1781.38
1011.5	1751.38
1011.717	1853.38
1011.934	1777.38
1012.151	1810.38
1012.368	1754.38
1012.585	1746.38
1012.801	1770.38
1013.018	1746.38
1013.235	1717.38
1013.452	1733.38
1013.669	1749.38
1013.885	1717.38
1014.102	1761.38
1014.318	1729.38
1014.535	1699.38
1014.751	1735.38
1014.968	1706.38
1015.184	1721.38
1015.401	1650.38
1015.617	1703.38
1015.833	1635.38
1016.049	1621.38
1016.266	1594.38
1016.482	1595.38
1016.698	1534.38
1016.914	1585.38
1017.13	1541.38
1017.346	1510.38
1017.562	1587.38
1017.778	1525.38
1017.993	1494.38
1018.209	1534.38
1018.425	1528.38
1018.641	1486.38
1018.856	1445.38
1019.072	1486.38
1019.288	1523.38
1019.503	1461.38
1019.719	1400.38
1019.934	1398.38
1020.149	1479.38
1020.365	1405.38
1020.58	1388.38
1020.795	1414.38
1021.011	1341.38
1021.226	1349.38
1021.441	1353.38
1021.656	1240.38
1021.871	1212.38
1022.086	1200.38
1022.301	1211.38
1022.516	1209.38
1022.731	1226.38
1022.946	1148.38
1023.16	1162.38
1023.375	1111.38
1023.59	1092.38
1023.804	1049.38
1024.019	1161.38
1024.234	1019.38
1024.448	1029.38
1024.663	977.38
1024.877	991.38
1025.092	1012.38
1025.306	1015.38
1025.52	922.38
1025.734	1026.38
1025.949	914.38
1026.163	899.38
1026.377	840.38
1026.591	888.38
1026.805	822.38
1027.019	798.38
1027.233	777.38
1027.447	732.38
1027.661	811.38
1027.875	762.38
1028.088	759.38
1028.302	701.38
1028.516	693.38
1028.73	701.38
1028.943	680.38
1029.157	625.38
1029.37	599.38
1029.584	-3.62
1029.797	0.38
1030.011	-1.62
1030.224	-0.62
