Data from QEP037381__564__17-48-46-378.txt Node

Date: Fri Dec 16 17:48:46 EST 2022
User: dcclab
Spectrometer: QEP03738
Trigger mode: 4
Integration Time (sec): 1.000000E1
Scans to average: 1
Electric dark correction enabled: true
Nonlinearity correction enabled: false
Boxcar width: 0
XAxis mode: Wavelengths
Number of Pixels in Spectrum: 1044
>>>>>Begin Spectral Data<<<<<
784.041	12.12
784.3	-0.88
784.558	-1.88
784.817	-2.88
785.075	113094.12
785.334	19791.12
785.592	9311.12
785.851	6454.12
786.109	4855.12
786.368	3780.12
786.626	3046.12
786.884	2518.12
787.143	2096.12
787.401	1731.12
787.659	1571.12
787.917	1308.12
788.175	1218.12
788.433	1057.12
788.691	977.12
788.949	893.12
789.207	846.12
789.465	742.12
789.723	707.12
789.98	657.12
790.238	684.12
790.496	626.12
790.753	614.12
791.011	644.12
791.268	585.12
791.526	573.12
791.783	587.12
792.041	553.12
792.298	487.12
792.556	519.12
792.813	512.12
793.07	500.12
793.327	483.12
793.584	558.12
793.841	486.12
794.099	497.12
794.356	557.12
794.613	456.12
794.869	500.12
795.126	451.12
795.383	442.12
795.64	470.12
795.897	428.12
796.153	471.12
796.41	443.12
796.667	447.12
796.923	470.12
797.18	460.12
797.436	475.12
797.693	442.12
797.949	492.12
798.206	522.12
798.462	456.12
798.718	503.12
798.974	477.12
799.231	513.12
799.487	516.12
799.743	532.12
799.999	552.12
800.255	555.12
800.511	541.12
800.767	589.12
801.023	584.12
801.279	626.12
801.534	673.12
801.79	727.12
802.046	756.12
802.302	918.12
802.557	1062.12
802.813	1339.12
803.068	1664.12
803.324	2351.12
803.579	3253.12
803.835	4538.12
804.09	6398.12
804.345	8426.12
804.601	10751.12
804.856	13174.12
805.111	15265.12
805.366	16821.12
805.621	17947.12
805.876	18700.12
806.131	19218.12
806.386	19501.12
806.641	19913.12
806.896	20190.12
807.151	20672.12
807.406	21000.12
807.661	21280.12
807.915	21614.12
808.17	21908.12
808.425	22026.12
808.679	22261.12
808.934	22558.12
809.188	22754.12
809.443	23001.12
809.697	23195.12
809.951	23416.12
810.206	23685.12
810.46	23749.12
810.714	23955.12
810.968	24213.12
811.223	24291.12
811.477	24538.12
811.731	24691.12
811.985	24834.12
812.239	24843.12
812.493	25104.12
812.747	25126.12
813	25221.12
813.254	25341.12
813.508	25393.12
813.762	25495.12
814.015	25485.12
814.269	25744.12
814.522	26028.12
814.776	26235.12
815.03	26557.12
815.283	26990.12
815.536	27290.12
815.79	27719.12
816.043	28097.12
816.296	28486.12
816.55	28715.12
816.803	29137.12
817.056	29616.12
817.309	29669.12
817.562	29938.12
817.815	30380.12
818.068	30564.12
818.321	30782.12
818.574	31112.12
818.827	31621.12
819.079	31858.12
819.332	32526.12
819.585	32827.12
819.838	33169.12
820.09	33445.12
820.343	33664.12
820.595	33887.12
820.848	34023.12
821.1	34096.12
821.353	34238.12
821.605	34131.12
821.857	34092.12
822.11	33872.12
822.362	33991.12
822.614	33773.12
822.866	33881.12
823.118	33674.12
823.37	33953.12
823.622	33840.12
823.874	34021.12
824.126	34182.12
824.378	34179.12
824.63	34240.12
824.882	34279.12
825.134	34281.12
825.385	34198.12
825.637	34140.12
825.888	34059.12
826.14	33902.12
826.392	33764.12
826.643	33546.12
826.895	33546.12
827.146	33182.12
827.397	33212.12
827.649	33228.12
827.9	33043.12
828.151	33211.12
828.402	33229.12
828.653	33306.12
828.905	33362.12
829.156	33410.12
829.407	33412.12
829.658	33348.12
829.909	33328.12
830.159	33223.12
830.41	33034.12
830.661	32739.12
830.912	32604.12
831.162	32391.12
831.413	32353.12
831.664	32331.12
831.914	32330.12
832.165	32389.12
832.415	32334.12
832.666	32347.12
832.916	32422.12
833.167	32188.12
833.417	32129.12
833.667	32051.12
833.917	31903.12
834.168	31901.12
834.418	31772.12
834.668	31529.12
834.918	31428.12
835.168	31365.12
835.418	31169.12
835.668	31102.12
835.918	31177.12
836.167	31011.12
836.417	30943.12
836.667	30866.12
836.917	30694.12
837.166	30686.12
837.416	30769.12
837.666	30598.12
837.915	30553.12
838.165	30416.12
838.414	30299.12
838.663	30211.12
838.913	30397.12
839.162	30127.12
839.411	30075.12
839.661	29934.12
839.91	29858.12
840.159	29792.12
840.408	29727.12
840.657	29686.12
840.906	29742.12
841.155	29794.12
841.404	29615.12
841.653	29729.12
841.902	29653.12
842.15	29674.12
842.399	29656.12
842.648	29585.12
842.897	29569.12
843.145	29289.12
843.394	29196.12
843.642	29048.12
843.891	28878.12
844.139	28646.12
844.388	28424.12
844.636	28384.12
844.884	28386.12
845.133	28297.12
845.381	28160.12
845.629	28367.12
845.877	28179.12
846.125	28168.12
846.373	28106.12
846.621	27947.12
846.869	27817.12
847.117	27734.12
847.365	27548.12
847.613	27508.12
847.861	27365.12
848.108	27323.12
848.356	27146.12
848.604	26997.12
848.851	27168.12
849.099	27152.12
849.346	27181.12
849.594	27245.12
849.841	27398.12
850.089	27389.12
850.336	27262.12
850.583	27178.12
850.831	27011.12
851.078	26989.12
851.325	26965.12
851.572	26806.12
851.819	26527.12
852.066	26279.12
852.313	25873.12
852.56	25600.12
852.807	25629.12
853.054	25488.12
853.301	25381.12
853.548	25413.12
853.794	25494.12
854.041	25554.12
854.288	25657.12
854.534	25879.12
854.781	25795.12
855.028	25667.12
855.274	25607.12
855.52	25455.12
855.767	25340.12
856.013	25189.12
856.26	25566.12
856.506	24915.12
856.752	24979.12
856.998	24968.12
857.244	25021.12
857.49	25247.12
857.736	25110.12
857.982	25148.12
858.228	25041.12
858.474	24795.12
858.72	24821.12
858.966	24500.12
859.212	24365.12
859.458	24109.12
859.703	23796.12
859.949	23615.12
860.195	23351.12
860.44	23280.12
860.686	23133.12
860.931	23127.12
861.177	22949.12
861.422	22830.12
861.667	22843.12
861.913	22917.12
862.158	22851.12
862.403	23021.12
862.648	23010.12
862.893	22992.12
863.138	23004.12
863.384	22878.12
863.629	22938.12
863.873	22939.12
864.118	22815.12
864.363	22644.12
864.608	22567.12
864.853	22521.12
865.098	22385.12
865.342	22202.12
865.587	22175.12
865.832	22139.12
866.076	22099.12
866.321	22004.12
866.565	21962.12
866.81	21744.12
867.054	21642.12
867.298	21661.12
867.543	21501.12
867.787	21502.12
868.031	21453.12
868.275	21456.12
868.519	21341.12
868.764	21229.12
869.008	21247.12
869.252	21239.12
869.496	20957.12
869.739	20994.12
869.983	21037.12
870.227	20989.12
870.471	20840.12
870.715	20955.12
870.958	20936.12
871.202	20958.12
871.446	21072.12
871.689	20973.12
871.933	20882.12
872.176	21037.12
872.42	20808.12
872.663	20880.12
872.906	20794.12
873.15	20610.12
873.393	20431.12
873.636	20428.12
873.879	20224.12
874.122	20029.12
874.366	19788.12
874.609	19707.12
874.852	19635.12
875.095	19418.12
875.337	19368.12
875.58	19334.12
875.823	19163.12
876.066	19163.12
876.309	19171.12
876.551	18942.12
876.794	18884.12
877.037	18939.12
877.279	18831.12
877.522	18861.12
877.764	18894.12
878.007	18798.12
878.249	18874.12
878.491	18763.12
878.734	18822.12
878.976	18677.12
879.218	18570.12
879.46	18445.12
879.702	18404.12
879.945	18147.12
880.187	18031.12
880.429	17938.12
880.671	17768.12
880.912	17744.12
881.154	17796.12
881.396	17575.12
881.638	17606.12
881.88	17652.12
882.121	17508.12
882.363	17607.12
882.605	17509.12
882.846	17490.12
883.088	17425.12
883.329	17183.12
883.571	17287.12
883.812	17274.12
884.053	17404.12
884.295	17616.12
884.536	17647.12
884.777	17492.12
885.018	17516.12
885.259	17411.12
885.5	17348.12
885.742	17530.12
885.982	17191.12
886.223	17196.12
886.464	17037.12
886.705	16908.12
886.946	16810.12
887.187	16540.12
887.428	16577.12
887.668	16365.12
887.909	16204.12
888.15	16101.12
888.39	16036.12
888.631	15876.12
888.871	15710.12
889.111	15696.12
889.352	15553.12
889.592	15452.12
889.833	15243.12
890.073	15295.12
890.313	15152.12
890.553	15020.12
890.793	14857.12
891.033	14823.12
891.273	14790.12
891.513	14785.12
891.753	14602.12
891.993	14670.12
892.233	14696.12
892.473	14732.12
892.713	14765.12
892.952	14632.12
893.192	14669.12
893.432	14705.12
893.671	14644.12
893.911	14559.12
894.15	14402.12
894.39	14311.12
894.629	14238.12
894.869	14208.12
895.108	14131.12
895.347	13941.12
895.587	13982.12
895.826	13947.12
896.065	13881.12
896.304	13819.12
896.543	13819.12
896.782	13706.12
897.021	13707.12
897.26	13652.12
897.499	13665.12
897.738	13596.12
897.977	13481.12
898.216	13304.12
898.454	13170.12
898.693	13087.12
898.932	13070.12
899.17	12987.12
899.409	13052.12
899.647	12868.12
899.886	12888.12
900.124	12877.12
900.363	12797.12
900.601	12919.12
900.839	12833.12
901.078	12894.12
901.316	12832.12
901.554	12960.12
901.792	12943.12
902.03	12888.12
902.268	12865.12
902.506	12805.12
902.744	12847.12
902.982	12709.12
903.22	12596.12
903.458	12385.12
903.695	12311.12
903.933	12176.12
904.171	12053.12
904.409	11829.12
904.646	11673.12
904.884	11519.12
905.121	11460.12
905.359	11315.12
905.596	11242.12
905.833	11177.12
906.071	11049.12
906.308	11136.12
906.545	11001.12
906.783	10943.12
907.02	10949.12
907.257	10903.12
907.494	10907.12
907.731	10851.12
907.968	10834.12
908.205	10736.12
908.442	10656.12
908.679	10540.12
908.915	10558.12
909.152	10475.12
909.389	10353.12
909.626	10292.12
909.862	10161.12
910.099	10237.12
910.335	10205.12
910.572	10043.12
910.808	10041.12
911.045	9986.12
911.281	9966.12
911.518	10046.12
911.754	9827.12
911.99	9916.12
912.226	9759.12
912.463	9671.12
912.699	9535.12
912.935	9547.12
913.171	9481.12
913.407	9354.12
913.643	9418.12
913.879	9242.12
914.114	9136.12
914.35	9068.12
914.586	8964.12
914.822	8860.12
915.057	8922.12
915.293	8756.12
915.529	8655.12
915.764	8721.12
916	8698.12
916.235	8690.12
916.471	8650.12
916.706	8535.12
916.941	8554.12
917.177	8493.12
917.412	8561.12
917.647	8556.12
917.882	8528.12
918.117	8484.12
918.352	8479.12
918.588	8521.12
918.823	8345.12
919.057	8268.12
919.292	8073.12
919.527	8189.12
919.762	8029.12
919.997	8022.12
920.232	7804.12
920.466	7852.12
920.701	7659.12
920.935	7705.12
921.17	7617.12
921.405	7544.12
921.639	7612.12
921.873	7541.12
922.108	7591.12
922.342	7486.12
922.576	7366.12
922.811	7390.12
923.045	7432.12
923.279	7431.12
923.513	7270.12
923.747	7305.12
923.981	7206.12
924.215	7157.12
924.449	7111.12
924.683	7001.12
924.917	7092.12
925.151	6935.12
925.385	6972.12
925.618	6917.12
925.852	6950.12
926.086	6897.12
926.319	6966.12
926.553	6832.12
926.786	6903.12
927.02	6832.12
927.253	6870.12
927.486	6878.12
927.72	6823.12
927.953	6801.12
928.186	6772.12
928.42	6784.12
928.653	6675.12
928.886	6622.12
929.119	6668.12
929.352	6602.12
929.585	6605.12
929.818	6511.12
930.051	6468.12
930.284	6479.12
930.516	6313.12
930.749	6274.12
930.982	6353.12
931.215	6319.12
931.447	6154.12
931.68	6208.12
931.912	6134.12
932.145	6135.12
932.377	6137.12
932.61	6255.12
932.842	6062.12
933.074	6170.12
933.307	6018.12
933.539	6107.12
933.771	6176.12
934.003	6091.12
934.236	6133.12
934.468	6135.12
934.7	6085.12
934.932	6113.12
935.164	5973.12
935.395	6016.12
935.627	6049.12
935.859	5922.12
936.091	5866.12
936.323	5951.12
936.554	5926.12
936.786	5819.12
937.017	5806.12
937.249	5831.12
937.481	5693.12
937.712	5749.12
937.943	5732.12
938.175	5736.12
938.406	5740.12
938.637	5818.12
938.869	5690.12
939.1	5683.12
939.331	5679.12
939.562	5654.12
939.793	5636.12
940.024	5640.12
940.255	5610.12
940.486	5552.12
940.717	5527.12
940.948	5529.12
941.179	5476.12
941.409	5477.12
941.64	5460.12
941.871	5449.12
942.102	5415.12
942.332	5414.12
942.563	5446.12
942.793	5440.12
943.024	5375.12
943.254	5387.12
943.484	5483.12
943.715	5439.12
943.945	5400.12
944.175	5308.12
944.405	5321.12
944.636	5342.12
944.866	5387.12
945.096	5360.12
945.326	5278.12
945.556	5337.12
945.786	5304.12
946.016	5246.12
946.245	5203.12
946.475	5160.12
946.705	5121.12
946.935	5122.12
947.164	5062.12
947.394	5053.12
947.624	5019.12
947.853	5040.12
948.083	4999.12
948.312	4964.12
948.542	4899.12
948.771	4861.12
949	4846.12
949.23	4896.12
949.459	4895.12
949.688	4895.12
949.917	4841.12
950.146	4815.12
950.375	4945.12
950.604	4816.12
950.833	4863.12
951.062	4851.12
951.291	4817.12
951.52	4756.12
951.749	4808.12
951.978	4744.12
952.206	4765.12
952.435	4712.12
952.664	4708.12
952.892	4732.12
953.121	4681.12
953.349	4740.12
953.578	4668.12
953.806	4655.12
954.035	4600.12
954.263	4598.12
954.491	4563.12
954.719	4550.12
954.948	4486.12
955.176	4478.12
955.404	4430.12
955.632	4430.12
955.86	4434.12
956.088	4466.12
956.316	4373.12
956.544	4415.12
956.772	4333.12
956.999	4338.12
957.227	4376.12
957.455	4271.12
957.683	4208.12
957.91	4189.12
958.138	4153.12
958.365	4123.12
958.593	4121.12
958.82	4113.12
959.048	4162.12
959.275	4122.12
959.502	4109.12
959.73	4086.12
959.957	4072.12
960.184	4109.12
960.411	4047.12
960.638	4089.12
960.865	4063.12
961.092	4066.12
961.319	3996.12
961.546	4054.12
961.773	4058.12
962	4013.12
962.227	4041.12
962.454	4032.12
962.68	4008.12
962.907	3982.12
963.134	3933.12
963.36	3915.12
963.587	3920.12
963.813	3832.12
964.04	3840.12
964.266	3806.12
964.493	3832.12
964.719	3816.12
964.945	3817.12
965.171	3665.12
965.398	3733.12
965.624	3739.12
965.85	3665.12
966.076	3667.12
966.302	3659.12
966.528	3630.12
966.754	3678.12
966.98	3595.12
967.206	3655.12
967.431	3523.12
967.657	3639.12
967.883	3573.12
968.109	3568.12
968.334	3554.12
968.56	3520.12
968.785	3497.12
969.011	3473.12
969.236	3544.12
969.462	3425.12
969.687	3483.12
969.912	3453.12
970.138	3504.12
970.363	3398.12
970.588	3433.12
970.813	3413.12
971.038	3366.12
971.263	3379.12
971.488	3348.12
971.713	3390.12
971.938	3366.12
972.163	3300.12
972.388	3287.12
972.613	3316.12
972.838	3254.12
973.062	3263.12
973.287	3235.12
973.512	3165.12
973.736	3223.12
973.961	3175.12
974.185	3125.12
974.41	3171.12
974.634	3084.12
974.858	3093.12
975.083	3091.12
975.307	3133.12
975.531	3000.12
975.755	2994.12
975.98	3036.12
976.204	2924.12
976.428	2932.12
976.652	2959.12
976.876	2905.12
977.1	2944.12
977.324	2885.12
977.547	2937.12
977.771	2924.12
977.995	2883.12
978.219	2847.12
978.442	2969.12
978.666	2886.12
978.89	2906.12
979.113	2846.12
979.337	2834.12
979.56	2808.12
979.783	2885.12
980.007	2756.12
980.23	2810.12
980.453	2752.12
980.677	2791.12
980.9	2775.12
981.123	2699.12
981.346	2767.12
981.569	2684.12
981.792	2781.12
982.015	2710.12
982.238	2673.12
982.461	2678.12
982.684	2629.12
982.907	2591.12
983.129	2579.12
983.352	2655.12
983.575	2613.12
983.797	2603.12
984.02	2557.12
984.242	2550.12
984.465	2531.12
984.687	2569.12
984.91	2574.12
985.132	2543.12
985.354	2580.12
985.577	2517.12
985.799	2514.12
986.021	2393.12
986.243	2465.12
986.465	2419.12
986.687	2479.12
986.909	2529.12
987.131	2433.12
987.353	2380.12
987.575	2453.12
987.797	2377.12
988.019	2378.12
988.241	2383.12
988.462	2372.12
988.684	2431.12
988.906	2441.12
989.127	2427.12
989.349	2298.12
989.57	2364.12
989.792	2373.12
990.013	2381.12
990.234	2401.12
990.456	2372.12
990.677	2337.12
990.898	2313.12
991.119	2334.12
991.341	2341.12
991.562	2235.12
991.783	2281.12
992.004	2211.12
992.225	2200.12
992.446	2245.12
992.667	2152.12
992.887	2253.12
993.108	2133.12
993.329	2246.12
993.55	2209.12
993.77	2144.12
993.991	2102.12
994.212	2177.12
994.432	2106.12
994.653	2159.12
994.873	2109.12
995.093	1997.12
995.314	2058.12
995.534	2109.12
995.754	2129.12
995.975	2121.12
996.195	2043.12
996.415	2065.12
996.635	2064.12
996.855	2057.12
997.075	2028.12
997.295	2048.12
997.515	2001.12
997.735	2056.12
997.955	2022.12
998.174	1997.12
998.394	1998.12
998.614	2022.12
998.834	1937.12
999.053	2051.12
999.273	2035.12
999.492	2030.12
999.712	1985.12
999.931	1947.12
1000.151	1980.12
1000.37	1974.12
1000.589	2003.12
1000.809	1938.12
1001.028	2002.12
1001.247	1993.12
1001.466	1837.12
1001.685	1994.12
1001.904	1933.12
1002.123	1898.12
1002.342	1929.12
1002.561	1860.12
1002.78	1889.12
1002.999	1959.12
1003.218	1876.12
1003.436	1840.12
1003.655	1898.12
1003.874	1820.12
1004.092	1831.12
1004.311	1888.12
1004.53	1797.12
1004.748	1950.12
1004.966	1805.12
1005.185	1863.12
1005.403	1878.12
1005.622	1843.12
1005.84	1878.12
1006.058	1809.12
1006.276	1810.12
1006.494	2187.12
1006.712	1799.12
1006.931	1881.12
1007.149	1772.12
1007.367	1788.12
1007.584	1826.12
1007.802	1829.12
1008.02	1797.12
1008.238	1899.12
1008.456	1875.12
1008.673	1738.12
1008.891	1865.12
1009.109	1795.12
1009.326	1836.12
1009.544	1918.12
1009.761	1823.12
1009.979	1918.12
1010.196	1927.12
1010.413	2020.12
1010.631	2048.12
1010.848	2080.12
1011.065	2088.12
1011.282	2004.12
1011.5	1974.12
1011.717	2044.12
1011.934	2010.12
1012.151	2052.12
1012.368	2016.12
1012.585	1952.12
1012.801	1987.12
1013.018	1967.12
1013.235	1908.12
1013.452	1920.12
1013.669	1969.12
1013.885	1952.12
1014.102	1988.12
1014.318	1907.12
1014.535	1886.12
1014.751	1910.12
1014.968	1933.12
1015.184	1911.12
1015.401	1835.12
1015.617	1830.12
1015.833	1804.12
1016.049	1811.12
1016.266	1813.12
1016.482	1800.12
1016.698	1731.12
1016.914	1770.12
1017.13	1731.12
1017.346	1709.12
1017.562	1777.12
1017.778	1715.12
1017.993	1661.12
1018.209	1722.12
1018.425	1680.12
1018.641	1667.12
1018.856	1630.12
1019.072	1666.12
1019.288	1703.12
1019.503	1664.12
1019.719	1565.12
1019.934	1577.12
1020.149	1657.12
1020.365	1622.12
1020.58	1549.12
1020.795	1591.12
1021.011	1526.12
1021.226	1528.12
1021.441	1513.12
1021.656	1464.12
1021.871	1378.12
1022.086	1377.12
1022.301	1398.12
1022.516	1367.12
1022.731	1399.12
1022.946	1328.12
1023.16	1268.12
1023.375	1278.12
1023.59	1227.12
1023.804	1206.12
1024.019	1333.12
1024.234	1177.12
1024.448	1222.12
1024.663	1145.12
1024.877	1138.12
1025.092	1157.12
1025.306	1169.12
1025.52	1055.12
1025.734	1143.12
1025.949	1051.12
1026.163	1014.12
1026.377	989.12
1026.591	1027.12
1026.805	948.12
1027.019	940.12
1027.233	904.12
1027.447	852.12
1027.661	947.12
1027.875	878.12
1028.088	889.12
1028.302	813.12
1028.516	805.12
1028.73	796.12
1028.943	771.12
1029.157	730.12
1029.37	683.12
1029.584	-1.88
1029.797	-3.88
1030.011	-0.88
1030.224	0.12
