Data from QEP037381__556__17-47-26-378.txt Node

Date: Fri Dec 16 17:47:26 EST 2022
User: dcclab
Spectrometer: QEP03738
Trigger mode: 4
Integration Time (sec): 1.000000E1
Scans to average: 1
Electric dark correction enabled: true
Nonlinearity correction enabled: false
Boxcar width: 0
XAxis mode: Wavelengths
Number of Pixels in Spectrum: 1044
>>>>>Begin Spectral Data<<<<<
784.041	17.25
784.3	3.25
784.558	-1.75
784.817	-2.75
785.075	128029.25
785.334	20958.25
785.592	9444.25
785.851	6402.25
786.109	4785.25
786.368	3737.25
786.626	2987.25
786.884	2495.25
787.143	2064.25
787.401	1716.25
787.659	1545.25
787.917	1344.25
788.175	1200.25
788.433	1041.25
788.691	955.25
788.949	865.25
789.207	823.25
789.465	717.25
789.723	700.25
789.98	652.25
790.238	656.25
790.496	620.25
790.753	608.25
791.011	640.25
791.268	584.25
791.526	568.25
791.783	564.25
792.041	559.25
792.298	463.25
792.556	521.25
792.813	495.25
793.07	475.25
793.327	442.25
793.584	544.25
793.841	476.25
794.099	472.25
794.356	529.25
794.613	447.25
794.869	489.25
795.126	438.25
795.383	422.25
795.64	452.25
795.897	411.25
796.153	475.25
796.41	451.25
796.667	437.25
796.923	432.25
797.18	431.25
797.436	464.25
797.693	452.25
797.949	477.25
798.206	504.25
798.462	411.25
798.718	486.25
798.974	466.25
799.231	497.25
799.487	491.25
799.743	497.25
799.999	516.25
800.255	534.25
800.511	514.25
800.767	549.25
801.023	550.25
801.279	574.25
801.534	625.25
801.79	665.25
802.046	685.25
802.302	826.25
802.557	947.25
802.813	1163.25
803.068	1433.25
803.324	1995.25
803.579	2744.25
803.835	3845.25
804.09	5271.25
804.345	6943.25
804.601	8734.25
804.856	10625.25
805.111	12187.25
805.366	13570.25
805.621	14403.25
805.876	15106.25
806.131	15388.25
806.386	15684.25
806.641	15884.25
806.896	16184.25
807.151	16602.25
807.406	16743.25
807.661	16976.25
807.915	17278.25
808.17	17490.25
808.425	17722.25
808.679	17762.25
808.934	18032.25
809.188	18127.25
809.443	18308.25
809.697	18594.25
809.951	18674.25
810.206	18745.25
810.46	19007.25
810.714	19130.25
810.968	19331.25
811.223	19315.25
811.477	19601.25
811.731	19615.25
811.985	19741.25
812.239	19846.25
812.493	19986.25
812.747	20002.25
813	19962.25
813.254	20145.25
813.508	20155.25
813.762	20216.25
814.015	20331.25
814.269	20435.25
814.522	20595.25
814.776	20868.25
815.03	21113.25
815.283	21432.25
815.536	21733.25
815.79	21882.25
816.043	22331.25
816.296	22576.25
816.55	22649.25
816.803	23024.25
817.056	23303.25
817.309	23456.25
817.562	23735.25
817.815	23890.25
818.068	24091.25
818.321	24379.25
818.574	24467.25
818.827	24792.25
819.079	25199.25
819.332	25579.25
819.585	25832.25
819.838	26273.25
820.09	26374.25
820.343	26610.25
820.595	26666.25
820.848	26787.25
821.1	26828.25
821.353	26875.25
821.605	26806.25
821.857	26807.25
822.11	26695.25
822.362	26524.25
822.614	26520.25
822.866	26662.25
823.118	26528.25
823.37	26663.25
823.622	26771.25
823.874	26714.25
824.126	26808.25
824.378	26830.25
824.63	26810.25
824.882	26999.25
825.134	26960.25
825.385	26898.25
825.637	26829.25
825.888	26704.25
826.14	26595.25
826.392	26527.25
826.643	26336.25
826.895	26316.25
827.146	26162.25
827.397	25981.25
827.649	26088.25
827.9	26018.25
828.151	26051.25
828.402	26038.25
828.653	26126.25
828.905	26245.25
829.156	26192.25
829.407	26189.25
829.658	26164.25
829.909	26137.25
830.159	26185.25
830.41	26092.25
830.661	25964.25
830.912	25677.25
831.162	25583.25
831.413	25523.25
831.664	25470.25
831.914	25550.25
832.165	25523.25
832.415	25508.25
832.666	25474.25
832.916	25415.25
833.167	25350.25
833.417	25351.25
833.667	25352.25
833.917	25036.25
834.168	25140.25
834.418	24948.25
834.668	24876.25
834.918	24846.25
835.168	24648.25
835.418	24531.25
835.668	24502.25
835.918	24600.25
836.167	24390.25
836.417	24273.25
836.667	24335.25
836.917	24216.25
837.166	24197.25
837.416	24295.25
837.666	24034.25
837.915	24116.25
838.165	23985.25
838.414	23852.25
838.663	23759.25
838.913	23773.25
839.162	23715.25
839.411	23767.25
839.661	23507.25
839.91	23590.25
840.159	23408.25
840.408	23519.25
840.657	23470.25
840.906	23414.25
841.155	23529.25
841.404	23269.25
841.653	23478.25
841.902	23323.25
842.15	23465.25
842.399	23436.25
842.648	23361.25
842.897	23298.25
843.145	23136.25
843.394	23046.25
843.642	22879.25
843.891	22879.25
844.139	22652.25
844.388	22540.25
844.636	22485.25
844.884	22477.25
845.133	22380.25
845.381	22260.25
845.629	22248.25
845.877	22213.25
846.125	22223.25
846.373	22106.25
846.621	22090.25
846.869	22086.25
847.117	21843.25
847.365	21781.25
847.613	21574.25
847.861	21600.25
848.108	21613.25
848.356	21417.25
848.604	21419.25
848.851	21432.25
849.099	21404.25
849.346	21486.25
849.594	21547.25
849.841	21730.25
850.089	21583.25
850.336	21505.25
850.583	21626.25
850.831	21416.25
851.078	21275.25
851.325	21205.25
851.572	21321.25
851.819	21124.25
852.066	20725.25
852.313	20446.25
852.56	20223.25
852.807	20214.25
853.054	20160.25
853.301	20197.25
853.548	20112.25
853.794	20275.25
854.041	20357.25
854.288	20407.25
854.534	20532.25
854.781	20454.25
855.028	20394.25
855.274	20362.25
855.52	20250.25
855.767	20039.25
856.013	20104.25
856.26	20387.25
856.506	19903.25
856.752	19880.25
856.998	19867.25
857.244	19974.25
857.49	20015.25
857.736	20020.25
857.982	20056.25
858.228	19948.25
858.474	19829.25
858.72	19690.25
858.966	19557.25
859.212	19379.25
859.458	19109.25
859.703	18954.25
859.949	18763.25
860.195	18693.25
860.44	18549.25
860.686	18426.25
860.931	18424.25
861.177	18232.25
861.422	18352.25
861.667	18188.25
861.913	18218.25
862.158	18214.25
862.403	18239.25
862.648	18305.25
862.893	18349.25
863.138	18361.25
863.384	18197.25
863.629	18188.25
863.873	18131.25
864.118	18149.25
864.363	17938.25
864.608	17929.25
864.853	17917.25
865.098	17793.25
865.342	17697.25
865.587	17543.25
865.832	17551.25
866.076	17577.25
866.321	17449.25
866.565	17489.25
866.81	17274.25
867.054	17246.25
867.298	17165.25
867.543	17195.25
867.787	17212.25
868.031	17104.25
868.275	17000.25
868.519	17057.25
868.764	17034.25
869.008	16989.25
869.252	16897.25
869.496	16753.25
869.739	16768.25
869.983	16764.25
870.227	16749.25
870.471	16682.25
870.715	16817.25
870.958	16732.25
871.202	16776.25
871.446	16669.25
871.689	16773.25
871.933	16770.25
872.176	16892.25
872.42	16691.25
872.663	16709.25
872.906	16692.25
873.15	16585.25
873.393	16486.25
873.636	16462.25
873.879	16231.25
874.122	16153.25
874.366	15949.25
874.609	15846.25
874.852	15676.25
875.095	15669.25
875.337	15557.25
875.58	15363.25
875.823	15460.25
876.066	15404.25
876.309	15381.25
876.551	15185.25
876.794	15152.25
877.037	15151.25
877.279	15020.25
877.522	15149.25
877.764	15076.25
878.007	15075.25
878.249	15014.25
878.491	14962.25
878.734	14956.25
878.976	14977.25
879.218	14803.25
879.46	14813.25
879.702	14641.25
879.945	14567.25
880.187	14391.25
880.429	14347.25
880.671	14247.25
880.912	14209.25
881.154	14206.25
881.396	14117.25
881.638	14065.25
881.88	14158.25
882.121	14031.25
882.363	13983.25
882.605	14056.25
882.846	13965.25
883.088	13891.25
883.329	13829.25
883.571	13908.25
883.812	13993.25
884.053	14137.25
884.295	14378.25
884.536	14456.25
884.777	14448.25
885.018	14337.25
885.259	14174.25
885.5	14204.25
885.742	14345.25
885.982	14136.25
886.223	13961.25
886.464	13894.25
886.705	13732.25
886.946	13736.25
887.187	13448.25
887.428	13476.25
887.668	13191.25
887.909	12935.25
888.15	12815.25
888.39	12769.25
888.631	12790.25
888.871	12673.25
889.111	12597.25
889.352	12507.25
889.592	12326.25
889.833	12216.25
890.073	12194.25
890.313	12111.25
890.553	11998.25
890.793	11909.25
891.033	11889.25
891.273	11787.25
891.513	11749.25
891.753	11771.25
891.993	11689.25
892.233	11796.25
892.473	11868.25
892.713	11823.25
892.952	11770.25
893.192	11818.25
893.432	11760.25
893.671	11809.25
893.911	11682.25
894.15	11566.25
894.39	11511.25
894.629	11441.25
894.869	11433.25
895.108	11283.25
895.347	11244.25
895.587	11217.25
895.826	11188.25
896.065	11077.25
896.304	11206.25
896.543	11160.25
896.782	11024.25
897.021	11047.25
897.26	10970.25
897.499	11027.25
897.738	10964.25
897.977	10867.25
898.216	10714.25
898.454	10702.25
898.693	10673.25
898.932	10590.25
899.17	10518.25
899.409	10441.25
899.647	10413.25
899.886	10368.25
900.124	10447.25
900.363	10365.25
900.601	10379.25
900.839	10419.25
901.078	10404.25
901.316	10481.25
901.554	10455.25
901.792	10584.25
902.03	10497.25
902.268	10468.25
902.506	10480.25
902.744	10418.25
902.982	10383.25
903.22	10229.25
903.458	10088.25
903.695	9962.25
903.933	9898.25
904.171	9758.25
904.409	9524.25
904.646	9535.25
904.884	9296.25
905.121	9285.25
905.359	9222.25
905.596	9116.25
905.833	9008.25
906.071	9007.25
906.308	9021.25
906.545	8958.25
906.783	8866.25
907.02	8912.25
907.257	8779.25
907.494	8770.25
907.731	8756.25
907.968	8689.25
908.205	8631.25
908.442	8632.25
908.679	8493.25
908.915	8531.25
909.152	8480.25
909.389	8316.25
909.626	8273.25
909.862	8256.25
910.099	8188.25
910.335	8249.25
910.572	8112.25
910.808	8136.25
911.045	8060.25
911.281	8031.25
911.518	8043.25
911.754	7981.25
911.99	7913.25
912.226	7786.25
912.463	7828.25
912.699	7758.25
912.935	7705.25
913.171	7676.25
913.407	7547.25
913.643	7564.25
913.879	7448.25
914.114	7463.25
914.35	7298.25
914.586	7199.25
914.822	7131.25
915.057	7181.25
915.293	7052.25
915.529	7016.25
915.764	7121.25
916	6998.25
916.235	7010.25
916.471	7038.25
916.706	6836.25
916.941	6988.25
917.177	6918.25
917.412	6962.25
917.647	7005.25
917.882	6901.25
918.117	6883.25
918.352	6819.25
918.588	6914.25
918.823	6761.25
919.057	6753.25
919.292	6602.25
919.527	6623.25
919.762	6517.25
919.997	6523.25
920.232	6364.25
920.466	6402.25
920.701	6298.25
920.935	6284.25
921.17	6215.25
921.405	6136.25
921.639	6178.25
921.873	6127.25
922.108	6147.25
922.342	6106.25
922.576	6015.25
922.811	6015.25
923.045	6033.25
923.279	6000.25
923.513	5902.25
923.747	5909.25
923.981	5849.25
924.215	5824.25
924.449	5775.25
924.683	5690.25
924.917	5771.25
925.151	5658.25
925.385	5705.25
925.618	5674.25
925.852	5672.25
926.086	5543.25
926.319	5579.25
926.553	5611.25
926.786	5610.25
927.02	5568.25
927.253	5594.25
927.486	5551.25
927.72	5462.25
927.953	5551.25
928.186	5454.25
928.42	5512.25
928.653	5459.25
928.886	5414.25
929.119	5400.25
929.352	5386.25
929.585	5414.25
929.818	5232.25
930.051	5282.25
930.284	5248.25
930.516	5161.25
930.749	5171.25
930.982	5118.25
931.215	5086.25
931.447	5074.25
931.68	5029.25
931.912	4992.25
932.145	4983.25
932.377	5017.25
932.61	5151.25
932.842	4961.25
933.074	5034.25
933.307	4956.25
933.539	5059.25
933.771	5052.25
934.003	4920.25
934.236	5028.25
934.468	5018.25
934.7	4924.25
934.932	4989.25
935.164	4898.25
935.395	4899.25
935.627	4863.25
935.859	4858.25
936.091	4803.25
936.323	4900.25
936.554	4842.25
936.786	4843.25
937.017	4749.25
937.249	4787.25
937.481	4685.25
937.712	4798.25
937.943	4707.25
938.175	4697.25
938.406	4664.25
938.637	4806.25
938.869	4649.25
939.1	4708.25
939.331	4578.25
939.562	4655.25
939.793	4678.25
940.024	4654.25
940.255	4671.25
940.486	4592.25
940.717	4528.25
940.948	4479.25
941.179	4467.25
941.409	4459.25
941.64	4463.25
941.871	4482.25
942.102	4424.25
942.332	4480.25
942.563	4478.25
942.793	4443.25
943.024	4410.25
943.254	4447.25
943.484	4457.25
943.715	4455.25
943.945	4438.25
944.175	4377.25
944.405	4346.25
944.636	4369.25
944.866	4413.25
945.096	4384.25
945.326	4285.25
945.556	4368.25
945.786	4346.25
946.016	4296.25
946.245	4222.25
946.475	4215.25
946.705	4217.25
946.935	4184.25
947.164	4182.25
947.394	4156.25
947.624	4157.25
947.853	4133.25
948.083	4082.25
948.312	4041.25
948.542	4021.25
948.771	4012.25
949	4013.25
949.23	3996.25
949.459	4030.25
949.688	4081.25
949.917	4001.25
950.146	4021.25
950.375	4047.25
950.604	3910.25
950.833	4055.25
951.062	4010.25
951.291	3942.25
951.52	3931.25
951.749	3916.25
951.978	3893.25
952.206	3862.25
952.435	3867.25
952.664	3898.25
952.892	3884.25
953.121	3834.25
953.349	3919.25
953.578	3863.25
953.806	3789.25
954.035	3707.25
954.263	3794.25
954.491	3677.25
954.719	3716.25
954.948	3688.25
955.176	3688.25
955.404	3636.25
955.632	3669.25
955.86	3655.25
956.088	3628.25
956.316	3610.25
956.544	3666.25
956.772	3552.25
956.999	3562.25
957.227	3614.25
957.455	3492.25
957.683	3519.25
957.91	3457.25
958.138	3397.25
958.365	3412.25
958.593	3436.25
958.82	3367.25
959.048	3428.25
959.275	3391.25
959.502	3410.25
959.73	3316.25
959.957	3399.25
960.184	3385.25
960.411	3341.25
960.638	3408.25
960.865	3351.25
961.092	3375.25
961.319	3269.25
961.546	3343.25
961.773	3382.25
962	3344.25
962.227	3354.25
962.454	3287.25
962.68	3267.25
962.907	3334.25
963.134	3256.25
963.36	3220.25
963.587	3229.25
963.813	3167.25
964.04	3204.25
964.266	3115.25
964.493	3204.25
964.719	3159.25
964.945	3170.25
965.171	3023.25
965.398	3148.25
965.624	3121.25
965.85	3012.25
966.076	3031.25
966.302	3059.25
966.528	3005.25
966.754	3039.25
966.98	3010.25
967.206	3027.25
967.431	2906.25
967.657	3015.25
967.883	3045.25
968.109	2971.25
968.334	2878.25
968.56	2929.25
968.785	2916.25
969.011	2888.25
969.236	2952.25
969.462	2850.25
969.687	2885.25
969.912	2890.25
970.138	2955.25
970.363	2802.25
970.588	2851.25
970.813	2830.25
971.038	2786.25
971.263	2835.25
971.488	2843.25
971.713	2829.25
971.938	2814.25
972.163	2713.25
972.388	2726.25
972.613	2713.25
972.838	2760.25
973.062	2680.25
973.287	2703.25
973.512	2659.25
973.736	2688.25
973.961	2641.25
974.185	2641.25
974.41	2667.25
974.634	2574.25
974.858	2594.25
975.083	2597.25
975.307	2635.25
975.531	2555.25
975.755	2539.25
975.98	2533.25
976.204	2458.25
976.428	2463.25
976.652	2470.25
976.876	2443.25
977.1	2476.25
977.324	2405.25
977.547	2473.25
977.771	2456.25
977.995	2427.25
978.219	2375.25
978.442	2495.25
978.666	2457.25
978.89	2449.25
979.113	2379.25
979.337	2372.25
979.56	2350.25
979.783	2431.25
980.007	2343.25
980.23	2367.25
980.453	2317.25
980.677	2333.25
980.9	2330.25
981.123	2233.25
981.346	2335.25
981.569	2293.25
981.792	2302.25
982.015	2232.25
982.238	2218.25
982.461	2241.25
982.684	2209.25
982.907	2190.25
983.129	2175.25
983.352	2219.25
983.575	2175.25
983.797	2193.25
984.02	2144.25
984.242	2179.25
984.465	2154.25
984.687	2170.25
984.91	2164.25
985.132	2150.25
985.354	2186.25
985.577	2144.25
985.799	2133.25
986.021	2034.25
986.243	2036.25
986.465	2075.25
986.687	2126.25
986.909	2144.25
987.131	2066.25
987.353	2060.25
987.575	2058.25
987.797	2063.25
988.019	1955.25
988.241	2050.25
988.462	1958.25
988.684	2034.25
988.906	2073.25
989.127	2092.25
989.349	1979.25
989.57	2013.25
989.792	2043.25
990.013	2064.25
990.234	2033.25
990.456	2048.25
990.677	2010.25
990.898	1956.25
991.119	1990.25
991.341	1975.25
991.562	1935.25
991.783	1978.25
992.004	1898.25
992.225	1842.25
992.446	1938.25
992.667	1855.25
992.887	1901.25
993.108	1806.25
993.329	1922.25
993.55	1870.25
993.77	1809.25
993.991	1812.25
994.212	1868.25
994.432	1831.25
994.653	1853.25
994.873	1810.25
995.093	1718.25
995.314	1781.25
995.534	1816.25
995.754	1829.25
995.975	1854.25
996.195	1740.25
996.415	1809.25
996.635	1754.25
996.855	1774.25
997.075	1754.25
997.295	1748.25
997.515	1709.25
997.735	1771.25
997.955	1743.25
998.174	1757.25
998.394	1715.25
998.614	1741.25
998.834	1705.25
999.053	1790.25
999.273	1748.25
999.492	1794.25
999.712	1712.25
999.931	1697.25
1000.151	1725.25
1000.37	1709.25
1000.589	1755.25
1000.809	1665.25
1001.028	1784.25
1001.247	1708.25
1001.466	1607.25
1001.685	1741.25
1001.904	1685.25
1002.123	1667.25
1002.342	1666.25
1002.561	1610.25
1002.78	1641.25
1002.999	1687.25
1003.218	1663.25
1003.436	1636.25
1003.655	1653.25
1003.874	1602.25
1004.092	1614.25
1004.311	1664.25
1004.53	1610.25
1004.748	1697.25
1004.966	1603.25
1005.185	1650.25
1005.403	1649.25
1005.622	1607.25
1005.84	1677.25
1006.058	1598.25
1006.276	1618.25
1006.494	1985.25
1006.712	1611.25
1006.931	1662.25
1007.149	1578.25
1007.367	1607.25
1007.584	1630.25
1007.802	1675.25
1008.02	1619.25
1008.238	1711.25
1008.456	1706.25
1008.673	1592.25
1008.891	1656.25
1009.109	1623.25
1009.326	1693.25
1009.544	1769.25
1009.761	1675.25
1009.979	1752.25
1010.196	1753.25
1010.413	1903.25
1010.631	1897.25
1010.848	1949.25
1011.065	1955.25
1011.282	1918.25
1011.5	1856.25
1011.717	1933.25
1011.934	1887.25
1012.151	1942.25
1012.368	1876.25
1012.585	1851.25
1012.801	1874.25
1013.018	1843.25
1013.235	1825.25
1013.452	1826.25
1013.669	1843.25
1013.885	1826.25
1014.102	1875.25
1014.318	1844.25
1014.535	1787.25
1014.751	1847.25
1014.968	1828.25
1015.184	1864.25
1015.401	1769.25
1015.617	1781.25
1015.833	1736.25
1016.049	1731.25
1016.266	1709.25
1016.482	1697.25
1016.698	1655.25
1016.914	1702.25
1017.13	1622.25
1017.346	1638.25
1017.562	1695.25
1017.778	1622.25
1017.993	1574.25
1018.209	1644.25
1018.425	1612.25
1018.641	1601.25
1018.856	1554.25
1019.072	1588.25
1019.288	1614.25
1019.503	1558.25
1019.719	1508.25
1019.934	1485.25
1020.149	1561.25
1020.365	1517.25
1020.58	1478.25
1020.795	1503.25
1021.011	1411.25
1021.226	1409.25
1021.441	1423.25
1021.656	1347.25
1021.871	1289.25
1022.086	1292.25
1022.301	1284.25
1022.516	1259.25
1022.731	1290.25
1022.946	1212.25
1023.16	1211.25
1023.375	1176.25
1023.59	1180.25
1023.804	1107.25
1024.019	1211.25
1024.234	1101.25
1024.448	1132.25
1024.663	1040.25
1024.877	1071.25
1025.092	1050.25
1025.306	1099.25
1025.52	984.25
1025.734	1067.25
1025.949	973.25
1026.163	959.25
1026.377	894.25
1026.591	932.25
1026.805	857.25
1027.019	874.25
1027.233	830.25
1027.447	788.25
1027.661	893.25
1027.875	796.25
1028.088	820.25
1028.302	749.25
1028.516	730.25
1028.73	730.25
1028.943	710.25
1029.157	662.25
1029.37	627.25
1029.584	-2.75
1029.797	-4.75
1030.011	-5.75
1030.224	-2.75
