Data from QEP037381__567__17-49-16-380.txt Node

Date: Fri Dec 16 17:49:16 EST 2022
User: dcclab
Spectrometer: QEP03738
Trigger mode: 4
Integration Time (sec): 1.000000E1
Scans to average: 1
Electric dark correction enabled: true
Nonlinearity correction enabled: false
Boxcar width: 0
XAxis mode: Wavelengths
Number of Pixels in Spectrum: 1044
>>>>>Begin Spectral Data<<<<<
784.041	9.5
784.3	0.5
784.558	-3.5
784.817	-5.5
785.075	123263.5
785.334	20447.5
785.592	9330.5
785.851	6462.5
786.109	4810.5
786.368	3742.5
786.626	2991.5
786.884	2486.5
787.143	2094.5
787.401	1738.5
787.659	1570.5
787.917	1327.5
788.175	1226.5
788.433	1068.5
788.691	938.5
788.949	879.5
789.207	830.5
789.465	721.5
789.723	688.5
789.98	624.5
790.238	647.5
790.496	619.5
790.753	601.5
791.011	635.5
791.268	583.5
791.526	551.5
791.783	576.5
792.041	530.5
792.298	466.5
792.556	525.5
792.813	515.5
793.07	493.5
793.327	476.5
793.584	541.5
793.841	462.5
794.099	494.5
794.356	531.5
794.613	433.5
794.869	484.5
795.126	458.5
795.383	422.5
795.64	444.5
795.897	404.5
796.153	455.5
796.41	445.5
796.667	436.5
796.923	434.5
797.18	439.5
797.436	465.5
797.693	424.5
797.949	481.5
798.206	502.5
798.462	414.5
798.718	482.5
798.974	456.5
799.231	514.5
799.487	498.5
799.743	506.5
799.999	520.5
800.255	514.5
800.511	507.5
800.767	557.5
801.023	534.5
801.279	565.5
801.534	609.5
801.79	654.5
802.046	700.5
802.302	819.5
802.557	927.5
802.813	1158.5
803.068	1439.5
803.324	1981.5
803.579	2689.5
803.835	3725.5
804.09	5177.5
804.345	6817.5
804.601	8659.5
804.856	10462.5
805.111	12191.5
805.366	13506.5
805.621	14309.5
805.876	14936.5
806.131	15269.5
806.386	15516.5
806.641	15800.5
806.896	16049.5
807.151	16334.5
807.406	16526.5
807.661	16949.5
807.915	17255.5
808.17	17400.5
808.425	17560.5
808.679	17717.5
808.934	17925.5
809.188	18039.5
809.443	18219.5
809.697	18534.5
809.951	18604.5
810.206	18736.5
810.46	18983.5
810.714	19074.5
810.968	19256.5
811.223	19355.5
811.477	19496.5
811.731	19682.5
811.985	19647.5
812.239	19740.5
812.493	19966.5
812.747	19951.5
813	19926.5
813.254	20012.5
813.508	20160.5
813.762	20198.5
814.015	20233.5
814.269	20508.5
814.522	20598.5
814.776	20860.5
815.03	21147.5
815.283	21383.5
815.536	21720.5
815.79	21954.5
816.043	22368.5
816.296	22565.5
816.55	22839.5
816.803	23080.5
817.056	23328.5
817.309	23535.5
817.562	23704.5
817.815	23927.5
818.068	24049.5
818.321	24363.5
818.574	24572.5
818.827	24889.5
819.079	25199.5
819.332	25647.5
819.585	25909.5
819.838	26234.5
820.09	26391.5
820.343	26624.5
820.595	26859.5
820.848	26858.5
821.1	26998.5
821.353	26961.5
821.605	26964.5
821.857	27028.5
822.11	26739.5
822.362	26711.5
822.614	26512.5
822.866	26606.5
823.118	26651.5
823.37	26721.5
823.622	26707.5
823.874	26801.5
824.126	27055.5
824.378	26961.5
824.63	26995.5
824.882	27128.5
825.134	27064.5
825.385	26988.5
825.637	26852.5
825.888	26826.5
826.14	26718.5
826.392	26621.5
826.643	26506.5
826.895	26497.5
827.146	26137.5
827.397	26118.5
827.649	26237.5
827.9	26109.5
828.151	26224.5
828.402	26192.5
828.653	26197.5
828.905	26353.5
829.156	26369.5
829.407	26285.5
829.658	26280.5
829.909	26365.5
830.159	26254.5
830.41	26025.5
830.661	25954.5
830.912	25740.5
831.162	25625.5
831.413	25561.5
831.664	25575.5
831.914	25504.5
832.165	25456.5
832.415	25620.5
832.666	25560.5
832.916	25554.5
833.167	25431.5
833.417	25431.5
833.667	25324.5
833.917	25259.5
834.168	25188.5
834.418	25144.5
834.668	25082.5
834.918	24817.5
835.168	24854.5
835.418	24741.5
835.668	24641.5
835.918	24538.5
836.167	24549.5
836.417	24529.5
836.667	24348.5
836.917	24284.5
837.166	24277.5
837.416	24310.5
837.666	24175.5
837.915	24119.5
838.165	24110.5
838.414	23969.5
838.663	23947.5
838.913	23873.5
839.162	23706.5
839.411	23784.5
839.661	23682.5
839.91	23583.5
840.159	23513.5
840.408	23485.5
840.657	23410.5
840.906	23523.5
841.155	23579.5
841.404	23533.5
841.653	23503.5
841.902	23463.5
842.15	23485.5
842.399	23556.5
842.648	23396.5
842.897	23283.5
843.145	23261.5
843.394	22975.5
843.642	22953.5
843.891	22906.5
844.139	22787.5
844.388	22656.5
844.636	22482.5
844.884	22400.5
845.133	22447.5
845.381	22366.5
845.629	22387.5
845.877	22356.5
846.125	22269.5
846.373	22246.5
846.621	22110.5
846.869	22075.5
847.117	21926.5
847.365	21842.5
847.613	21783.5
847.861	21645.5
848.108	21616.5
848.356	21441.5
848.604	21395.5
848.851	21521.5
849.099	21561.5
849.346	21566.5
849.594	21518.5
849.841	21682.5
850.089	21517.5
850.336	21510.5
850.583	21537.5
850.831	21487.5
851.078	21436.5
851.325	21233.5
851.572	21362.5
851.819	21099.5
852.066	20651.5
852.313	20433.5
852.56	20349.5
852.807	20245.5
853.054	20131.5
853.301	20162.5
853.548	20195.5
853.794	20287.5
854.041	20320.5
854.288	20358.5
854.534	20524.5
854.781	20388.5
855.028	20382.5
855.274	20353.5
855.52	20114.5
855.767	20094.5
856.013	20173.5
856.26	20413.5
856.506	19888.5
856.752	19791.5
856.998	19901.5
857.244	19910.5
857.49	19981.5
857.736	20035.5
857.982	19979.5
858.228	19963.5
858.474	19736.5
858.72	19677.5
858.966	19485.5
859.212	19325.5
859.458	19179.5
859.703	18939.5
859.949	18775.5
860.195	18607.5
860.44	18504.5
860.686	18385.5
860.931	18433.5
861.177	18202.5
861.422	18263.5
861.667	18211.5
861.913	18197.5
862.158	18220.5
862.403	18327.5
862.648	18309.5
862.893	18387.5
863.138	18318.5
863.384	18336.5
863.629	18206.5
863.873	18200.5
864.118	18060.5
864.363	17995.5
864.608	17945.5
864.853	17863.5
865.098	17743.5
865.342	17764.5
865.587	17711.5
865.832	17566.5
866.076	17470.5
866.321	17323.5
866.565	17382.5
866.81	17315.5
867.054	17222.5
867.298	17276.5
867.543	17155.5
867.787	17135.5
868.031	17098.5
868.275	16929.5
868.519	16906.5
868.764	16868.5
869.008	16838.5
869.252	16896.5
869.496	16753.5
869.739	16678.5
869.983	16772.5
870.227	16663.5
870.471	16613.5
870.715	16688.5
870.958	16726.5
871.202	16690.5
871.446	16753.5
871.689	16696.5
871.933	16727.5
872.176	16727.5
872.42	16628.5
872.663	16554.5
872.906	16568.5
873.15	16478.5
873.393	16301.5
873.636	16352.5
873.879	16158.5
874.122	16011.5
874.366	15893.5
874.609	15716.5
874.852	15545.5
875.095	15532.5
875.337	15561.5
875.58	15323.5
875.823	15387.5
876.066	15363.5
876.309	15362.5
876.551	15204.5
876.794	15062.5
877.037	15063.5
877.279	14938.5
877.522	14997.5
877.764	15027.5
878.007	14996.5
878.249	15040.5
878.491	14941.5
878.734	14994.5
878.976	14946.5
879.218	14751.5
879.46	14734.5
879.702	14653.5
879.945	14535.5
880.187	14380.5
880.429	14260.5
880.671	14268.5
880.912	14141.5
881.154	14140.5
881.396	14001.5
881.638	13997.5
881.88	14009.5
882.121	13948.5
882.363	14010.5
882.605	13965.5
882.846	13859.5
883.088	13975.5
883.329	13764.5
883.571	13779.5
883.812	13859.5
884.053	13901.5
884.295	14101.5
884.536	14268.5
884.777	14122.5
885.018	14029.5
885.259	14023.5
885.5	13927.5
885.742	14172.5
885.982	13890.5
886.223	13785.5
886.464	13719.5
886.705	13595.5
886.946	13570.5
887.187	13322.5
887.428	13382.5
887.668	13078.5
887.909	12963.5
888.15	12798.5
888.39	12766.5
888.631	12694.5
888.871	12593.5
889.111	12553.5
889.352	12415.5
889.592	12260.5
889.833	12183.5
890.073	12159.5
890.313	12124.5
890.553	11956.5
890.793	11942.5
891.033	11854.5
891.273	11775.5
891.513	11712.5
891.753	11764.5
891.993	11706.5
892.233	11708.5
892.473	11855.5
892.713	11740.5
892.952	11728.5
893.192	11792.5
893.432	11720.5
893.671	11707.5
893.911	11622.5
894.15	11566.5
894.39	11424.5
894.629	11397.5
894.869	11342.5
895.108	11246.5
895.347	11204.5
895.587	11178.5
895.826	11028.5
896.065	11015.5
896.304	11074.5
896.543	11021.5
896.782	10953.5
897.021	10960.5
897.26	10868.5
897.499	11020.5
897.738	10943.5
897.977	10746.5
898.216	10749.5
898.454	10609.5
898.693	10508.5
898.932	10462.5
899.17	10426.5
899.409	10421.5
899.647	10399.5
899.886	10353.5
900.124	10389.5
900.363	10314.5
900.601	10405.5
900.839	10302.5
901.078	10384.5
901.316	10433.5
901.554	10379.5
901.792	10431.5
902.03	10365.5
902.268	10413.5
902.506	10430.5
902.744	10302.5
902.982	10268.5
903.22	10143.5
903.458	10017.5
903.695	9941.5
903.933	9815.5
904.171	9646.5
904.409	9450.5
904.646	9394.5
904.884	9249.5
905.121	9240.5
905.359	9064.5
905.596	9051.5
905.833	8854.5
906.071	8915.5
906.308	8868.5
906.545	8890.5
906.783	8727.5
907.02	8799.5
907.257	8788.5
907.494	8768.5
907.731	8742.5
907.968	8720.5
908.205	8608.5
908.442	8574.5
908.679	8512.5
908.915	8463.5
909.152	8384.5
909.389	8249.5
909.626	8248.5
909.862	8241.5
910.099	8179.5
910.335	8126.5
910.572	8014.5
910.808	8042.5
911.045	8014.5
911.281	7973.5
911.518	8019.5
911.754	7900.5
911.99	7907.5
912.226	7841.5
912.463	7791.5
912.699	7680.5
912.935	7624.5
913.171	7653.5
913.407	7562.5
913.643	7517.5
913.879	7458.5
914.114	7319.5
914.35	7265.5
914.586	7216.5
914.822	7116.5
915.057	7196.5
915.293	7033.5
915.529	6901.5
915.764	7091.5
916	6965.5
916.235	6938.5
916.471	6981.5
916.706	6854.5
916.941	6914.5
917.177	6838.5
917.412	6935.5
917.647	6921.5
917.882	6814.5
918.117	6886.5
918.352	6871.5
918.588	6851.5
918.823	6758.5
919.057	6609.5
919.292	6467.5
919.527	6595.5
919.762	6409.5
919.997	6452.5
920.232	6318.5
920.466	6299.5
920.701	6177.5
920.935	6198.5
921.17	6062.5
921.405	6060.5
921.639	6154.5
921.873	6092.5
922.108	5995.5
922.342	6039.5
922.576	6011.5
922.811	6003.5
923.045	5988.5
923.279	5971.5
923.513	5806.5
923.747	5918.5
923.981	5834.5
924.215	5766.5
924.449	5821.5
924.683	5662.5
924.917	5688.5
925.151	5662.5
925.385	5673.5
925.618	5610.5
925.852	5626.5
926.086	5525.5
926.319	5570.5
926.553	5576.5
926.786	5577.5
927.02	5501.5
927.253	5575.5
927.486	5569.5
927.72	5488.5
927.953	5550.5
928.186	5515.5
928.42	5439.5
928.653	5399.5
928.886	5349.5
929.119	5350.5
929.352	5357.5
929.585	5306.5
929.818	5220.5
930.051	5206.5
930.284	5197.5
930.516	5122.5
930.749	5086.5
930.982	5102.5
931.215	5089.5
931.447	4975.5
931.68	4967.5
931.912	4958.5
932.145	4964.5
932.377	5020.5
932.61	5117.5
932.842	4922.5
933.074	4985.5
933.307	4930.5
933.539	5023.5
933.771	4962.5
934.003	4925.5
934.236	4987.5
934.468	5032.5
934.7	4915.5
934.932	4952.5
935.164	4820.5
935.395	4818.5
935.627	4843.5
935.859	4833.5
936.091	4753.5
936.323	4810.5
936.554	4743.5
936.786	4720.5
937.017	4697.5
937.249	4720.5
937.481	4623.5
937.712	4709.5
937.943	4667.5
938.175	4605.5
938.406	4643.5
938.637	4710.5
938.869	4640.5
939.1	4632.5
939.331	4601.5
939.562	4597.5
939.793	4635.5
940.024	4630.5
940.255	4593.5
940.486	4532.5
940.717	4543.5
940.948	4495.5
941.179	4427.5
941.409	4450.5
941.64	4399.5
941.871	4396.5
942.102	4375.5
942.332	4375.5
942.563	4476.5
942.793	4393.5
943.024	4360.5
943.254	4386.5
943.484	4399.5
943.715	4409.5
943.945	4339.5
944.175	4308.5
944.405	4339.5
944.636	4307.5
944.866	4372.5
945.096	4344.5
945.326	4227.5
945.556	4276.5
945.786	4309.5
946.016	4268.5
946.245	4221.5
946.475	4190.5
946.705	4139.5
946.935	4128.5
947.164	4091.5
947.394	4052.5
947.624	4051.5
947.853	4082.5
948.083	4111.5
948.312	4000.5
948.542	3935.5
948.771	3945.5
949	4004.5
949.23	3975.5
949.459	3953.5
949.688	4025.5
949.917	3940.5
950.146	3953.5
950.375	4015.5
950.604	3874.5
950.833	3983.5
951.062	3946.5
951.291	3915.5
951.52	3869.5
951.749	3898.5
951.978	3853.5
952.206	3805.5
952.435	3775.5
952.664	3850.5
952.892	3860.5
953.121	3847.5
953.349	3834.5
953.578	3834.5
953.806	3742.5
954.035	3700.5
954.263	3702.5
954.491	3683.5
954.719	3736.5
954.948	3656.5
955.176	3642.5
955.404	3560.5
955.632	3617.5
955.86	3613.5
956.088	3618.5
956.316	3605.5
956.544	3616.5
956.772	3503.5
956.999	3519.5
957.227	3561.5
957.455	3454.5
957.683	3440.5
957.91	3395.5
958.138	3403.5
958.365	3375.5
958.593	3383.5
958.82	3344.5
959.048	3424.5
959.275	3354.5
959.502	3347.5
959.73	3292.5
959.957	3357.5
960.184	3342.5
960.411	3289.5
960.638	3314.5
960.865	3323.5
961.092	3345.5
961.319	3263.5
961.546	3328.5
961.773	3322.5
962	3241.5
962.227	3293.5
962.454	3250.5
962.68	3242.5
962.907	3238.5
963.134	3170.5
963.36	3181.5
963.587	3221.5
963.813	3173.5
964.04	3135.5
964.266	3114.5
964.493	3157.5
964.719	3139.5
964.945	3141.5
965.171	3025.5
965.398	3082.5
965.624	3062.5
965.85	2997.5
966.076	2983.5
966.302	3021.5
966.528	2967.5
966.754	3002.5
966.98	2999.5
967.206	2991.5
967.431	2889.5
967.657	2948.5
967.883	2966.5
968.109	2938.5
968.334	2862.5
968.56	2865.5
968.785	2915.5
969.011	2840.5
969.236	2905.5
969.462	2852.5
969.687	2831.5
969.912	2875.5
970.138	2874.5
970.363	2767.5
970.588	2789.5
970.813	2770.5
971.038	2753.5
971.263	2782.5
971.488	2797.5
971.713	2848.5
971.938	2811.5
972.163	2691.5
972.388	2722.5
972.613	2671.5
972.838	2696.5
973.062	2670.5
973.287	2676.5
973.512	2617.5
973.736	2648.5
973.961	2606.5
974.185	2610.5
974.41	2604.5
974.634	2515.5
974.858	2518.5
975.083	2572.5
975.307	2570.5
975.531	2510.5
975.755	2467.5
975.98	2465.5
976.204	2424.5
976.428	2377.5
976.652	2412.5
976.876	2396.5
977.1	2411.5
977.324	2377.5
977.547	2413.5
977.771	2416.5
977.995	2406.5
978.219	2327.5
978.442	2442.5
978.666	2372.5
978.89	2353.5
979.113	2371.5
979.337	2326.5
979.56	2305.5
979.783	2414.5
980.007	2297.5
980.23	2331.5
980.453	2273.5
980.677	2272.5
980.9	2299.5
981.123	2201.5
981.346	2283.5
981.569	2248.5
981.792	2285.5
982.015	2256.5
982.238	2198.5
982.461	2192.5
982.684	2185.5
982.907	2153.5
983.129	2153.5
983.352	2183.5
983.575	2171.5
983.797	2159.5
984.02	2117.5
984.242	2103.5
984.465	2173.5
984.687	2116.5
984.91	2194.5
985.132	2112.5
985.354	2150.5
985.577	2091.5
985.799	2110.5
986.021	1984.5
986.243	2060.5
986.465	2026.5
986.687	2084.5
986.909	2102.5
987.131	2058.5
987.353	2014.5
987.575	2052.5
987.797	2013.5
988.019	1952.5
988.241	1996.5
988.462	1934.5
988.684	2020.5
988.906	2041.5
989.127	2059.5
989.349	1936.5
989.57	1955.5
989.792	2003.5
990.013	2001.5
990.234	2002.5
990.456	2002.5
990.677	1975.5
990.898	1963.5
991.119	1939.5
991.341	1968.5
991.562	1882.5
991.783	1943.5
992.004	1896.5
992.225	1833.5
992.446	1903.5
992.667	1790.5
992.887	1902.5
993.108	1760.5
993.329	1901.5
993.55	1857.5
993.77	1803.5
993.991	1796.5
994.212	1821.5
994.432	1794.5
994.653	1805.5
994.873	1787.5
995.093	1668.5
995.314	1699.5
995.534	1777.5
995.754	1829.5
995.975	1815.5
996.195	1704.5
996.415	1749.5
996.635	1748.5
996.855	1739.5
997.075	1738.5
997.295	1725.5
997.515	1722.5
997.735	1734.5
997.955	1722.5
998.174	1743.5
998.394	1687.5
998.614	1723.5
998.834	1676.5
999.053	1782.5
999.273	1732.5
999.492	1751.5
999.712	1690.5
999.931	1647.5
1000.151	1718.5
1000.37	1675.5
1000.589	1704.5
1000.809	1644.5
1001.028	1752.5
1001.247	1691.5
1001.466	1580.5
1001.685	1752.5
1001.904	1657.5
1002.123	1642.5
1002.342	1642.5
1002.561	1573.5
1002.78	1593.5
1002.999	1683.5
1003.218	1622.5
1003.436	1590.5
1003.655	1642.5
1003.874	1571.5
1004.092	1606.5
1004.311	1652.5
1004.53	1605.5
1004.748	1652.5
1004.966	1581.5
1005.185	1612.5
1005.403	1645.5
1005.622	1601.5
1005.84	1673.5
1006.058	1569.5
1006.276	1564.5
1006.494	1951.5
1006.712	1588.5
1006.931	1639.5
1007.149	1548.5
1007.367	1559.5
1007.584	1575.5
1007.802	1618.5
1008.02	1547.5
1008.238	1658.5
1008.456	1667.5
1008.673	1524.5
1008.891	1632.5
1009.109	1591.5
1009.326	1633.5
1009.544	1742.5
1009.761	1611.5
1009.979	1703.5
1010.196	1690.5
1010.413	1789.5
1010.631	1828.5
1010.848	1846.5
1011.065	1849.5
1011.282	1804.5
1011.5	1735.5
1011.717	1838.5
1011.934	1794.5
1012.151	1840.5
1012.368	1799.5
1012.585	1732.5
1012.801	1799.5
1013.018	1776.5
1013.235	1705.5
1013.452	1747.5
1013.669	1760.5
1013.885	1736.5
1014.102	1758.5
1014.318	1708.5
1014.535	1690.5
1014.751	1724.5
1014.968	1733.5
1015.184	1758.5
1015.401	1657.5
1015.617	1698.5
1015.833	1609.5
1016.049	1625.5
1016.266	1625.5
1016.482	1604.5
1016.698	1519.5
1016.914	1591.5
1017.13	1542.5
1017.346	1558.5
1017.562	1570.5
1017.778	1537.5
1017.993	1497.5
1018.209	1552.5
1018.425	1531.5
1018.641	1495.5
1018.856	1453.5
1019.072	1492.5
1019.288	1561.5
1019.503	1507.5
1019.719	1420.5
1019.934	1425.5
1020.149	1506.5
1020.365	1435.5
1020.58	1395.5
1020.795	1440.5
1021.011	1355.5
1021.226	1366.5
1021.441	1354.5
1021.656	1296.5
1021.871	1227.5
1022.086	1259.5
1022.301	1226.5
1022.516	1206.5
1022.731	1270.5
1022.946	1190.5
1023.16	1166.5
1023.375	1139.5
1023.59	1120.5
1023.804	1084.5
1024.019	1174.5
1024.234	1067.5
1024.448	1078.5
1024.663	1013.5
1024.877	1021.5
1025.092	1042.5
1025.306	1053.5
1025.52	954.5
1025.734	1021.5
1025.949	964.5
1026.163	931.5
1026.377	869.5
1026.591	920.5
1026.805	857.5
1027.019	854.5
1027.233	785.5
1027.447	773.5
1027.661	858.5
1027.875	803.5
1028.088	792.5
1028.302	729.5
1028.516	723.5
1028.73	701.5
1028.943	708.5
1029.157	638.5
1029.37	630.5
1029.584	0.5
1029.797	-2.5
1030.011	1.5
1030.224	-0.5
