Data from QEP037381__569__17-49-36-380.txt Node

Date: Fri Dec 16 17:49:36 EST 2022
User: dcclab
Spectrometer: QEP03738
Trigger mode: 4
Integration Time (sec): 1.000000E1
Scans to average: 1
Electric dark correction enabled: true
Nonlinearity correction enabled: false
Boxcar width: 0
XAxis mode: Wavelengths
Number of Pixels in Spectrum: 1044
>>>>>Begin Spectral Data<<<<<
784.041	13.25
784.3	-1.75
784.558	-2.75
784.817	-1.75
785.075	119426.25
785.334	20305.25
785.592	9491.25
785.851	6546.25
786.109	4921.25
786.368	3819.25
786.626	3107.25
786.884	2552.25
787.143	2097.25
787.401	1790.25
787.659	1599.25
787.917	1363.25
788.175	1247.25
788.433	1058.25
788.691	934.25
788.949	887.25
789.207	851.25
789.465	736.25
789.723	695.25
789.98	652.25
790.238	657.25
790.496	631.25
790.753	599.25
791.011	642.25
791.268	587.25
791.526	578.25
791.783	585.25
792.041	556.25
792.298	471.25
792.556	541.25
792.813	503.25
793.07	488.25
793.327	482.25
793.584	550.25
793.841	472.25
794.099	468.25
794.356	539.25
794.613	447.25
794.869	481.25
795.126	431.25
795.383	426.25
795.64	449.25
795.897	392.25
796.153	461.25
796.41	439.25
796.667	435.25
796.923	425.25
797.18	428.25
797.436	467.25
797.693	420.25
797.949	487.25
798.206	508.25
798.462	419.25
798.718	472.25
798.974	473.25
799.231	498.25
799.487	473.25
799.743	484.25
799.999	517.25
800.255	526.25
800.511	499.25
800.767	550.25
801.023	527.25
801.279	560.25
801.534	605.25
801.79	634.25
802.046	675.25
802.302	811.25
802.557	933.25
802.813	1131.25
803.068	1393.25
803.324	1885.25
803.579	2580.25
803.835	3602.25
804.09	4957.25
804.345	6456.25
804.601	8118.25
804.856	9883.25
805.111	11412.25
805.366	12524.25
805.621	13404.25
805.876	14046.25
806.131	14236.25
806.386	14524.25
806.641	14807.25
806.896	14943.25
807.151	15310.25
807.406	15461.25
807.661	15703.25
807.915	15975.25
808.17	16220.25
808.425	16397.25
808.679	16464.25
808.934	16655.25
809.188	16651.25
809.443	16915.25
809.697	17176.25
809.951	17216.25
810.206	17439.25
810.46	17550.25
810.714	17570.25
810.968	17838.25
811.223	17888.25
811.477	18069.25
811.731	18308.25
811.985	18347.25
812.239	18295.25
812.493	18386.25
812.747	18461.25
813	18595.25
813.254	18591.25
813.508	18702.25
813.762	18699.25
814.015	18741.25
814.269	18922.25
814.522	19045.25
814.776	19292.25
815.03	19506.25
815.283	19835.25
815.536	20053.25
815.79	20400.25
816.043	20557.25
816.296	20841.25
816.55	21065.25
816.803	21210.25
817.056	21507.25
817.309	21739.25
817.562	21933.25
817.815	22160.25
818.068	22190.25
818.321	22463.25
818.574	22738.25
818.827	22963.25
819.079	23152.25
819.332	23577.25
819.585	23895.25
819.838	24150.25
820.09	24296.25
820.343	24498.25
820.595	24481.25
820.848	24767.25
821.1	24883.25
821.353	24787.25
821.605	24810.25
821.857	24728.25
822.11	24619.25
822.362	24680.25
822.614	24555.25
822.866	24476.25
823.118	24613.25
823.37	24658.25
823.622	24682.25
823.874	24792.25
824.126	24950.25
824.378	24786.25
824.63	24994.25
824.882	24972.25
825.134	24863.25
825.385	24986.25
825.637	24887.25
825.888	24750.25
826.14	24678.25
826.392	24648.25
826.643	24346.25
826.895	24389.25
827.146	24263.25
827.397	24176.25
827.649	24267.25
827.9	24116.25
828.151	24066.25
828.402	24105.25
828.653	24193.25
828.905	24371.25
829.156	24313.25
829.407	24255.25
829.658	24220.25
829.909	24422.25
830.159	24280.25
830.41	24135.25
830.661	23999.25
830.912	23776.25
831.162	23706.25
831.413	23683.25
831.664	23686.25
831.914	23568.25
832.165	23679.25
832.415	23608.25
832.666	23529.25
832.916	23784.25
833.167	23427.25
833.417	23506.25
833.667	23428.25
833.917	23338.25
834.168	23278.25
834.418	23285.25
834.668	23148.25
834.918	23011.25
835.168	22876.25
835.418	22719.25
835.668	22838.25
835.918	22790.25
836.167	22682.25
836.417	22554.25
836.667	22608.25
836.917	22559.25
837.166	22465.25
837.416	22543.25
837.666	22423.25
837.915	22345.25
838.165	22285.25
838.414	22265.25
838.663	22194.25
838.913	22126.25
839.162	22055.25
839.411	22081.25
839.661	21935.25
839.91	21866.25
840.159	21814.25
840.408	21854.25
840.657	21851.25
840.906	21760.25
841.155	22010.25
841.404	21744.25
841.653	21750.25
841.902	21739.25
842.15	21719.25
842.399	21844.25
842.648	21682.25
842.897	21640.25
843.145	21562.25
843.394	21406.25
843.642	21236.25
843.891	21135.25
844.139	21138.25
844.388	20973.25
844.636	20852.25
844.884	20881.25
845.133	20746.25
845.381	20765.25
845.629	20782.25
845.877	20724.25
846.125	20593.25
846.373	20595.25
846.621	20518.25
846.869	20456.25
847.117	20314.25
847.365	20204.25
847.613	20166.25
847.861	20166.25
848.108	20040.25
848.356	20047.25
848.604	20040.25
848.851	19872.25
849.099	19904.25
849.346	19938.25
849.594	19944.25
849.841	20072.25
850.089	20148.25
850.336	20107.25
850.583	20099.25
850.831	19927.25
851.078	19844.25
851.325	19760.25
851.572	19809.25
851.819	19529.25
852.066	19252.25
852.313	18964.25
852.56	19022.25
852.807	18838.25
853.054	18737.25
853.301	18732.25
853.548	18759.25
853.794	18837.25
854.041	18840.25
854.288	18934.25
854.534	19059.25
854.781	19099.25
855.028	19078.25
855.274	18974.25
855.52	18684.25
855.767	18752.25
856.013	18674.25
856.26	19016.25
856.506	18472.25
856.752	18414.25
856.998	18564.25
857.244	18586.25
857.49	18621.25
857.736	18667.25
857.982	18610.25
858.228	18586.25
858.474	18427.25
858.72	18193.25
858.966	18202.25
859.212	17966.25
859.458	17895.25
859.703	17614.25
859.949	17471.25
860.195	17389.25
860.44	17244.25
860.686	17203.25
860.931	17181.25
861.177	16910.25
861.422	16995.25
861.667	16913.25
861.913	17076.25
862.158	16984.25
862.403	17066.25
862.648	17075.25
862.893	17200.25
863.138	17074.25
863.384	17026.25
863.629	16995.25
863.873	16976.25
864.118	16781.25
864.363	16801.25
864.608	16772.25
864.853	16683.25
865.098	16525.25
865.342	16523.25
865.587	16346.25
865.832	16453.25
866.076	16302.25
866.321	16309.25
866.565	16239.25
866.81	16109.25
867.054	16053.25
867.298	16077.25
867.543	15979.25
867.787	16001.25
868.031	15857.25
868.275	15889.25
868.519	15884.25
868.764	15822.25
869.008	15803.25
869.252	15820.25
869.496	15718.25
869.739	15600.25
869.983	15601.25
870.227	15645.25
870.471	15542.25
870.715	15621.25
870.958	15663.25
871.202	15664.25
871.446	15632.25
871.689	15732.25
871.933	15623.25
872.176	15571.25
872.42	15594.25
872.663	15466.25
872.906	15529.25
873.15	15421.25
873.393	15402.25
873.636	15372.25
873.879	15198.25
874.122	15020.25
874.366	14861.25
874.609	14810.25
874.852	14674.25
875.095	14603.25
875.337	14428.25
875.58	14431.25
875.823	14421.25
876.066	14356.25
876.309	14354.25
876.551	14146.25
876.794	14124.25
877.037	14141.25
877.279	14002.25
877.522	14133.25
877.764	14086.25
878.007	13992.25
878.249	14035.25
878.491	14040.25
878.734	13969.25
878.976	13942.25
879.218	13896.25
879.46	13842.25
879.702	13749.25
879.945	13617.25
880.187	13546.25
880.429	13429.25
880.671	13358.25
880.912	13336.25
881.154	13180.25
881.396	13201.25
881.638	13156.25
881.88	13160.25
882.121	13069.25
882.363	13077.25
882.605	13030.25
882.846	13010.25
883.088	13010.25
883.329	13033.25
883.571	12932.25
883.812	13089.25
884.053	13169.25
884.295	13353.25
884.536	13448.25
884.777	13349.25
885.018	13255.25
885.259	13285.25
885.5	13129.25
885.742	13343.25
885.982	13132.25
886.223	12976.25
886.464	12893.25
886.705	12743.25
886.946	12712.25
887.187	12488.25
887.428	12459.25
887.668	12263.25
887.909	12184.25
888.15	11958.25
888.39	12020.25
888.631	11964.25
888.871	11838.25
889.111	11798.25
889.352	11672.25
889.592	11570.25
889.833	11361.25
890.073	11447.25
890.313	11376.25
890.553	11259.25
890.793	11287.25
891.033	11180.25
891.273	11061.25
891.513	11095.25
891.753	11108.25
891.993	11072.25
892.233	11024.25
892.473	11122.25
892.713	11045.25
892.952	11031.25
893.192	11076.25
893.432	11004.25
893.671	10981.25
893.911	10888.25
894.15	10877.25
894.39	10786.25
894.629	10741.25
894.869	10759.25
895.108	10602.25
895.347	10523.25
895.587	10496.25
895.826	10517.25
896.065	10405.25
896.304	10396.25
896.543	10419.25
896.782	10295.25
897.021	10274.25
897.26	10207.25
897.499	10282.25
897.738	10187.25
897.977	10233.25
898.216	10096.25
898.454	10019.25
898.693	9892.25
898.932	9938.25
899.17	9853.25
899.409	9746.25
899.647	9793.25
899.886	9753.25
900.124	9732.25
900.363	9687.25
900.601	9756.25
900.839	9650.25
901.078	9747.25
901.316	9821.25
901.554	9790.25
901.792	9882.25
902.03	9807.25
902.268	9831.25
902.506	9738.25
902.744	9727.25
902.982	9708.25
903.22	9509.25
903.458	9442.25
903.695	9295.25
903.933	9200.25
904.171	8948.25
904.409	9000.25
904.646	8886.25
904.884	8747.25
905.121	8702.25
905.359	8540.25
905.596	8494.25
905.833	8423.25
906.071	8361.25
906.308	8377.25
906.545	8366.25
906.783	8371.25
907.02	8363.25
907.257	8219.25
907.494	8201.25
907.731	8283.25
907.968	8161.25
908.205	8147.25
908.442	8124.25
908.679	8072.25
908.915	7983.25
909.152	7981.25
909.389	7761.25
909.626	7773.25
909.862	7678.25
910.099	7744.25
910.335	7688.25
910.572	7567.25
910.808	7636.25
911.045	7521.25
911.281	7556.25
911.518	7607.25
911.754	7495.25
911.99	7463.25
912.226	7430.25
912.463	7281.25
912.699	7295.25
912.935	7205.25
913.171	7177.25
913.407	7054.25
913.643	7134.25
913.879	7005.25
914.114	6898.25
914.35	6834.25
914.586	6791.25
914.822	6754.25
915.057	6824.25
915.293	6636.25
915.529	6588.25
915.764	6625.25
916	6620.25
916.235	6642.25
916.471	6555.25
916.706	6509.25
916.941	6546.25
917.177	6548.25
917.412	6556.25
917.647	6503.25
917.882	6451.25
918.117	6493.25
918.352	6435.25
918.588	6480.25
918.823	6355.25
919.057	6324.25
919.292	6169.25
919.527	6191.25
919.762	6140.25
919.997	6111.25
920.232	6014.25
920.466	5959.25
920.701	5871.25
920.935	5866.25
921.17	5813.25
921.405	5791.25
921.639	5835.25
921.873	5748.25
922.108	5750.25
922.342	5725.25
922.576	5718.25
922.811	5641.25
923.045	5661.25
923.279	5695.25
923.513	5551.25
923.747	5590.25
923.981	5545.25
924.215	5485.25
924.449	5471.25
924.683	5366.25
924.917	5374.25
925.151	5350.25
925.385	5410.25
925.618	5318.25
925.852	5305.25
926.086	5283.25
926.319	5297.25
926.553	5274.25
926.786	5277.25
927.02	5253.25
927.253	5244.25
927.486	5278.25
927.72	5223.25
927.953	5237.25
928.186	5121.25
928.42	5241.25
928.653	5097.25
928.886	5090.25
929.119	5103.25
929.352	5042.25
929.585	5005.25
929.818	4980.25
930.051	4986.25
930.284	4962.25
930.516	4826.25
930.749	4833.25
930.982	4839.25
931.215	4833.25
931.447	4726.25
931.68	4680.25
931.912	4729.25
932.145	4702.25
932.377	4725.25
932.61	4865.25
932.842	4670.25
933.074	4730.25
933.307	4623.25
933.539	4794.25
933.771	4755.25
934.003	4687.25
934.236	4765.25
934.468	4720.25
934.7	4654.25
934.932	4666.25
935.164	4589.25
935.395	4618.25
935.627	4622.25
935.859	4600.25
936.091	4565.25
936.323	4547.25
936.554	4565.25
936.786	4477.25
937.017	4438.25
937.249	4498.25
937.481	4435.25
937.712	4477.25
937.943	4439.25
938.175	4427.25
938.406	4454.25
938.637	4429.25
938.869	4370.25
939.1	4441.25
939.331	4376.25
939.562	4369.25
939.793	4381.25
940.024	4358.25
940.255	4368.25
940.486	4299.25
940.717	4269.25
940.948	4220.25
941.179	4218.25
941.409	4256.25
941.64	4194.25
941.871	4230.25
942.102	4143.25
942.332	4158.25
942.563	4232.25
942.793	4184.25
943.024	4099.25
943.254	4206.25
943.484	4236.25
943.715	4237.25
943.945	4154.25
944.175	4070.25
944.405	4134.25
944.636	4139.25
944.866	4123.25
945.096	4163.25
945.326	4030.25
945.556	4104.25
945.786	4108.25
946.016	4057.25
946.245	3948.25
946.475	3945.25
946.705	3939.25
946.935	3966.25
947.164	3946.25
947.394	3884.25
947.624	3827.25
947.853	3893.25
948.083	3879.25
948.312	3869.25
948.542	3801.25
948.771	3730.25
949	3743.25
949.23	3740.25
949.459	3767.25
949.688	3818.25
949.917	3757.25
950.146	3788.25
950.375	3816.25
950.604	3717.25
950.833	3753.25
951.062	3775.25
951.291	3742.25
951.52	3691.25
951.749	3698.25
951.978	3629.25
952.206	3651.25
952.435	3669.25
952.664	3661.25
952.892	3633.25
953.121	3654.25
953.349	3655.25
953.578	3603.25
953.806	3561.25
954.035	3504.25
954.263	3552.25
954.491	3487.25
954.719	3569.25
954.948	3497.25
955.176	3497.25
955.404	3429.25
955.632	3463.25
955.86	3444.25
956.088	3427.25
956.316	3402.25
956.544	3468.25
956.772	3345.25
956.999	3337.25
957.227	3402.25
957.455	3322.25
957.683	3322.25
957.91	3286.25
958.138	3222.25
958.365	3237.25
958.593	3258.25
958.82	3151.25
959.048	3220.25
959.275	3227.25
959.502	3178.25
959.73	3169.25
959.957	3203.25
960.184	3220.25
960.411	3139.25
960.638	3220.25
960.865	3116.25
961.092	3168.25
961.319	3070.25
961.546	3129.25
961.773	3166.25
962	3134.25
962.227	3172.25
962.454	3113.25
962.68	3073.25
962.907	3114.25
963.134	3073.25
963.36	3066.25
963.587	3041.25
963.813	3012.25
964.04	3004.25
964.266	2968.25
964.493	3022.25
964.719	3008.25
964.945	2974.25
965.171	2869.25
965.398	2909.25
965.624	2946.25
965.85	2852.25
966.076	2835.25
966.302	2880.25
966.528	2841.25
966.754	2861.25
966.98	2857.25
967.206	2832.25
967.431	2744.25
967.657	2852.25
967.883	2814.25
968.109	2792.25
968.334	2775.25
968.56	2749.25
968.785	2743.25
969.011	2714.25
969.236	2800.25
969.462	2738.25
969.687	2753.25
969.912	2765.25
970.138	2760.25
970.363	2716.25
970.588	2699.25
970.813	2693.25
971.038	2637.25
971.263	2668.25
971.488	2661.25
971.713	2690.25
971.938	2678.25
972.163	2574.25
972.388	2591.25
972.613	2521.25
972.838	2604.25
973.062	2567.25
973.287	2577.25
973.512	2513.25
973.736	2547.25
973.961	2530.25
974.185	2496.25
974.41	2510.25
974.634	2425.25
974.858	2437.25
975.083	2452.25
975.307	2501.25
975.531	2407.25
975.755	2369.25
975.98	2376.25
976.204	2328.25
976.428	2328.25
976.652	2312.25
976.876	2261.25
977.1	2315.25
977.324	2264.25
977.547	2367.25
977.771	2301.25
977.995	2288.25
978.219	2232.25
978.442	2340.25
978.666	2267.25
978.89	2305.25
979.113	2243.25
979.337	2223.25
979.56	2218.25
979.783	2303.25
980.007	2191.25
980.23	2222.25
980.453	2203.25
980.677	2231.25
980.9	2185.25
981.123	2149.25
981.346	2218.25
981.569	2170.25
981.792	2196.25
982.015	2171.25
982.238	2104.25
982.461	2141.25
982.684	2106.25
982.907	2059.25
983.129	2059.25
983.352	2136.25
983.575	2093.25
983.797	2082.25
984.02	2041.25
984.242	2037.25
984.465	2059.25
984.687	2075.25
984.91	2056.25
985.132	2044.25
985.354	2079.25
985.577	2000.25
985.799	2023.25
986.021	1925.25
986.243	1949.25
986.465	2002.25
986.687	2042.25
986.909	2031.25
987.131	1949.25
987.353	1931.25
987.575	1972.25
987.797	1930.25
988.019	1854.25
988.241	1903.25
988.462	1863.25
988.684	1963.25
988.906	1965.25
989.127	1991.25
989.349	1895.25
989.57	1881.25
989.792	1936.25
990.013	1948.25
990.234	1942.25
990.456	1964.25
990.677	1922.25
990.898	1883.25
991.119	1866.25
991.341	1899.25
991.562	1811.25
991.783	1884.25
992.004	1822.25
992.225	1780.25
992.446	1854.25
992.667	1758.25
992.887	1807.25
993.108	1740.25
993.329	1853.25
993.55	1778.25
993.77	1754.25
993.991	1726.25
994.212	1727.25
994.432	1759.25
994.653	1756.25
994.873	1765.25
995.093	1615.25
995.314	1701.25
995.534	1719.25
995.754	1753.25
995.975	1770.25
996.195	1663.25
996.415	1727.25
996.635	1690.25
996.855	1724.25
997.075	1668.25
997.295	1672.25
997.515	1651.25
997.735	1683.25
997.955	1670.25
998.174	1653.25
998.394	1660.25
998.614	1681.25
998.834	1616.25
999.053	1681.25
999.273	1677.25
999.492	1710.25
999.712	1635.25
999.931	1628.25
1000.151	1660.25
1000.37	1632.25
1000.589	1641.25
1000.809	1604.25
1001.028	1699.25
1001.247	1650.25
1001.466	1543.25
1001.685	1652.25
1001.904	1604.25
1002.123	1597.25
1002.342	1565.25
1002.561	1570.25
1002.78	1580.25
1002.999	1621.25
1003.218	1561.25
1003.436	1574.25
1003.655	1607.25
1003.874	1538.25
1004.092	1562.25
1004.311	1593.25
1004.53	1558.25
1004.748	1629.25
1004.966	1564.25
1005.185	1600.25
1005.403	1597.25
1005.622	1555.25
1005.84	1635.25
1006.058	1539.25
1006.276	1558.25
1006.494	1891.25
1006.712	1547.25
1006.931	1601.25
1007.149	1510.25
1007.367	1517.25
1007.584	1547.25
1007.802	1554.25
1008.02	1535.25
1008.238	1627.25
1008.456	1638.25
1008.673	1481.25
1008.891	1605.25
1009.109	1538.25
1009.326	1581.25
1009.544	1675.25
1009.761	1575.25
1009.979	1676.25
1010.196	1655.25
1010.413	1780.25
1010.631	1836.25
1010.848	1850.25
1011.065	1844.25
1011.282	1778.25
1011.5	1702.25
1011.717	1834.25
1011.934	1773.25
1012.151	1803.25
1012.368	1790.25
1012.585	1715.25
1012.801	1785.25
1013.018	1751.25
1013.235	1709.25
1013.452	1717.25
1013.669	1745.25
1013.885	1726.25
1014.102	1756.25
1014.318	1716.25
1014.535	1660.25
1014.751	1707.25
1014.968	1716.25
1015.184	1739.25
1015.401	1632.25
1015.617	1650.25
1015.833	1616.25
1016.049	1664.25
1016.266	1583.25
1016.482	1593.25
1016.698	1510.25
1016.914	1570.25
1017.13	1529.25
1017.346	1528.25
1017.562	1593.25
1017.778	1494.25
1017.993	1493.25
1018.209	1530.25
1018.425	1519.25
1018.641	1474.25
1018.856	1455.25
1019.072	1488.25
1019.288	1509.25
1019.503	1492.25
1019.719	1405.25
1019.934	1413.25
1020.149	1490.25
1020.365	1421.25
1020.58	1353.25
1020.795	1400.25
1021.011	1338.25
1021.226	1326.25
1021.441	1373.25
1021.656	1268.25
1021.871	1227.25
1022.086	1240.25
1022.301	1216.25
1022.516	1207.25
1022.731	1248.25
1022.946	1188.25
1023.16	1147.25
1023.375	1093.25
1023.59	1075.25
1023.804	1065.25
1024.019	1157.25
1024.234	1018.25
1024.448	1069.25
1024.663	988.25
1024.877	1008.25
1025.092	1033.25
1025.306	1046.25
1025.52	918.25
1025.734	1022.25
1025.949	916.25
1026.163	902.25
1026.377	853.25
1026.591	900.25
1026.805	830.25
1027.019	838.25
1027.233	786.25
1027.447	713.25
1027.661	843.25
1027.875	782.25
1028.088	775.25
1028.302	705.25
1028.516	703.25
1028.73	705.25
1028.943	694.25
1029.157	651.25
1029.37	605.25
1029.584	-0.75
1029.797	-4.75
1030.011	0.25
1030.224	-1.75
