Data from QEP037381__562__17-48-26-379.txt Node

Date: Fri Dec 16 17:48:26 EST 2022
User: dcclab
Spectrometer: QEP03738
Trigger mode: 4
Integration Time (sec): 1.000000E1
Scans to average: 1
Electric dark correction enabled: true
Nonlinearity correction enabled: false
Boxcar width: 0
XAxis mode: Wavelengths
Number of Pixels in Spectrum: 1044
>>>>>Begin Spectral Data<<<<<
784.041	13.38
784.3	1.38
784.558	-7.62
784.817	-1.62
785.075	126545.38
785.334	21271.38
785.592	9717.38
785.851	6638.38
786.109	4970.38
786.368	3833.38
786.626	3029.38
786.884	2532.38
787.143	2107.38
787.401	1742.38
787.659	1566.38
787.917	1325.38
788.175	1198.38
788.433	1039.38
788.691	954.38
788.949	869.38
789.207	829.38
789.465	720.38
789.723	699.38
789.98	650.38
790.238	668.38
790.496	624.38
790.753	591.38
791.011	634.38
791.268	573.38
791.526	548.38
791.783	562.38
792.041	545.38
792.298	465.38
792.556	520.38
792.813	512.38
793.07	482.38
793.327	469.38
793.584	561.38
793.841	464.38
794.099	476.38
794.356	550.38
794.613	460.38
794.869	487.38
795.126	438.38
795.383	426.38
795.64	449.38
795.897	399.38
796.153	471.38
796.41	447.38
796.667	433.38
796.923	447.38
797.18	441.38
797.436	456.38
797.693	426.38
797.949	479.38
798.206	513.38
798.462	423.38
798.718	488.38
798.974	447.38
799.231	491.38
799.487	502.38
799.743	502.38
799.999	510.38
800.255	528.38
800.511	510.38
800.767	547.38
801.023	546.38
801.279	580.38
801.534	619.38
801.79	676.38
802.046	707.38
802.302	830.38
802.557	958.38
802.813	1187.38
803.068	1451.38
803.324	2007.38
803.579	2728.38
803.835	3827.38
804.09	5314.38
804.345	7003.38
804.601	9039.38
804.856	10975.38
805.111	12738.38
805.366	14212.38
805.621	15159.38
805.876	15812.38
806.131	16238.38
806.386	16500.38
806.641	16714.38
806.896	17020.38
807.151	17315.38
807.406	17554.38
807.661	17849.38
807.915	18223.38
808.17	18400.38
808.425	18606.38
808.679	18664.38
808.934	18989.38
809.188	19022.38
809.443	19360.38
809.697	19456.38
809.951	19529.38
810.206	19681.38
810.46	19954.38
810.714	20019.38
810.968	20131.38
811.223	20269.38
811.477	20424.38
811.731	20587.38
811.985	20667.38
812.239	20803.38
812.493	20988.38
812.747	20872.38
813	20936.38
813.254	21086.38
813.508	21158.38
813.762	21212.38
814.015	21226.38
814.269	21400.38
814.522	21584.38
814.776	21941.38
815.03	22127.38
815.283	22357.38
815.536	22784.38
815.79	23045.38
816.043	23350.38
816.296	23604.38
816.55	23829.38
816.803	24155.38
817.056	24534.38
817.309	24621.38
817.562	24791.38
817.815	24924.38
818.068	25190.38
818.321	25495.38
818.574	25665.38
818.827	25973.38
819.079	26307.38
819.332	26813.38
819.585	27036.38
819.838	27345.38
820.09	27517.38
820.343	27831.38
820.595	27759.38
820.848	27944.38
821.1	28060.38
821.353	28065.38
821.605	28130.38
821.857	27915.38
822.11	27779.38
822.362	27755.38
822.614	27756.38
822.866	27793.38
823.118	27737.38
823.37	27897.38
823.622	27998.38
823.874	27928.38
824.126	28063.38
824.378	28130.38
824.63	28088.38
824.882	28223.38
825.134	28139.38
825.385	28097.38
825.637	27948.38
825.888	27857.38
826.14	27745.38
826.392	27694.38
826.643	27562.38
826.895	27488.38
827.146	27129.38
827.397	27229.38
827.649	27309.38
827.9	27123.38
828.151	27251.38
828.402	27396.38
828.653	27357.38
828.905	27281.38
829.156	27384.38
829.407	27263.38
829.658	27404.38
829.909	27267.38
830.159	27168.38
830.41	27130.38
830.661	26820.38
830.912	26720.38
831.162	26704.38
831.413	26565.38
831.664	26598.38
831.914	26581.38
832.165	26467.38
832.415	26565.38
832.666	26478.38
832.916	26517.38
833.167	26412.38
833.417	26302.38
833.667	26383.38
833.917	26207.38
834.168	26162.38
834.418	26129.38
834.668	25924.38
834.918	25806.38
835.168	25770.38
835.418	25655.38
835.668	25600.38
835.918	25396.38
836.167	25427.38
836.417	25259.38
836.667	25308.38
836.917	25215.38
837.166	25188.38
837.416	25128.38
837.666	25142.38
837.915	24961.38
838.165	24988.38
838.414	24809.38
838.663	24806.38
838.913	24686.38
839.162	24617.38
839.411	24822.38
839.661	24477.38
839.91	24477.38
840.159	24482.38
840.408	24512.38
840.657	24374.38
840.906	24434.38
841.155	24358.38
841.404	24372.38
841.653	24290.38
841.902	24244.38
842.15	24408.38
842.399	24361.38
842.648	24297.38
842.897	24182.38
843.145	24012.38
843.394	23844.38
843.642	23823.38
843.891	23688.38
844.139	23521.38
844.388	23399.38
844.636	23331.38
844.884	23224.38
845.133	23222.38
845.381	23157.38
845.629	23171.38
845.877	23108.38
846.125	22995.38
846.373	22883.38
846.621	22934.38
846.869	22737.38
847.117	22681.38
847.365	22513.38
847.613	22468.38
847.861	22415.38
848.108	22378.38
848.356	22341.38
848.604	22197.38
848.851	22185.38
849.099	22201.38
849.346	22202.38
849.594	22441.38
849.841	22394.38
850.089	22379.38
850.336	22342.38
850.583	22329.38
850.831	22276.38
851.078	22148.38
851.325	22029.38
851.572	22085.38
851.819	21797.38
852.066	21450.38
852.313	21210.38
852.56	21111.38
852.807	21012.38
853.054	20965.38
853.301	20954.38
853.548	20835.38
853.794	20945.38
854.041	20981.38
854.288	21083.38
854.534	21271.38
854.781	21037.38
855.028	21170.38
855.274	21126.38
855.52	20975.38
855.767	20846.38
856.013	20889.38
856.26	21081.38
856.506	20608.38
856.752	20637.38
856.998	20552.38
857.244	20557.38
857.49	20731.38
857.736	20681.38
857.982	20647.38
858.228	20635.38
858.474	20437.38
858.72	20308.38
858.966	20208.38
859.212	19977.38
859.458	19821.38
859.703	19604.38
859.949	19494.38
860.195	19311.38
860.44	19225.38
860.686	19069.38
860.931	19023.38
861.177	18913.38
861.422	18906.38
861.667	18791.38
861.913	18823.38
862.158	18909.38
862.403	18938.38
862.648	18977.38
862.893	18958.38
863.138	18917.38
863.384	18758.38
863.629	18863.38
863.873	18796.38
864.118	18756.38
864.363	18645.38
864.608	18591.38
864.853	18474.38
865.098	18384.38
865.342	18286.38
865.587	18155.38
865.832	18209.38
866.076	18146.38
866.321	17971.38
866.565	18008.38
866.81	18006.38
867.054	17843.38
867.298	17810.38
867.543	17768.38
867.787	17734.38
868.031	17731.38
868.275	17530.38
868.519	17564.38
868.764	17506.38
869.008	17487.38
869.252	17438.38
869.496	17371.38
869.739	17335.38
869.983	17285.38
870.227	17243.38
870.471	17156.38
870.715	17264.38
870.958	17382.38
871.202	17238.38
871.446	17276.38
871.689	17255.38
871.933	17278.38
872.176	17303.38
872.42	17191.38
872.663	17288.38
872.906	17183.38
873.15	17031.38
873.393	17026.38
873.636	16962.38
873.879	16876.38
874.122	16700.38
874.366	16338.38
874.609	16334.38
874.852	16182.38
875.095	16131.38
875.337	16088.38
875.58	15845.38
875.823	15894.38
876.066	15858.38
876.309	15935.38
876.551	15695.38
876.794	15503.38
877.037	15613.38
877.279	15536.38
877.522	15564.38
877.764	15551.38
878.007	15491.38
878.249	15558.38
878.491	15438.38
878.734	15424.38
878.976	15457.38
879.218	15273.38
879.46	15247.38
879.702	15092.38
879.945	14954.38
880.187	14857.38
880.429	14782.38
880.671	14706.38
880.912	14686.38
881.154	14566.38
881.396	14430.38
881.638	14487.38
881.88	14554.38
882.121	14523.38
882.363	14428.38
882.605	14454.38
882.846	14372.38
883.088	14331.38
883.329	14274.38
883.571	14271.38
883.812	14304.38
884.053	14451.38
884.295	14661.38
884.536	14938.38
884.777	14690.38
885.018	14636.38
885.259	14585.38
885.5	14457.38
885.742	14683.38
885.982	14457.38
886.223	14238.38
886.464	14223.38
886.705	14073.38
886.946	14052.38
887.187	13860.38
887.428	13727.38
887.668	13498.38
887.909	13342.38
888.15	13214.38
888.39	13282.38
888.631	13126.38
888.871	13039.38
889.111	12879.38
889.352	12839.38
889.592	12753.38
889.833	12615.38
890.073	12561.38
890.313	12576.38
890.553	12336.38
890.793	12292.38
891.033	12227.38
891.273	12212.38
891.513	12116.38
891.753	12099.38
891.993	12108.38
892.233	12148.38
892.473	12232.38
892.713	12191.38
892.952	12092.38
893.192	12126.38
893.432	12119.38
893.671	11992.38
893.911	12040.38
894.15	11879.38
894.39	11738.38
894.629	11765.38
894.869	11725.38
895.108	11612.38
895.347	11473.38
895.587	11491.38
895.826	11491.38
896.065	11415.38
896.304	11397.38
896.543	11471.38
896.782	11243.38
897.021	11322.38
897.26	11301.38
897.499	11268.38
897.738	11258.38
897.977	11173.38
898.216	11029.38
898.454	10998.38
898.693	10841.38
898.932	10842.38
899.17	10728.38
899.409	10698.38
899.647	10644.38
899.886	10630.38
900.124	10675.38
900.363	10625.38
900.601	10700.38
900.839	10619.38
901.078	10670.38
901.316	10640.38
901.554	10741.38
901.792	10712.38
902.03	10620.38
902.268	10740.38
902.506	10709.38
902.744	10623.38
902.982	10579.38
903.22	10405.38
903.458	10309.38
903.695	10226.38
903.933	10027.38
904.171	9946.38
904.409	9744.38
904.646	9692.38
904.884	9542.38
905.121	9528.38
905.359	9370.38
905.596	9331.38
905.833	9236.38
906.071	9131.38
906.308	9271.38
906.545	9181.38
906.783	9109.38
907.02	9110.38
907.257	9045.38
907.494	8983.38
907.731	9045.38
907.968	8979.38
908.205	8897.38
908.442	8867.38
908.679	8730.38
908.915	8729.38
909.152	8606.38
909.389	8467.38
909.626	8533.38
909.862	8481.38
910.099	8467.38
910.335	8386.38
910.572	8359.38
910.808	8304.38
911.045	8264.38
911.281	8235.38
911.518	8251.38
911.754	8164.38
911.99	8122.38
912.226	8051.38
912.463	8004.38
912.699	7957.38
912.935	7884.38
913.171	7833.38
913.407	7694.38
913.643	7762.38
913.879	7600.38
914.114	7512.38
914.35	7520.38
914.586	7447.38
914.822	7332.38
915.057	7367.38
915.293	7226.38
915.529	7160.38
915.764	7297.38
916	7210.38
916.235	7169.38
916.471	7195.38
916.706	7053.38
916.941	7157.38
917.177	7058.38
917.412	7145.38
917.647	7121.38
917.882	7070.38
918.117	7045.38
918.352	7022.38
918.588	7058.38
918.823	6902.38
919.057	6882.38
919.292	6677.38
919.527	6802.38
919.762	6653.38
919.997	6635.38
920.232	6540.38
920.466	6525.38
920.701	6363.38
920.935	6397.38
921.17	6324.38
921.405	6263.38
921.639	6337.38
921.873	6256.38
922.108	6194.38
922.342	6230.38
922.576	6124.38
922.811	6135.38
923.045	6189.38
923.279	6217.38
923.513	6060.38
923.747	6122.38
923.981	6008.38
924.215	5947.38
924.449	5917.38
924.683	5865.38
924.917	5858.38
925.151	5801.38
925.385	5900.38
925.618	5789.38
925.852	5722.38
926.086	5662.38
926.319	5772.38
926.553	5738.38
926.786	5739.38
927.02	5681.38
927.253	5744.38
927.486	5706.38
927.72	5588.38
927.953	5662.38
928.186	5624.38
928.42	5663.38
928.653	5530.38
928.886	5559.38
929.119	5540.38
929.352	5495.38
929.585	5465.38
929.818	5442.38
930.051	5419.38
930.284	5326.38
930.516	5309.38
930.749	5251.38
930.982	5227.38
931.215	5245.38
931.447	5089.38
931.68	5133.38
931.912	5167.38
932.145	5094.38
932.377	5164.38
932.61	5248.38
932.842	5062.38
933.074	5161.38
933.307	5091.38
933.539	5133.38
933.771	5123.38
934.003	5087.38
934.236	5143.38
934.468	5158.38
934.7	5058.38
934.932	5103.38
935.164	4980.38
935.395	4965.38
935.627	5020.38
935.859	4991.38
936.091	4906.38
936.323	4887.38
936.554	4940.38
936.786	4899.38
937.017	4841.38
937.249	4831.38
937.481	4791.38
937.712	4805.38
937.943	4800.38
938.175	4808.38
938.406	4814.38
938.637	4889.38
938.869	4724.38
939.1	4796.38
939.331	4748.38
939.562	4765.38
939.793	4783.38
940.024	4719.38
940.255	4672.38
940.486	4615.38
940.717	4648.38
940.948	4630.38
941.179	4536.38
941.409	4546.38
941.64	4549.38
941.871	4578.38
942.102	4528.38
942.332	4528.38
942.563	4570.38
942.793	4525.38
943.024	4466.38
943.254	4557.38
943.484	4546.38
943.715	4604.38
943.945	4556.38
944.175	4433.38
944.405	4445.38
944.636	4406.38
944.866	4488.38
945.096	4486.38
945.326	4380.38
945.556	4453.38
945.786	4477.38
946.016	4396.38
946.245	4328.38
946.475	4294.38
946.705	4273.38
946.935	4280.38
947.164	4216.38
947.394	4221.38
947.624	4243.38
947.853	4208.38
948.083	4175.38
948.312	4112.38
948.542	4095.38
948.771	4059.38
949	4037.38
949.23	4079.38
949.459	4075.38
949.688	4165.38
949.917	4031.38
950.146	4078.38
950.375	4121.38
950.604	4011.38
950.833	4094.38
951.062	4113.38
951.291	4074.38
951.52	4014.38
951.749	4011.38
951.978	3939.38
952.206	3936.38
952.435	3892.38
952.664	3913.38
952.892	3962.38
953.121	3932.38
953.349	3928.38
953.578	3950.38
953.806	3891.38
954.035	3802.38
954.263	3834.38
954.491	3785.38
954.719	3822.38
954.948	3766.38
955.176	3719.38
955.404	3668.38
955.632	3717.38
955.86	3711.38
956.088	3701.38
956.316	3693.38
956.544	3725.38
956.772	3619.38
956.999	3622.38
957.227	3712.38
957.455	3560.38
957.683	3562.38
957.91	3526.38
958.138	3531.38
958.365	3485.38
958.593	3479.38
958.82	3460.38
959.048	3473.38
959.275	3425.38
959.502	3432.38
959.73	3362.38
959.957	3434.38
960.184	3460.38
960.411	3400.38
960.638	3425.38
960.865	3396.38
961.092	3426.38
961.319	3301.38
961.546	3420.38
961.773	3460.38
962	3388.38
962.227	3393.38
962.454	3355.38
962.68	3348.38
962.907	3339.38
963.134	3259.38
963.36	3295.38
963.587	3292.38
963.813	3184.38
964.04	3247.38
964.266	3209.38
964.493	3231.38
964.719	3235.38
964.945	3219.38
965.171	3110.38
965.398	3155.38
965.624	3203.38
965.85	3088.38
966.076	3067.38
966.302	3174.38
966.528	3076.38
966.754	3142.38
966.98	3090.38
967.206	3078.38
967.431	3016.38
967.657	3079.38
967.883	3049.38
968.109	3022.38
968.334	3005.38
968.56	2971.38
968.785	2968.38
969.011	2904.38
969.236	2956.38
969.462	2921.38
969.687	2916.38
969.912	2947.38
970.138	2929.38
970.363	2855.38
970.588	2906.38
970.813	2846.38
971.038	2864.38
971.263	2859.38
971.488	2881.38
971.713	2916.38
971.938	2859.38
972.163	2750.38
972.388	2808.38
972.613	2771.38
972.838	2767.38
973.062	2738.38
973.287	2762.38
973.512	2701.38
973.736	2732.38
973.961	2714.38
974.185	2657.38
974.41	2731.38
974.634	2580.38
974.858	2623.38
975.083	2666.38
975.307	2646.38
975.531	2582.38
975.755	2549.38
975.98	2533.38
976.204	2465.38
976.428	2473.38
976.652	2552.38
976.876	2451.38
977.1	2499.38
977.324	2455.38
977.547	2508.38
977.771	2483.38
977.995	2447.38
978.219	2433.38
978.442	2493.38
978.666	2449.38
978.89	2432.38
979.113	2441.38
979.337	2408.38
979.56	2382.38
979.783	2482.38
980.007	2370.38
980.23	2413.38
980.453	2339.38
980.677	2392.38
980.9	2381.38
981.123	2292.38
981.346	2353.38
981.569	2347.38
981.792	2358.38
982.015	2294.38
982.238	2262.38
982.461	2293.38
982.684	2225.38
982.907	2179.38
983.129	2189.38
983.352	2258.38
983.575	2192.38
983.797	2235.38
984.02	2156.38
984.242	2156.38
984.465	2187.38
984.687	2182.38
984.91	2241.38
985.132	2170.38
985.354	2166.38
985.577	2158.38
985.799	2130.38
986.021	2051.38
986.243	2120.38
986.465	2108.38
986.687	2172.38
986.909	2171.38
987.131	2147.38
987.353	2034.38
987.575	2080.38
987.797	2071.38
988.019	1997.38
988.241	2055.38
988.462	1986.38
988.684	2083.38
988.906	2109.38
989.127	2108.38
989.349	1981.38
989.57	2015.38
989.792	2060.38
990.013	2069.38
990.234	2065.38
990.456	2102.38
990.677	2043.38
990.898	1985.38
991.119	1976.38
991.341	1990.38
991.562	1941.38
991.783	1984.38
992.004	1930.38
992.225	1868.38
992.446	1960.38
992.667	1857.38
992.887	1960.38
993.108	1830.38
993.329	1953.38
993.55	1865.38
993.77	1844.38
993.991	1841.38
994.212	1882.38
994.432	1832.38
994.653	1874.38
994.873	1849.38
995.093	1742.38
995.314	1792.38
995.534	1846.38
995.754	1835.38
995.975	1868.38
996.195	1765.38
996.415	1835.38
996.635	1748.38
996.855	1806.38
997.075	1763.38
997.295	1754.38
997.515	1771.38
997.735	1787.38
997.955	1785.38
998.174	1738.38
998.394	1716.38
998.614	1793.38
998.834	1720.38
999.053	1777.38
999.273	1773.38
999.492	1826.38
999.712	1727.38
999.931	1708.38
1000.151	1729.38
1000.37	1711.38
1000.589	1761.38
1000.809	1682.38
1001.028	1799.38
1001.247	1715.38
1001.466	1644.38
1001.685	1741.38
1001.904	1710.38
1002.123	1717.38
1002.342	1715.38
1002.561	1628.38
1002.78	1666.38
1002.999	1719.38
1003.218	1678.38
1003.436	1621.38
1003.655	1677.38
1003.874	1604.38
1004.092	1654.38
1004.311	1655.38
1004.53	1654.38
1004.748	1719.38
1004.966	1616.38
1005.185	1683.38
1005.403	1673.38
1005.622	1644.38
1005.84	1685.38
1006.058	1624.38
1006.276	1604.38
1006.494	1993.38
1006.712	1654.38
1006.931	1692.38
1007.149	1593.38
1007.367	1602.38
1007.584	1655.38
1007.802	1672.38
1008.02	1615.38
1008.238	1695.38
1008.456	1702.38
1008.673	1549.38
1008.891	1681.38
1009.109	1624.38
1009.326	1690.38
1009.544	1776.38
1009.761	1676.38
1009.979	1753.38
1010.196	1786.38
1010.413	1869.38
1010.631	1897.38
1010.848	1947.38
1011.065	1951.38
1011.282	1890.38
1011.5	1848.38
1011.717	1954.38
1011.934	1881.38
1012.151	1904.38
1012.368	1867.38
1012.585	1789.38
1012.801	1894.38
1013.018	1813.38
1013.235	1781.38
1013.452	1804.38
1013.669	1835.38
1013.885	1795.38
1014.102	1843.38
1014.318	1802.38
1014.535	1784.38
1014.751	1802.38
1014.968	1789.38
1015.184	1823.38
1015.401	1716.38
1015.617	1759.38
1015.833	1710.38
1016.049	1700.38
1016.266	1700.38
1016.482	1674.38
1016.698	1612.38
1016.914	1686.38
1017.13	1589.38
1017.346	1589.38
1017.562	1645.38
1017.778	1584.38
1017.993	1548.38
1018.209	1602.38
1018.425	1550.38
1018.641	1537.38
1018.856	1512.38
1019.072	1539.38
1019.288	1583.38
1019.503	1531.38
1019.719	1453.38
1019.934	1460.38
1020.149	1575.38
1020.365	1476.38
1020.58	1439.38
1020.795	1463.38
1021.011	1413.38
1021.226	1407.38
1021.441	1393.38
1021.656	1295.38
1021.871	1259.38
1022.086	1263.38
1022.301	1270.38
1022.516	1242.38
1022.731	1279.38
1022.946	1212.38
1023.16	1192.38
1023.375	1152.38
1023.59	1144.38
1023.804	1100.38
1024.019	1191.38
1024.234	1088.38
1024.448	1100.38
1024.663	1016.38
1024.877	1059.38
1025.092	1060.38
1025.306	1048.38
1025.52	961.38
1025.734	1064.38
1025.949	965.38
1026.163	951.38
1026.377	886.38
1026.591	932.38
1026.805	874.38
1027.019	851.38
1027.233	816.38
1027.447	764.38
1027.661	869.38
1027.875	790.38
1028.088	803.38
1028.302	742.38
1028.516	732.38
1028.73	719.38
1028.943	727.38
1029.157	658.38
1029.37	620.38
1029.584	-2.62
1029.797	-3.62
1030.011	1.38
1030.224	-0.62
