Data from QEP037381__565__17-48-56-380.txt Node

Date: Fri Dec 16 17:48:56 EST 2022
User: dcclab
Spectrometer: QEP03738
Trigger mode: 4
Integration Time (sec): 1.000000E1
Scans to average: 1
Electric dark correction enabled: true
Nonlinearity correction enabled: false
Boxcar width: 0
XAxis mode: Wavelengths
Number of Pixels in Spectrum: 1044
>>>>>Begin Spectral Data<<<<<
784.041	12.25
784.3	-0.75
784.558	0.25
784.817	-2.75
785.075	118585.25
785.334	20372.25
785.592	9430.25
785.851	6496.25
786.109	4889.25
786.368	3798.25
786.626	3041.25
786.884	2505.25
787.143	2119.25
787.401	1733.25
787.659	1535.25
787.917	1352.25
788.175	1207.25
788.433	1081.25
788.691	966.25
788.949	872.25
789.207	837.25
789.465	716.25
789.723	683.25
789.98	639.25
790.238	680.25
790.496	629.25
790.753	588.25
791.011	653.25
791.268	571.25
791.526	565.25
791.783	563.25
792.041	562.25
792.298	464.25
792.556	520.25
792.813	514.25
793.07	489.25
793.327	474.25
793.584	553.25
793.841	464.25
794.099	482.25
794.356	559.25
794.613	448.25
794.869	483.25
795.126	440.25
795.383	431.25
795.64	474.25
795.897	390.25
796.153	452.25
796.41	447.25
796.667	429.25
796.923	448.25
797.18	438.25
797.436	457.25
797.693	424.25
797.949	477.25
798.206	506.25
798.462	432.25
798.718	496.25
798.974	468.25
799.231	495.25
799.487	498.25
799.743	512.25
799.999	533.25
800.255	522.25
800.511	505.25
800.767	545.25
801.023	544.25
801.279	579.25
801.534	618.25
801.79	671.25
802.046	677.25
802.302	825.25
802.557	928.25
802.813	1187.25
803.068	1455.25
803.324	2034.25
803.579	2758.25
803.835	3795.25
804.09	5207.25
804.345	6850.25
804.601	8669.25
804.856	10582.25
805.111	12057.25
805.366	13395.25
805.621	14273.25
805.876	14886.25
806.131	15281.25
806.386	15486.25
806.641	15695.25
806.896	16155.25
807.151	16375.25
807.406	16514.25
807.661	16867.25
807.915	17145.25
808.17	17351.25
808.425	17520.25
808.679	17721.25
808.934	17864.25
809.188	18022.25
809.443	18242.25
809.697	18470.25
809.951	18510.25
810.206	18680.25
810.46	18793.25
810.714	18997.25
810.968	19155.25
811.223	19272.25
811.477	19480.25
811.731	19529.25
811.985	19657.25
812.239	19747.25
812.493	19777.25
812.747	19861.25
813	19940.25
813.254	19981.25
813.508	20221.25
813.762	20099.25
814.015	20226.25
814.269	20341.25
814.522	20521.25
814.776	20791.25
815.03	21004.25
815.283	21429.25
815.536	21655.25
815.79	21890.25
816.043	22219.25
816.296	22489.25
816.55	22720.25
816.803	23014.25
817.056	23251.25
817.309	23499.25
817.562	23559.25
817.815	23869.25
818.068	23892.25
818.321	24269.25
818.574	24480.25
818.827	24716.25
819.079	25119.25
819.332	25541.25
819.585	25851.25
819.838	26098.25
820.09	26298.25
820.343	26395.25
820.595	26587.25
820.848	26815.25
821.1	26878.25
821.353	26873.25
821.605	26767.25
821.857	26980.25
822.11	26661.25
822.362	26547.25
822.614	26522.25
822.866	26594.25
823.118	26567.25
823.37	26683.25
823.622	26811.25
823.874	26776.25
824.126	26948.25
824.378	26912.25
824.63	26922.25
824.882	27063.25
825.134	26979.25
825.385	26961.25
825.637	26907.25
825.888	26869.25
826.14	26676.25
826.392	26574.25
826.643	26426.25
826.895	26311.25
827.146	26166.25
827.397	26227.25
827.649	26158.25
827.9	26149.25
828.151	26124.25
828.402	26262.25
828.653	26326.25
828.905	26348.25
829.156	26294.25
829.407	26347.25
829.658	26230.25
829.909	26390.25
830.159	26149.25
830.41	26142.25
830.661	26007.25
830.912	25796.25
831.162	25601.25
831.413	25642.25
831.664	25577.25
831.914	25550.25
832.165	25568.25
832.415	25400.25
832.666	25623.25
832.916	25581.25
833.167	25459.25
833.417	25408.25
833.667	25325.25
833.917	25403.25
834.168	25202.25
834.418	25097.25
834.668	24960.25
834.918	24939.25
835.168	24821.25
835.418	24695.25
835.668	24777.25
835.918	24550.25
836.167	24481.25
836.417	24379.25
836.667	24395.25
836.917	24275.25
837.166	24242.25
837.416	24288.25
837.666	24302.25
837.915	24232.25
838.165	24067.25
838.414	24006.25
838.663	23903.25
838.913	24029.25
839.162	23792.25
839.411	23952.25
839.661	23733.25
839.91	23665.25
840.159	23609.25
840.408	23585.25
840.657	23677.25
840.906	23638.25
841.155	23471.25
841.404	23612.25
841.653	23535.25
841.902	23538.25
842.15	23576.25
842.399	23632.25
842.648	23525.25
842.897	23406.25
843.145	23185.25
843.394	23094.25
843.642	22976.25
843.891	22910.25
844.139	22694.25
844.388	22684.25
844.636	22579.25
844.884	22569.25
845.133	22660.25
845.381	22518.25
845.629	22496.25
845.877	22413.25
846.125	22354.25
846.373	22355.25
846.621	22168.25
846.869	22178.25
847.117	22096.25
847.365	21909.25
847.613	21896.25
847.861	21770.25
848.108	21627.25
848.356	21557.25
848.604	21543.25
848.851	21661.25
849.099	21615.25
849.346	21712.25
849.594	21655.25
849.841	21734.25
850.089	21756.25
850.336	21774.25
850.583	21757.25
850.831	21590.25
851.078	21534.25
851.325	21400.25
851.572	21441.25
851.819	21161.25
852.066	21059.25
852.313	20739.25
852.56	20561.25
852.807	20429.25
853.054	20338.25
853.301	20284.25
853.548	20310.25
853.794	20400.25
854.041	20530.25
854.288	20498.25
854.534	20729.25
854.781	20632.25
855.028	20632.25
855.274	20610.25
855.52	20344.25
855.767	20311.25
856.013	20263.25
856.26	20524.25
856.506	20023.25
856.752	20109.25
856.998	20062.25
857.244	20104.25
857.49	20220.25
857.736	20224.25
857.982	20170.25
858.228	20023.25
858.474	20017.25
858.72	19796.25
858.966	19656.25
859.212	19546.25
859.458	19227.25
859.703	19079.25
859.949	18867.25
860.195	18847.25
860.44	18720.25
860.686	18552.25
860.931	18657.25
861.177	18452.25
861.422	18441.25
861.667	18404.25
861.913	18317.25
862.158	18335.25
862.403	18387.25
862.648	18443.25
862.893	18504.25
863.138	18432.25
863.384	18376.25
863.629	18350.25
863.873	18353.25
864.118	18259.25
864.363	18187.25
864.608	18141.25
864.853	18099.25
865.098	17962.25
865.342	17876.25
865.587	17888.25
865.832	17823.25
866.076	17664.25
866.321	17703.25
866.565	17649.25
866.81	17409.25
867.054	17394.25
867.298	17481.25
867.543	17331.25
867.787	17407.25
868.031	17288.25
868.275	17163.25
868.519	17108.25
868.764	17090.25
869.008	17114.25
869.252	17073.25
869.496	16856.25
869.739	16984.25
869.983	16838.25
870.227	16926.25
870.471	16847.25
870.715	16811.25
870.958	16917.25
871.202	16869.25
871.446	16973.25
871.689	16881.25
871.933	16913.25
872.176	16954.25
872.42	16946.25
872.663	16957.25
872.906	16834.25
873.15	16739.25
873.393	16592.25
873.636	16569.25
873.879	16468.25
874.122	16269.25
874.366	16053.25
874.609	15974.25
874.852	15909.25
875.095	15813.25
875.337	15679.25
875.58	15688.25
875.823	15589.25
876.066	15577.25
876.309	15494.25
876.551	15355.25
876.794	15316.25
877.037	15256.25
877.279	15150.25
877.522	15304.25
877.764	15294.25
878.007	15179.25
878.249	15316.25
878.491	15188.25
878.734	15249.25
878.976	15098.25
879.218	14966.25
879.46	15022.25
879.702	14845.25
879.945	14678.25
880.187	14597.25
880.429	14567.25
880.671	14502.25
880.912	14427.25
881.154	14283.25
881.396	14217.25
881.638	14196.25
881.88	14284.25
882.121	14212.25
882.363	14155.25
882.605	14231.25
882.846	14146.25
883.088	14113.25
883.329	13998.25
883.571	13981.25
883.812	14072.25
884.053	14294.25
884.295	14364.25
884.536	14536.25
884.777	14386.25
885.018	14374.25
885.259	14297.25
885.5	14203.25
885.742	14428.25
885.982	14133.25
886.223	14061.25
886.464	13926.25
886.705	13867.25
886.946	13738.25
887.187	13514.25
887.428	13560.25
887.668	13262.25
887.909	13187.25
888.15	13047.25
888.39	12885.25
888.631	12936.25
888.871	12885.25
889.111	12690.25
889.352	12544.25
889.592	12435.25
889.833	12450.25
890.073	12399.25
890.313	12338.25
890.553	12101.25
890.793	12201.25
891.033	12064.25
891.273	12025.25
891.513	11917.25
891.753	12065.25
891.993	11923.25
892.233	11999.25
892.473	12031.25
892.713	12044.25
892.952	11908.25
893.192	11979.25
893.432	11822.25
893.671	11914.25
893.911	11853.25
894.15	11827.25
894.39	11629.25
894.629	11611.25
894.869	11594.25
895.108	11539.25
895.347	11383.25
895.587	11400.25
895.826	11308.25
896.065	11218.25
896.304	11330.25
896.543	11289.25
896.782	11167.25
897.021	11194.25
897.26	11117.25
897.499	11146.25
897.738	11156.25
897.977	10967.25
898.216	10949.25
898.454	10818.25
898.693	10828.25
898.932	10734.25
899.17	10737.25
899.409	10586.25
899.647	10596.25
899.886	10597.25
900.124	10541.25
900.363	10505.25
900.601	10603.25
900.839	10554.25
901.078	10490.25
901.316	10590.25
901.554	10627.25
901.792	10653.25
902.03	10534.25
902.268	10538.25
902.506	10572.25
902.744	10535.25
902.982	10446.25
903.22	10309.25
903.458	10254.25
903.695	10054.25
903.933	9976.25
904.171	9813.25
904.409	9719.25
904.646	9619.25
904.884	9460.25
905.121	9452.25
905.359	9340.25
905.596	9265.25
905.833	9147.25
906.071	9111.25
906.308	9167.25
906.545	9135.25
906.783	8971.25
907.02	9016.25
907.257	8981.25
907.494	8952.25
907.731	8941.25
907.968	8885.25
908.205	8844.25
908.442	8749.25
908.679	8719.25
908.915	8686.25
909.152	8665.25
909.389	8442.25
909.626	8468.25
909.862	8341.25
910.099	8386.25
910.335	8369.25
910.572	8279.25
910.808	8247.25
911.045	8241.25
911.281	8231.25
911.518	8234.25
911.754	8086.25
911.99	8042.25
912.226	8026.25
912.463	7943.25
912.699	7884.25
912.935	7863.25
913.171	7768.25
913.407	7719.25
913.643	7685.25
913.879	7688.25
914.114	7518.25
914.35	7455.25
914.586	7352.25
914.822	7296.25
915.057	7336.25
915.293	7202.25
915.529	7178.25
915.764	7253.25
916	7164.25
916.235	7157.25
916.471	7121.25
916.706	7006.25
916.941	7027.25
917.177	7089.25
917.412	7109.25
917.647	7112.25
917.882	7002.25
918.117	7019.25
918.352	6991.25
918.588	6950.25
918.823	6906.25
919.057	6858.25
919.292	6690.25
919.527	6758.25
919.762	6608.25
919.997	6630.25
920.232	6525.25
920.466	6478.25
920.701	6345.25
920.935	6336.25
921.17	6376.25
921.405	6231.25
921.639	6232.25
921.873	6227.25
922.108	6201.25
922.342	6195.25
922.576	6085.25
922.811	6112.25
923.045	6137.25
923.279	6134.25
923.513	5973.25
923.747	6038.25
923.981	6008.25
924.215	5884.25
924.449	5875.25
924.683	5821.25
924.917	5822.25
925.151	5803.25
925.385	5789.25
925.618	5778.25
925.852	5773.25
926.086	5717.25
926.319	5740.25
926.553	5734.25
926.786	5746.25
927.02	5710.25
927.253	5702.25
927.486	5663.25
927.72	5644.25
927.953	5656.25
928.186	5645.25
928.42	5664.25
928.653	5501.25
928.886	5505.25
929.119	5518.25
929.352	5489.25
929.585	5437.25
929.818	5401.25
930.051	5385.25
930.284	5404.25
930.516	5219.25
930.749	5173.25
930.982	5203.25
931.215	5203.25
931.447	5142.25
931.68	5082.25
931.912	5113.25
932.145	5119.25
932.377	5115.25
932.61	5218.25
932.842	5062.25
933.074	5110.25
933.307	5068.25
933.539	5141.25
933.771	5098.25
934.003	5068.25
934.236	5155.25
934.468	5138.25
934.7	5027.25
934.932	5031.25
935.164	4999.25
935.395	4958.25
935.627	4993.25
935.859	4965.25
936.091	4894.25
936.323	4957.25
936.554	4955.25
936.786	4896.25
937.017	4800.25
937.249	4888.25
937.481	4784.25
937.712	4804.25
937.943	4780.25
938.175	4774.25
938.406	4781.25
938.637	4812.25
938.869	4762.25
939.1	4780.25
939.331	4718.25
939.562	4707.25
939.793	4707.25
940.024	4707.25
940.255	4735.25
940.486	4661.25
940.717	4642.25
940.948	4626.25
941.179	4539.25
941.409	4542.25
941.64	4567.25
941.871	4595.25
942.102	4547.25
942.332	4542.25
942.563	4561.25
942.793	4530.25
943.024	4462.25
943.254	4562.25
943.484	4607.25
943.715	4576.25
943.945	4498.25
944.175	4473.25
944.405	4437.25
944.636	4419.25
944.866	4471.25
945.096	4465.25
945.326	4410.25
945.556	4460.25
945.786	4436.25
946.016	4316.25
946.245	4292.25
946.475	4261.25
946.705	4270.25
946.935	4249.25
947.164	4290.25
947.394	4187.25
947.624	4185.25
947.853	4259.25
948.083	4183.25
948.312	4133.25
948.542	4049.25
948.771	4043.25
949	4062.25
949.23	4077.25
949.459	4081.25
949.688	4095.25
949.917	4049.25
950.146	4060.25
950.375	4152.25
950.604	3998.25
950.833	4104.25
951.062	4087.25
951.291	4036.25
951.52	3995.25
951.749	4009.25
951.978	3993.25
952.206	3939.25
952.435	3922.25
952.664	3984.25
952.892	3962.25
953.121	3897.25
953.349	3961.25
953.578	3926.25
953.806	3835.25
954.035	3847.25
954.263	3799.25
954.491	3745.25
954.719	3824.25
954.948	3772.25
955.176	3737.25
955.404	3685.25
955.632	3748.25
955.86	3683.25
956.088	3701.25
956.316	3655.25
956.544	3697.25
956.772	3632.25
956.999	3625.25
957.227	3659.25
957.455	3543.25
957.683	3580.25
957.91	3531.25
958.138	3497.25
958.365	3485.25
958.593	3487.25
958.82	3394.25
959.048	3457.25
959.275	3490.25
959.502	3390.25
959.73	3425.25
959.957	3422.25
960.184	3464.25
960.411	3411.25
960.638	3463.25
960.865	3423.25
961.092	3416.25
961.319	3350.25
961.546	3445.25
961.773	3425.25
962	3390.25
962.227	3396.25
962.454	3340.25
962.68	3336.25
962.907	3343.25
963.134	3319.25
963.36	3247.25
963.587	3276.25
963.813	3233.25
964.04	3250.25
964.266	3169.25
964.493	3302.25
964.719	3216.25
964.945	3201.25
965.171	3077.25
965.398	3179.25
965.624	3193.25
965.85	3096.25
966.076	3078.25
966.302	3118.25
966.528	3052.25
966.754	3050.25
966.98	3073.25
967.206	3044.25
967.431	2962.25
967.657	3051.25
967.883	3040.25
968.109	3023.25
968.334	2967.25
968.56	2933.25
968.785	2974.25
969.011	2923.25
969.236	2995.25
969.462	2887.25
969.687	2887.25
969.912	2983.25
970.138	2980.25
970.363	2870.25
970.588	2891.25
970.813	2861.25
971.038	2825.25
971.263	2873.25
971.488	2865.25
971.713	2903.25
971.938	2862.25
972.163	2800.25
972.388	2775.25
972.613	2774.25
972.838	2747.25
973.062	2783.25
973.287	2742.25
973.512	2657.25
973.736	2712.25
973.961	2715.25
974.185	2700.25
974.41	2700.25
974.634	2584.25
974.858	2609.25
975.083	2656.25
975.307	2671.25
975.531	2567.25
975.755	2527.25
975.98	2542.25
976.204	2503.25
976.428	2496.25
976.652	2482.25
976.876	2458.25
977.1	2495.25
977.324	2441.25
977.547	2470.25
977.771	2494.25
977.995	2476.25
978.219	2374.25
978.442	2505.25
978.666	2430.25
978.89	2425.25
979.113	2412.25
979.337	2439.25
979.56	2381.25
979.783	2466.25
980.007	2346.25
980.23	2384.25
980.453	2340.25
980.677	2386.25
980.9	2353.25
981.123	2276.25
981.346	2376.25
981.569	2325.25
981.792	2355.25
982.015	2308.25
982.238	2251.25
982.461	2296.25
982.684	2210.25
982.907	2226.25
983.129	2205.25
983.352	2235.25
983.575	2209.25
983.797	2222.25
984.02	2152.25
984.242	2171.25
984.465	2148.25
984.687	2229.25
984.91	2212.25
985.132	2185.25
985.354	2183.25
985.577	2150.25
985.799	2154.25
986.021	2042.25
986.243	2111.25
986.465	2081.25
986.687	2111.25
986.909	2157.25
987.131	2087.25
987.353	2080.25
987.575	2125.25
987.797	2067.25
988.019	1981.25
988.241	2044.25
988.462	2026.25
988.684	2064.25
988.906	2091.25
989.127	2089.25
989.349	2005.25
989.57	2025.25
989.792	2039.25
990.013	2047.25
990.234	2056.25
990.456	2088.25
990.677	2055.25
990.898	1978.25
991.119	1993.25
991.341	2006.25
991.562	1922.25
991.783	1997.25
992.004	1922.25
992.225	1901.25
992.446	1921.25
992.667	1882.25
992.887	1958.25
993.108	1836.25
993.329	1937.25
993.55	1915.25
993.77	1819.25
993.991	1829.25
994.212	1895.25
994.432	1874.25
994.653	1854.25
994.873	1830.25
995.093	1700.25
995.314	1781.25
995.534	1845.25
995.754	1813.25
995.975	1836.25
996.195	1755.25
996.415	1809.25
996.635	1778.25
996.855	1803.25
997.075	1767.25
997.295	1763.25
997.515	1732.25
997.735	1814.25
997.955	1747.25
998.174	1750.25
998.394	1718.25
998.614	1768.25
998.834	1733.25
999.053	1795.25
999.273	1762.25
999.492	1791.25
999.712	1713.25
999.931	1690.25
1000.151	1715.25
1000.37	1691.25
1000.589	1767.25
1000.809	1678.25
1001.028	1789.25
1001.247	1731.25
1001.466	1606.25
1001.685	1776.25
1001.904	1678.25
1002.123	1702.25
1002.342	1676.25
1002.561	1621.25
1002.78	1683.25
1002.999	1728.25
1003.218	1657.25
1003.436	1615.25
1003.655	1657.25
1003.874	1621.25
1004.092	1625.25
1004.311	1699.25
1004.53	1615.25
1004.748	1747.25
1004.966	1621.25
1005.185	1660.25
1005.403	1647.25
1005.622	1636.25
1005.84	1682.25
1006.058	1602.25
1006.276	1635.25
1006.494	1979.25
1006.712	1603.25
1006.931	1684.25
1007.149	1551.25
1007.367	1598.25
1007.584	1623.25
1007.802	1651.25
1008.02	1594.25
1008.238	1696.25
1008.456	1677.25
1008.673	1542.25
1008.891	1665.25
1009.109	1579.25
1009.326	1649.25
1009.544	1755.25
1009.761	1645.25
1009.979	1730.25
1010.196	1717.25
1010.413	1794.25
1010.631	1874.25
1010.848	1896.25
1011.065	1892.25
1011.282	1808.25
1011.5	1786.25
1011.717	1886.25
1011.934	1827.25
1012.151	1838.25
1012.368	1830.25
1012.585	1734.25
1012.801	1804.25
1013.018	1793.25
1013.235	1734.25
1013.452	1776.25
1013.669	1779.25
1013.885	1762.25
1014.102	1779.25
1014.318	1747.25
1014.535	1732.25
1014.751	1760.25
1014.968	1748.25
1015.184	1777.25
1015.401	1704.25
1015.617	1719.25
1015.833	1653.25
1016.049	1650.25
1016.266	1631.25
1016.482	1666.25
1016.698	1563.25
1016.914	1615.25
1017.13	1560.25
1017.346	1564.25
1017.562	1621.25
1017.778	1549.25
1017.993	1529.25
1018.209	1594.25
1018.425	1547.25
1018.641	1512.25
1018.856	1496.25
1019.072	1528.25
1019.288	1562.25
1019.503	1516.25
1019.719	1459.25
1019.934	1447.25
1020.149	1527.25
1020.365	1444.25
1020.58	1416.25
1020.795	1443.25
1021.011	1400.25
1021.226	1370.25
1021.441	1397.25
1021.656	1331.25
1021.871	1233.25
1022.086	1248.25
1022.301	1243.25
1022.516	1219.25
1022.731	1271.25
1022.946	1206.25
1023.16	1188.25
1023.375	1158.25
1023.59	1146.25
1023.804	1110.25
1024.019	1214.25
1024.234	1074.25
1024.448	1121.25
1024.663	1029.25
1024.877	1056.25
1025.092	1055.25
1025.306	1066.25
1025.52	972.25
1025.734	1055.25
1025.949	984.25
1026.163	963.25
1026.377	889.25
1026.591	929.25
1026.805	846.25
1027.019	846.25
1027.233	821.25
1027.447	776.25
1027.661	861.25
1027.875	797.25
1028.088	818.25
1028.302	744.25
1028.516	738.25
1028.73	735.25
1028.943	719.25
1029.157	684.25
1029.37	621.25
1029.584	-0.75
1029.797	-5.75
1030.011	-0.75
1030.224	-1.75
