Data from QEP037381__563__17-48-36-380.txt Node

Date: Fri Dec 16 17:48:36 EST 2022
User: dcclab
Spectrometer: QEP03738
Trigger mode: 4
Integration Time (sec): 1.000000E1
Scans to average: 1
Electric dark correction enabled: true
Nonlinearity correction enabled: false
Boxcar width: 0
XAxis mode: Wavelengths
Number of Pixels in Spectrum: 1044
>>>>>Begin Spectral Data<<<<<
784.041	12.38
784.3	-1.62
784.558	-1.62
784.817	-2.62
785.075	117576.38
785.334	20706.38
785.592	9681.38
785.851	6701.38
786.109	5021.38
786.368	3864.38
786.626	3092.38
786.884	2546.38
787.143	2155.38
787.401	1760.38
787.659	1592.38
787.917	1337.38
788.175	1222.38
788.433	1093.38
788.691	973.38
788.949	890.38
789.207	847.38
789.465	751.38
789.723	707.38
789.98	647.38
790.238	681.38
790.496	629.38
790.753	616.38
791.011	646.38
791.268	568.38
791.526	560.38
791.783	575.38
792.041	553.38
792.298	459.38
792.556	522.38
792.813	519.38
793.07	477.38
793.327	463.38
793.584	550.38
793.841	467.38
794.099	478.38
794.356	546.38
794.613	437.38
794.869	500.38
795.126	453.38
795.383	416.38
795.64	451.38
795.897	411.38
796.153	471.38
796.41	452.38
796.667	435.38
796.923	447.38
797.18	432.38
797.436	466.38
797.693	425.38
797.949	469.38
798.206	513.38
798.462	414.38
798.718	473.38
798.974	458.38
799.231	504.38
799.487	487.38
799.743	495.38
799.999	526.38
800.255	521.38
800.511	525.38
800.767	550.38
801.023	547.38
801.279	589.38
801.534	626.38
801.79	657.38
802.046	685.38
802.302	842.38
802.557	966.38
802.813	1221.38
803.068	1525.38
803.324	2078.38
803.579	2910.38
803.835	4003.38
804.09	5568.38
804.345	7250.38
804.601	9086.38
804.856	10976.38
805.111	12521.38
805.366	13787.38
805.621	14591.38
805.876	15259.38
806.131	15543.38
806.386	15986.38
806.641	16178.38
806.896	16401.38
807.151	16759.38
807.406	16872.38
807.661	17254.38
807.915	17430.38
808.17	17753.38
808.425	17918.38
808.679	18061.38
808.934	18313.38
809.188	18406.38
809.443	18518.38
809.697	18890.38
809.951	18847.38
810.206	19069.38
810.46	19177.38
810.714	19301.38
810.968	19560.38
811.223	19583.38
811.477	19825.38
811.731	19992.38
811.985	19984.38
812.239	20153.38
812.493	20230.38
812.747	20346.38
813	20310.38
813.254	20440.38
813.508	20531.38
813.762	20561.38
814.015	20654.38
814.269	20819.38
814.522	20975.38
814.776	21107.38
815.03	21357.38
815.283	21732.38
815.536	22007.38
815.79	22234.38
816.043	22681.38
816.296	22887.38
816.55	23082.38
816.803	23371.38
817.056	23664.38
817.309	23768.38
817.562	24036.38
817.815	24259.38
818.068	24463.38
818.321	24715.38
818.574	24901.38
818.827	25352.38
819.079	25481.38
819.332	26018.38
819.585	26202.38
819.838	26513.38
820.09	26712.38
820.343	26891.38
820.595	26997.38
820.848	27262.38
821.1	27186.38
821.353	27173.38
821.605	27308.38
821.857	27247.38
822.11	27031.38
822.362	27098.38
822.614	27133.38
822.866	27015.38
823.118	26969.38
823.37	27027.38
823.622	27155.38
823.874	27199.38
824.126	27401.38
824.378	27438.38
824.63	27359.38
824.882	27431.38
825.134	27402.38
825.385	27507.38
825.637	27262.38
825.888	27256.38
826.14	27240.38
826.392	27016.38
826.643	26811.38
826.895	26801.38
827.146	26691.38
827.397	26556.38
827.649	26583.38
827.9	26518.38
828.151	26602.38
828.402	26675.38
828.653	26730.38
828.905	26864.38
829.156	26766.38
829.407	26706.38
829.658	26591.38
829.909	26763.38
830.159	26673.38
830.41	26481.38
830.661	26295.38
830.912	26187.38
831.162	26147.38
831.413	26005.38
831.664	26026.38
831.914	26081.38
832.165	25883.38
832.415	25912.38
832.666	25909.38
832.916	25771.38
833.167	25814.38
833.417	25990.38
833.667	25752.38
833.917	25770.38
834.168	25570.38
834.418	25568.38
834.668	25505.38
834.918	25322.38
835.168	25227.38
835.418	25133.38
835.668	25050.38
835.918	25058.38
836.167	24948.38
836.417	24788.38
836.667	24781.38
836.917	24822.38
837.166	24715.38
837.416	24690.38
837.666	24619.38
837.915	24639.38
838.165	24559.38
838.414	24334.38
838.663	24355.38
838.913	24356.38
839.162	24193.38
839.411	24277.38
839.661	24097.38
839.91	24030.38
840.159	24026.38
840.408	23951.38
840.657	23862.38
840.906	23893.38
841.155	24077.38
841.404	23806.38
841.653	23872.38
841.902	23931.38
842.15	23963.38
842.399	23828.38
842.648	23938.38
842.897	23895.38
843.145	23587.38
843.394	23502.38
843.642	23455.38
843.891	23303.38
844.139	23085.38
844.388	22946.38
844.636	22925.38
844.884	22795.38
845.133	22731.38
845.381	22763.38
845.629	22819.38
845.877	22740.38
846.125	22724.38
846.373	22574.38
846.621	22559.38
846.869	22459.38
847.117	22287.38
847.365	22221.38
847.613	22168.38
847.861	22137.38
848.108	22034.38
848.356	21828.38
848.604	21855.38
848.851	21896.38
849.099	21837.38
849.346	22026.38
849.594	22032.38
849.841	22164.38
850.089	22131.38
850.336	22073.38
850.583	22032.38
850.831	21951.38
851.078	21852.38
851.325	21778.38
851.572	21676.38
851.819	21504.38
852.066	21147.38
852.313	20924.38
852.56	20793.38
852.807	20710.38
853.054	20585.38
853.301	20588.38
853.548	20505.38
853.794	20682.38
854.041	20644.38
854.288	20890.38
854.534	21066.38
854.781	21014.38
855.028	20776.38
855.274	20786.38
855.52	20677.38
855.767	20460.38
856.013	20604.38
856.26	20786.38
856.506	20401.38
856.752	20330.38
856.998	20235.38
857.244	20304.38
857.49	20396.38
857.736	20584.38
857.982	20491.38
858.228	20341.38
858.474	20261.38
858.72	20136.38
858.966	19955.38
859.212	19709.38
859.458	19634.38
859.703	19366.38
859.949	19155.38
860.195	19165.38
860.44	19021.38
860.686	18771.38
860.931	18869.38
861.177	18687.38
861.422	18723.38
861.667	18544.38
861.913	18627.38
862.158	18665.38
862.403	18764.38
862.648	18750.38
862.893	18823.38
863.138	18792.38
863.384	18612.38
863.629	18665.38
863.873	18632.38
864.118	18551.38
864.363	18320.38
864.608	18425.38
864.853	18356.38
865.098	18232.38
865.342	18167.38
865.587	18091.38
865.832	18118.38
866.076	17927.38
866.321	17798.38
866.565	17922.38
866.81	17707.38
867.054	17649.38
867.298	17790.38
867.543	17533.38
867.787	17472.38
868.031	17504.38
868.275	17504.38
868.519	17385.38
868.764	17355.38
869.008	17364.38
869.252	17277.38
869.496	17101.38
869.739	17098.38
869.983	17193.38
870.227	17083.38
870.471	17071.38
870.715	17152.38
870.958	17123.38
871.202	17170.38
871.446	17182.38
871.689	17208.38
871.933	17103.38
872.176	17146.38
872.42	17177.38
872.663	17033.38
872.906	16946.38
873.15	16935.38
873.393	16841.38
873.636	16847.38
873.879	16569.38
874.122	16513.38
874.366	16271.38
874.609	16173.38
874.852	16100.38
875.095	16035.38
875.337	15920.38
875.58	15725.38
875.823	15803.38
876.066	15847.38
876.309	15701.38
876.551	15620.38
876.794	15531.38
877.037	15598.38
877.279	15405.38
877.522	15487.38
877.764	15530.38
878.007	15426.38
878.249	15411.38
878.491	15381.38
878.734	15526.38
878.976	15376.38
879.218	15178.38
879.46	15241.38
879.702	15014.38
879.945	14936.38
880.187	14738.38
880.429	14694.38
880.671	14580.38
880.912	14650.38
881.154	14575.38
881.396	14327.38
881.638	14462.38
881.88	14440.38
882.121	14444.38
882.363	14368.38
882.605	14386.38
882.846	14226.38
883.088	14274.38
883.329	14215.38
883.571	14191.38
883.812	14247.38
884.053	14310.38
884.295	14611.38
884.536	14660.38
884.777	14590.38
885.018	14676.38
885.259	14457.38
885.5	14445.38
885.742	14543.38
885.982	14369.38
886.223	14268.38
886.464	14088.38
886.705	14054.38
886.946	13881.38
887.187	13771.38
887.428	13627.38
887.668	13501.38
887.909	13334.38
888.15	13136.38
888.39	13186.38
888.631	13008.38
888.871	12989.38
889.111	12908.38
889.352	12807.38
889.592	12732.38
889.833	12592.38
890.073	12493.38
890.313	12539.38
890.553	12390.38
890.793	12316.38
891.033	12204.38
891.273	12226.38
891.513	12044.38
891.753	12064.38
891.993	12118.38
892.233	12131.38
892.473	12225.38
892.713	12176.38
892.952	12111.38
893.192	12105.38
893.432	12077.38
893.671	12147.38
893.911	11997.38
894.15	11920.38
894.39	11798.38
894.629	11694.38
894.869	11682.38
895.108	11590.38
895.347	11521.38
895.587	11494.38
895.826	11437.38
896.065	11399.38
896.304	11457.38
896.543	11368.38
896.782	11270.38
897.021	11292.38
897.26	11260.38
897.499	11332.38
897.738	11202.38
897.977	11048.38
898.216	11088.38
898.454	10912.38
898.693	10853.38
898.932	10886.38
899.17	10718.38
899.409	10763.38
899.647	10695.38
899.886	10678.38
900.124	10724.38
900.363	10624.38
900.601	10671.38
900.839	10641.38
901.078	10664.38
901.316	10723.38
901.554	10713.38
901.792	10725.38
902.03	10704.38
902.268	10745.38
902.506	10730.38
902.744	10553.38
902.982	10558.38
903.22	10457.38
903.458	10297.38
903.695	10276.38
903.933	10042.38
904.171	9886.38
904.409	9800.38
904.646	9684.38
904.884	9610.38
905.121	9462.38
905.359	9380.38
905.596	9289.38
905.833	9173.38
906.071	9199.38
906.308	9198.38
906.545	9168.38
906.783	9130.38
907.02	9103.38
907.257	9049.38
907.494	9081.38
907.731	9049.38
907.968	8951.38
908.205	8921.38
908.442	8821.38
908.679	8883.38
908.915	8800.38
909.152	8699.38
909.389	8583.38
909.626	8605.38
909.862	8441.38
910.099	8465.38
910.335	8479.38
910.572	8284.38
910.808	8371.38
911.045	8364.38
911.281	8223.38
911.518	8273.38
911.754	8184.38
911.99	8184.38
912.226	8087.38
912.463	7992.38
912.699	7916.38
912.935	7912.38
913.171	7861.38
913.407	7747.38
913.643	7814.38
913.879	7665.38
914.114	7656.38
914.35	7492.38
914.586	7469.38
914.822	7399.38
915.057	7418.38
915.293	7270.38
915.529	7231.38
915.764	7283.38
916	7227.38
916.235	7282.38
916.471	7215.38
916.706	7116.38
916.941	7158.38
917.177	7145.38
917.412	7176.38
917.647	7109.38
917.882	7008.38
918.117	7145.38
918.352	7108.38
918.588	7045.38
918.823	6942.38
919.057	6901.38
919.292	6796.38
919.527	6830.38
919.762	6679.38
919.997	6689.38
920.232	6480.38
920.466	6551.38
920.701	6376.38
920.935	6427.38
921.17	6347.38
921.405	6304.38
921.639	6359.38
921.873	6286.38
922.108	6312.38
922.342	6257.38
922.576	6192.38
922.811	6175.38
923.045	6190.38
923.279	6174.38
923.513	5994.38
923.747	6140.38
923.981	6039.38
924.215	5996.38
924.449	5958.38
924.683	5893.38
924.917	5877.38
925.151	5848.38
925.385	5880.38
925.618	5791.38
925.852	5759.38
926.086	5726.38
926.319	5778.38
926.553	5772.38
926.786	5757.38
927.02	5731.38
927.253	5762.38
927.486	5770.38
927.72	5670.38
927.953	5738.38
928.186	5672.38
928.42	5682.38
928.653	5612.38
928.886	5574.38
929.119	5543.38
929.352	5536.38
929.585	5492.38
929.818	5477.38
930.051	5438.38
930.284	5440.38
930.516	5338.38
930.749	5276.38
930.982	5313.38
931.215	5287.38
931.447	5166.38
931.68	5166.38
931.912	5135.38
932.145	5169.38
932.377	5149.38
932.61	5267.38
932.842	5101.38
933.074	5160.38
933.307	5132.38
933.539	5161.38
933.771	5162.38
934.003	5090.38
934.236	5148.38
934.468	5167.38
934.7	5089.38
934.932	5116.38
935.164	5016.38
935.395	5015.38
935.627	4991.38
935.859	5031.38
936.091	4983.38
936.323	5000.38
936.554	5076.38
936.786	4933.38
937.017	4871.38
937.249	4862.38
937.481	4804.38
937.712	4875.38
937.943	4860.38
938.175	4858.38
938.406	4822.38
938.637	4838.38
938.869	4752.38
939.1	4839.38
939.331	4760.38
939.562	4783.38
939.793	4778.38
940.024	4731.38
940.255	4717.38
940.486	4653.38
940.717	4724.38
940.948	4656.38
941.179	4606.38
941.409	4620.38
941.64	4544.38
941.871	4574.38
942.102	4555.38
942.332	4556.38
942.563	4579.38
942.793	4568.38
943.024	4586.38
943.254	4548.38
943.484	4620.38
943.715	4608.38
943.945	4587.38
944.175	4448.38
944.405	4431.38
944.636	4488.38
944.866	4536.38
945.096	4516.38
945.326	4436.38
945.556	4512.38
945.786	4486.38
946.016	4368.38
946.245	4285.38
946.475	4344.38
946.705	4294.38
946.935	4298.38
947.164	4290.38
947.394	4216.38
947.624	4253.38
947.853	4238.38
948.083	4222.38
948.312	4211.38
948.542	4113.38
948.771	4084.38
949	4101.38
949.23	4072.38
949.459	4093.38
949.688	4184.38
949.917	4088.38
950.146	4136.38
950.375	4129.38
950.604	4018.38
950.833	4144.38
951.062	4088.38
951.291	4061.38
951.52	4010.38
951.749	4027.38
951.978	3944.38
952.206	3999.38
952.435	3985.38
952.664	3998.38
952.892	4012.38
953.121	3943.38
953.349	3949.38
953.578	3920.38
953.806	3894.38
954.035	3873.38
954.263	3828.38
954.491	3799.38
954.719	3850.38
954.948	3793.38
955.176	3790.38
955.404	3707.38
955.632	3762.38
955.86	3772.38
956.088	3734.38
956.316	3723.38
956.544	3756.38
956.772	3630.38
956.999	3632.38
957.227	3711.38
957.455	3594.38
957.683	3599.38
957.91	3547.38
958.138	3524.38
958.365	3498.38
958.593	3506.38
958.82	3456.38
959.048	3527.38
959.275	3465.38
959.502	3465.38
959.73	3406.38
959.957	3455.38
960.184	3490.38
960.411	3401.38
960.638	3460.38
960.865	3435.38
961.092	3438.38
961.319	3337.38
961.546	3432.38
961.773	3444.38
962	3392.38
962.227	3422.38
962.454	3405.38
962.68	3376.38
962.907	3342.38
963.134	3304.38
963.36	3305.38
963.587	3335.38
963.813	3234.38
964.04	3275.38
964.266	3192.38
964.493	3275.38
964.719	3225.38
964.945	3239.38
965.171	3134.38
965.398	3183.38
965.624	3223.38
965.85	3113.38
966.076	3091.38
966.302	3170.38
966.528	3044.38
966.754	3103.38
966.98	3091.38
967.206	3105.38
967.431	3014.38
967.657	3033.38
967.883	3045.38
968.109	3060.38
968.334	2959.38
968.56	2979.38
968.785	2988.38
969.011	2948.38
969.236	2996.38
969.462	2918.38
969.687	2915.38
969.912	2967.38
970.138	2981.38
970.363	2895.38
970.588	2900.38
970.813	2867.38
971.038	2878.38
971.263	2903.38
971.488	2920.38
971.713	2892.38
971.938	2896.38
972.163	2767.38
972.388	2853.38
972.613	2800.38
972.838	2799.38
973.062	2769.38
973.287	2772.38
973.512	2689.38
973.736	2734.38
973.961	2706.38
974.185	2703.38
974.41	2715.38
974.634	2626.38
974.858	2604.38
975.083	2649.38
975.307	2659.38
975.531	2617.38
975.755	2550.38
975.98	2554.38
976.204	2509.38
976.428	2522.38
976.652	2509.38
976.876	2519.38
977.1	2512.38
977.324	2482.38
977.547	2509.38
977.771	2523.38
977.995	2500.38
978.219	2396.38
978.442	2537.38
978.666	2466.38
978.89	2493.38
979.113	2457.38
979.337	2439.38
979.56	2387.38
979.783	2495.38
980.007	2355.38
980.23	2399.38
980.453	2369.38
980.677	2430.38
980.9	2364.38
981.123	2262.38
981.346	2354.38
981.569	2322.38
981.792	2353.38
982.015	2317.38
982.238	2275.38
982.461	2316.38
982.684	2241.38
982.907	2207.38
983.129	2211.38
983.352	2282.38
983.575	2244.38
983.797	2226.38
984.02	2184.38
984.242	2163.38
984.465	2217.38
984.687	2209.38
984.91	2228.38
985.132	2211.38
985.354	2234.38
985.577	2162.38
985.799	2121.38
986.021	2095.38
986.243	2104.38
986.465	2090.38
986.687	2146.38
986.909	2178.38
987.131	2145.38
987.353	2092.38
987.575	2129.38
987.797	2104.38
988.019	2014.38
988.241	2063.38
988.462	2027.38
988.684	2066.38
988.906	2121.38
989.127	2132.38
989.349	2004.38
989.57	2018.38
989.792	2070.38
990.013	2077.38
990.234	2053.38
990.456	2073.38
990.677	2060.38
990.898	1992.38
991.119	2035.38
991.341	2031.38
991.562	1964.38
991.783	2018.38
992.004	1939.38
992.225	1909.38
992.446	1966.38
992.667	1849.38
992.887	1962.38
993.108	1864.38
993.329	1969.38
993.55	1930.38
993.77	1855.38
993.991	1863.38
994.212	1883.38
994.432	1851.38
994.653	1891.38
994.873	1826.38
995.093	1749.38
995.314	1760.38
995.534	1856.38
995.754	1871.38
995.975	1871.38
996.195	1780.38
996.415	1809.38
996.635	1789.38
996.855	1818.38
997.075	1810.38
997.295	1816.38
997.515	1755.38
997.735	1801.38
997.955	1761.38
998.174	1787.38
998.394	1737.38
998.614	1806.38
998.834	1755.38
999.053	1805.38
999.273	1760.38
999.492	1827.38
999.712	1738.38
999.931	1721.38
1000.151	1755.38
1000.37	1725.38
1000.589	1763.38
1000.809	1693.38
1001.028	1792.38
1001.247	1727.38
1001.466	1630.38
1001.685	1793.38
1001.904	1684.38
1002.123	1678.38
1002.342	1680.38
1002.561	1630.38
1002.78	1669.38
1002.999	1684.38
1003.218	1675.38
1003.436	1646.38
1003.655	1700.38
1003.874	1623.38
1004.092	1639.38
1004.311	1697.38
1004.53	1648.38
1004.748	1705.38
1004.966	1629.38
1005.185	1692.38
1005.403	1634.38
1005.622	1647.38
1005.84	1697.38
1006.058	1573.38
1006.276	1665.38
1006.494	2000.38
1006.712	1654.38
1006.931	1683.38
1007.149	1593.38
1007.367	1608.38
1007.584	1636.38
1007.802	1667.38
1008.02	1603.38
1008.238	1701.38
1008.456	1688.38
1008.673	1584.38
1008.891	1684.38
1009.109	1645.38
1009.326	1693.38
1009.544	1737.38
1009.761	1678.38
1009.979	1789.38
1010.196	1769.38
1010.413	1862.38
1010.631	1873.38
1010.848	1937.38
1011.065	1902.38
1011.282	1859.38
1011.5	1801.38
1011.717	1894.38
1011.934	1829.38
1012.151	1886.38
1012.368	1853.38
1012.585	1791.38
1012.801	1850.38
1013.018	1837.38
1013.235	1776.38
1013.452	1787.38
1013.669	1812.38
1013.885	1815.38
1014.102	1849.38
1014.318	1794.38
1014.535	1743.38
1014.751	1774.38
1014.968	1783.38
1015.184	1815.38
1015.401	1718.38
1015.617	1765.38
1015.833	1669.38
1016.049	1702.38
1016.266	1654.38
1016.482	1661.38
1016.698	1605.38
1016.914	1632.38
1017.13	1581.38
1017.346	1591.38
1017.562	1632.38
1017.778	1577.38
1017.993	1545.38
1018.209	1581.38
1018.425	1570.38
1018.641	1521.38
1018.856	1499.38
1019.072	1533.38
1019.288	1589.38
1019.503	1514.38
1019.719	1460.38
1019.934	1435.38
1020.149	1529.38
1020.365	1501.38
1020.58	1404.38
1020.795	1457.38
1021.011	1389.38
1021.226	1358.38
1021.441	1395.38
1021.656	1322.38
1021.871	1241.38
1022.086	1249.38
1022.301	1254.38
1022.516	1236.38
1022.731	1271.38
1022.946	1194.38
1023.16	1200.38
1023.375	1151.38
1023.59	1129.38
1023.804	1105.38
1024.019	1192.38
1024.234	1088.38
1024.448	1099.38
1024.663	1034.38
1024.877	1051.38
1025.092	1065.38
1025.306	1057.38
1025.52	958.38
1025.734	1051.38
1025.949	982.38
1026.163	955.38
1026.377	876.38
1026.591	926.38
1026.805	864.38
1027.019	837.38
1027.233	836.38
1027.447	768.38
1027.661	856.38
1027.875	802.38
1028.088	826.38
1028.302	743.38
1028.516	740.38
1028.73	726.38
1028.943	726.38
1029.157	662.38
1029.37	612.38
1029.584	-1.62
1029.797	-0.62
1030.011	-3.62
1030.224	-0.62
