Data from QEP037381__110__11-00-30-214.txt Node

Date: Fri Apr 28 11:00:30 EDT 2023
User: dcclab
Spectrometer: QEP03738
Trigger mode: 4
Integration Time (sec): 1.000000E1
Scans to average: 1
Electric dark correction enabled: true
Nonlinearity correction enabled: false
Boxcar width: 0
XAxis mode: Wavelengths
Number of Pixels in Spectrum: 1044
>>>>>Begin Spectral Data<<<<<
784.041	14.75
784.3	-0.25
784.558	-3.25
784.817	-2.25
785.075	70719.75
785.334	14254.75
785.592	7390.75
785.851	5203.75
786.109	3970.75
786.368	3152.75
786.626	2570.75
786.884	2151.75
787.143	1776.75
787.401	1457.75
787.659	1301.75
787.917	1143.75
788.175	1047.75
788.433	935.75
788.691	827.75
788.949	760.75
789.207	745.75
789.465	636.75
789.723	612.75
789.98	568.75
790.238	595.75
790.496	562.75
790.753	547.75
791.011	583.75
791.268	528.75
791.526	506.75
791.783	504.75
792.041	509.75
792.298	444.75
792.556	488.75
792.813	471.75
793.07	439.75
793.327	455.75
793.584	517.75
793.841	432.75
794.099	459.75
794.356	511.75
794.613	436.75
794.869	466.75
795.126	408.75
795.383	407.75
795.64	419.75
795.897	399.75
796.153	442.75
796.41	426.75
796.667	415.75
796.923	437.75
797.18	406.75
797.436	458.75
797.693	403.75
797.949	464.75
798.206	485.75
798.462	401.75
798.718	474.75
798.974	445.75
799.231	485.75
799.487	479.75
799.743	476.75
799.999	505.75
800.255	531.75
800.511	498.75
800.767	549.75
801.023	557.75
801.279	575.75
801.534	625.75
801.79	694.75
802.046	741.75
802.302	906.75
802.557	1081.75
802.813	1380.75
803.068	1778.75
803.324	2569.75
803.579	3529.75
803.835	4908.75
804.09	6586.75
804.345	8375.75
804.601	10133.75
804.856	11700.75
805.111	12925.75
805.366	13884.75
805.621	14382.75
805.876	14799.75
806.131	15120.75
806.386	15330.75
806.641	15701.75
806.896	15952.75
807.151	16268.75
807.406	16410.75
807.661	16576.75
807.915	16865.75
808.17	17232.75
808.425	17375.75
808.679	17504.75
808.934	17851.75
809.188	17821.75
809.443	18134.75
809.697	18315.75
809.951	18354.75
810.206	18656.75
810.46	18909.75
810.714	18891.75
810.968	19062.75
811.223	19237.75
811.477	19426.75
811.731	19555.75
811.985	19547.75
812.239	19703.75
812.493	19781.75
812.747	19771.75
813	19873.75
813.254	19962.75
813.508	20104.75
813.762	20183.75
814.015	20282.75
814.269	20448.75
814.522	20509.75
814.776	20707.75
815.03	20969.75
815.283	21299.75
815.536	21572.75
815.79	21816.75
816.043	22125.75
816.296	22411.75
816.55	22708.75
816.803	22995.75
817.056	23278.75
817.309	23557.75
817.562	23717.75
817.815	23959.75
818.068	24179.75
818.321	24484.75
818.574	24711.75
818.827	25181.75
819.079	25465.75
819.332	25908.75
819.585	26250.75
819.838	26565.75
820.09	26574.75
820.343	26942.75
820.595	26948.75
820.848	27257.75
821.1	27364.75
821.353	27315.75
821.605	27262.75
821.857	27333.75
822.11	27095.75
822.362	26990.75
822.614	27001.75
822.866	26960.75
823.118	26998.75
823.37	27214.75
823.622	27221.75
823.874	27337.75
824.126	27453.75
824.378	27538.75
824.63	27556.75
824.882	27662.75
825.134	27545.75
825.385	27524.75
825.637	27353.75
825.888	27460.75
826.14	27372.75
826.392	27343.75
826.643	27085.75
826.895	26952.75
827.146	26883.75
827.397	26872.75
827.649	26883.75
827.9	26877.75
828.151	26862.75
828.402	26959.75
828.653	27087.75
828.905	27216.75
829.156	27254.75
829.407	27097.75
829.658	27193.75
829.909	27419.75
830.159	27279.75
830.41	27221.75
830.661	26971.75
830.912	26784.75
831.162	26807.75
831.413	26821.75
831.664	26727.75
831.914	26524.75
832.165	26626.75
832.415	26636.75
832.666	26665.75
832.916	26581.75
833.167	26689.75
833.417	26624.75
833.667	26472.75
833.917	26375.75
834.168	26339.75
834.418	26320.75
834.668	26109.75
834.918	25993.75
835.168	26004.75
835.418	25984.75
835.668	25779.75
835.918	25725.75
836.167	25680.75
836.417	25492.75
836.667	25598.75
836.917	25516.75
837.166	25479.75
837.416	25482.75
837.666	25553.75
837.915	25559.75
838.165	25449.75
838.414	25227.75
838.663	25398.75
838.913	25257.75
839.162	25231.75
839.411	25269.75
839.661	25277.75
839.91	25076.75
840.159	25109.75
840.408	25119.75
840.657	25253.75
840.906	25157.75
841.155	25171.75
841.404	25120.75
841.653	25148.75
841.902	25232.75
842.15	25266.75
842.399	25255.75
842.648	25210.75
842.897	25101.75
843.145	24961.75
843.394	24670.75
843.642	24674.75
843.891	24496.75
844.139	24304.75
844.388	24116.75
844.636	24214.75
844.884	24089.75
845.133	24099.75
845.381	24078.75
845.629	24160.75
845.877	23997.75
846.125	24037.75
846.373	23921.75
846.621	23922.75
846.869	23851.75
847.117	23632.75
847.365	23646.75
847.613	23556.75
847.861	23517.75
848.108	23490.75
848.356	23437.75
848.604	23386.75
848.851	23407.75
849.099	23402.75
849.346	23436.75
849.594	23480.75
849.841	23670.75
850.089	23694.75
850.336	23707.75
850.583	23696.75
850.831	23495.75
851.078	23496.75
851.325	23427.75
851.572	23462.75
851.819	23197.75
852.066	22713.75
852.313	22310.75
852.56	22210.75
852.807	22038.75
853.054	22117.75
853.301	21990.75
853.548	22136.75
853.794	22296.75
854.041	22294.75
854.288	22344.75
854.534	22605.75
854.781	22642.75
855.028	22373.75
855.274	22444.75
855.52	22574.75
855.767	22306.75
856.013	22472.75
856.26	22703.75
856.506	22176.75
856.752	22140.75
856.998	22139.75
857.244	22098.75
857.49	22228.75
857.736	22283.75
857.982	22355.75
858.228	22097.75
858.474	22036.75
858.72	21931.75
858.966	21610.75
859.212	21318.75
859.458	21223.75
859.703	20955.75
859.949	20822.75
860.195	20754.75
860.44	20528.75
860.686	20473.75
860.931	20530.75
861.177	20409.75
861.422	20212.75
861.667	20155.75
861.913	20116.75
862.158	20103.75
862.403	20239.75
862.648	20257.75
862.893	20272.75
863.138	20159.75
863.384	20098.75
863.629	19992.75
863.873	20025.75
864.118	19979.75
864.363	19905.75
864.608	19728.75
864.853	19565.75
865.098	19500.75
865.342	19427.75
865.587	19325.75
865.832	19505.75
866.076	19350.75
866.321	19292.75
866.565	19271.75
866.81	19163.75
867.054	19131.75
867.298	19136.75
867.543	19002.75
867.787	19038.75
868.031	19017.75
868.275	18969.75
868.519	18992.75
868.764	18956.75
869.008	18926.75
869.252	18950.75
869.496	18901.75
869.739	18900.75
869.983	18942.75
870.227	18874.75
870.471	18813.75
870.715	19109.75
870.958	19119.75
871.202	19097.75
871.446	19141.75
871.689	19046.75
871.933	19049.75
872.176	18911.75
872.42	18922.75
872.663	18942.75
872.906	18937.75
873.15	18950.75
873.393	18806.75
873.636	18925.75
873.879	18667.75
874.122	18410.75
874.366	18153.75
874.609	17947.75
874.852	17813.75
875.095	17668.75
875.337	17630.75
875.58	17420.75
875.823	17503.75
876.066	17573.75
876.309	17411.75
876.551	17283.75
876.794	17106.75
877.037	17138.75
877.279	17059.75
877.522	17044.75
877.764	17152.75
878.007	16982.75
878.249	17058.75
878.491	16969.75
878.734	17000.75
878.976	16900.75
879.218	16701.75
879.46	16768.75
879.702	16493.75
879.945	16405.75
880.187	16277.75
880.429	16142.75
880.671	16069.75
880.912	15993.75
881.154	15859.75
881.396	15767.75
881.638	15956.75
881.88	15921.75
882.121	15825.75
882.363	15867.75
882.605	15968.75
882.846	15812.75
883.088	15828.75
883.329	15860.75
883.571	15906.75
883.812	16147.75
884.053	16539.75
884.295	16936.75
884.536	17051.75
884.777	16920.75
885.018	16749.75
885.259	16702.75
885.5	16549.75
885.742	16656.75
885.982	16436.75
886.223	16269.75
886.464	16151.75
886.705	15887.75
886.946	15752.75
887.187	15311.75
887.428	15259.75
887.668	14953.75
887.909	14802.75
888.15	14523.75
888.39	14506.75
888.631	14470.75
888.871	14218.75
889.111	14072.75
889.352	14008.75
889.592	13802.75
889.833	13735.75
890.073	13729.75
890.313	13743.75
890.553	13419.75
890.793	13431.75
891.033	13428.75
891.273	13347.75
891.513	13314.75
891.753	13314.75
891.993	13162.75
892.233	13269.75
892.473	13333.75
892.713	13278.75
892.952	13221.75
893.192	13211.75
893.432	13242.75
893.671	13201.75
893.911	13145.75
894.15	13058.75
894.39	12988.75
894.629	12924.75
894.869	12876.75
895.108	12755.75
895.347	12704.75
895.587	12639.75
895.826	12519.75
896.065	12565.75
896.304	12552.75
896.543	12520.75
896.782	12409.75
897.021	12433.75
897.26	12358.75
897.499	12473.75
897.738	12427.75
897.977	12295.75
898.216	12232.75
898.454	12032.75
898.693	12011.75
898.932	12067.75
899.17	11991.75
899.409	11975.75
899.647	11882.75
899.886	11948.75
900.124	11972.75
900.363	11927.75
900.601	11925.75
900.839	12013.75
901.078	12056.75
901.316	12136.75
901.554	12143.75
901.792	12262.75
902.03	12141.75
902.268	12261.75
902.506	12163.75
902.744	12019.75
902.982	11951.75
903.22	11816.75
903.458	11630.75
903.695	11431.75
903.933	11282.75
904.171	11023.75
904.409	10902.75
904.646	10794.75
904.884	10638.75
905.121	10504.75
905.359	10444.75
905.596	10308.75
905.833	10184.75
906.071	10179.75
906.308	10144.75
906.545	10131.75
906.783	10092.75
907.02	10066.75
907.257	9971.75
907.494	10031.75
907.731	10021.75
907.968	9880.75
908.205	9876.75
908.442	9814.75
908.679	9707.75
908.915	9739.75
909.152	9594.75
909.389	9461.75
909.626	9418.75
909.862	9358.75
910.099	9380.75
910.335	9341.75
910.572	9236.75
910.808	9242.75
911.045	9187.75
911.281	9136.75
911.518	9145.75
911.754	9024.75
911.99	8987.75
912.226	8964.75
912.463	8902.75
912.699	8784.75
912.935	8805.75
913.171	8667.75
913.407	8627.75
913.643	8624.75
913.879	8577.75
914.114	8435.75
914.35	8288.75
914.586	8263.75
914.822	8225.75
915.057	8171.75
915.293	8086.75
915.529	8063.75
915.764	8101.75
916	8079.75
916.235	8030.75
916.471	8011.75
916.706	7890.75
916.941	7929.75
917.177	7885.75
917.412	7933.75
917.647	7917.75
917.882	7800.75
918.117	7911.75
918.352	7828.75
918.588	7851.75
918.823	7678.75
919.057	7649.75
919.292	7535.75
919.527	7531.75
919.762	7364.75
919.997	7415.75
920.232	7269.75
920.466	7297.75
920.701	7102.75
920.935	7104.75
921.17	7064.75
921.405	7031.75
921.639	7058.75
921.873	6993.75
922.108	7012.75
922.342	7005.75
922.576	6921.75
922.811	6866.75
923.045	6971.75
923.279	6901.75
923.513	6740.75
923.747	6846.75
923.981	6720.75
924.215	6666.75
924.449	6667.75
924.683	6593.75
924.917	6583.75
925.151	6561.75
925.385	6596.75
925.618	6519.75
925.852	6503.75
926.086	6446.75
926.319	6514.75
926.553	6431.75
926.786	6393.75
927.02	6416.75
927.253	6412.75
927.486	6460.75
927.72	6323.75
927.953	6371.75
928.186	6351.75
928.42	6364.75
928.653	6299.75
928.886	6285.75
929.119	6257.75
929.352	6223.75
929.585	6122.75
929.818	6145.75
930.051	6069.75
930.284	6034.75
930.516	5907.75
930.749	5897.75
930.982	5959.75
931.215	5936.75
931.447	5768.75
931.68	5795.75
931.912	5796.75
932.145	5790.75
932.377	5757.75
932.61	5924.75
932.842	5724.75
933.074	5842.75
933.307	5776.75
933.539	5824.75
933.771	5791.75
934.003	5744.75
934.236	5880.75
934.468	5841.75
934.7	5717.75
934.932	5743.75
935.164	5663.75
935.395	5627.75
935.627	5675.75
935.859	5679.75
936.091	5599.75
936.323	5618.75
936.554	5653.75
936.786	5561.75
937.017	5479.75
937.249	5496.75
937.481	5428.75
937.712	5510.75
937.943	5501.75
938.175	5457.75
938.406	5467.75
938.637	5496.75
938.869	5348.75
939.1	5419.75
939.331	5342.75
939.562	5420.75
939.793	5398.75
940.024	5377.75
940.255	5365.75
940.486	5292.75
940.717	5259.75
940.948	5248.75
941.179	5190.75
941.409	5162.75
941.64	5139.75
941.871	5204.75
942.102	5156.75
942.332	5182.75
942.563	5205.75
942.793	5215.75
943.024	5117.75
943.254	5174.75
943.484	5198.75
943.715	5187.75
943.945	5144.75
944.175	5103.75
944.405	5070.75
944.636	5038.75
944.866	5129.75
945.096	5081.75
945.326	4983.75
945.556	5069.75
945.786	5060.75
946.016	4927.75
946.245	4921.75
946.475	4919.75
946.705	4898.75
946.935	4858.75
947.164	4875.75
947.394	4827.75
947.624	4817.75
947.853	4868.75
948.083	4761.75
948.312	4790.75
948.542	4663.75
948.771	4630.75
949	4671.75
949.23	4697.75
949.459	4640.75
949.688	4708.75
949.917	4633.75
950.146	4683.75
950.375	4631.75
950.604	4600.75
950.833	4730.75
951.062	4725.75
951.291	4641.75
951.52	4595.75
951.749	4592.75
951.978	4572.75
952.206	4547.75
952.435	4550.75
952.664	4506.75
952.892	4586.75
953.121	4509.75
953.349	4522.75
953.578	4456.75
953.806	4465.75
954.035	4405.75
954.263	4410.75
954.491	4352.75
954.719	4377.75
954.948	4332.75
955.176	4285.75
955.404	4236.75
955.632	4257.75
955.86	4278.75
956.088	4225.75
956.316	4222.75
956.544	4279.75
956.772	4186.75
956.999	4116.75
957.227	4247.75
957.455	4098.75
957.683	4100.75
957.91	4078.75
958.138	4012.75
958.365	4065.75
958.593	4077.75
958.82	3940.75
959.048	4043.75
959.275	3998.75
959.502	4014.75
959.73	3964.75
959.957	3973.75
960.184	4026.75
960.411	3929.75
960.638	3995.75
960.865	3936.75
961.092	3960.75
961.319	3824.75
961.546	4000.75
961.773	3917.75
962	3925.75
962.227	3908.75
962.454	3893.75
962.68	3837.75
962.907	3843.75
963.134	3759.75
963.36	3833.75
963.587	3807.75
963.813	3720.75
964.04	3747.75
964.266	3693.75
964.493	3780.75
964.719	3682.75
964.945	3692.75
965.171	3605.75
965.398	3639.75
965.624	3635.75
965.85	3573.75
966.076	3558.75
966.302	3585.75
966.528	3550.75
966.754	3577.75
966.98	3541.75
967.206	3503.75
967.431	3429.75
967.657	3535.75
967.883	3560.75
968.109	3504.75
968.334	3437.75
968.56	3396.75
968.785	3423.75
969.011	3415.75
969.236	3449.75
969.462	3401.75
969.687	3384.75
969.912	3450.75
970.138	3432.75
970.363	3370.75
970.588	3381.75
970.813	3329.75
971.038	3311.75
971.263	3397.75
971.488	3309.75
971.713	3328.75
971.938	3294.75
972.163	3233.75
972.388	3208.75
972.613	3216.75
972.838	3226.75
973.062	3209.75
973.287	3180.75
973.512	3098.75
973.736	3147.75
973.961	3149.75
974.185	3080.75
974.41	3112.75
974.634	3009.75
974.858	3023.75
975.083	3053.75
975.307	3095.75
975.531	2966.75
975.755	2919.75
975.98	2981.75
976.204	2889.75
976.428	2888.75
976.652	2889.75
976.876	2861.75
977.1	2880.75
977.324	2852.75
977.547	2901.75
977.771	2900.75
977.995	2836.75
978.219	2754.75
978.442	2893.75
978.666	2839.75
978.89	2844.75
979.113	2839.75
979.337	2809.75
979.56	2781.75
979.783	2893.75
980.007	2733.75
980.23	2791.75
980.453	2704.75
980.677	2750.75
980.9	2700.75
981.123	2648.75
981.346	2729.75
981.569	2678.75
981.792	2729.75
982.015	2670.75
982.238	2603.75
982.461	2617.75
982.684	2600.75
982.907	2575.75
983.129	2561.75
983.352	2601.75
983.575	2560.75
983.797	2560.75
984.02	2526.75
984.242	2546.75
984.465	2526.75
984.687	2512.75
984.91	2545.75
985.132	2523.75
985.354	2543.75
985.577	2489.75
985.799	2492.75
986.021	2402.75
986.243	2406.75
986.465	2424.75
986.687	2458.75
986.909	2512.75
987.131	2441.75
987.353	2375.75
987.575	2432.75
987.797	2397.75
988.019	2323.75
988.241	2365.75
988.462	2338.75
988.684	2390.75
988.906	2407.75
989.127	2443.75
989.349	2304.75
989.57	2351.75
989.792	2372.75
990.013	2379.75
990.234	2401.75
990.456	2386.75
990.677	2376.75
990.898	2311.75
991.119	2286.75
991.341	2338.75
991.562	2258.75
991.783	2291.75
992.004	2230.75
992.225	2189.75
992.446	2239.75
992.667	2170.75
992.887	2225.75
993.108	2097.75
993.329	2257.75
993.55	2143.75
993.77	2139.75
993.991	2124.75
994.212	2164.75
994.432	2134.75
994.653	2137.75
994.873	2139.75
995.093	2038.75
995.314	2050.75
995.534	2117.75
995.754	2119.75
995.975	2159.75
996.195	2057.75
996.415	2087.75
996.635	2056.75
996.855	2078.75
997.075	2032.75
997.295	2065.75
997.515	2077.75
997.735	2096.75
997.955	2071.75
998.174	2035.75
998.394	2000.75
998.614	2057.75
998.834	2019.75
999.053	2039.75
999.273	2010.75
999.492	2089.75
999.712	2022.75
999.931	1966.75
1000.151	1994.75
1000.37	1963.75
1000.589	2004.75
1000.809	1956.75
1001.028	2061.75
1001.247	1982.75
1001.466	1902.75
1001.685	1996.75
1001.904	1949.75
1002.123	1904.75
1002.342	1942.75
1002.561	1862.75
1002.78	1881.75
1002.999	1957.75
1003.218	1896.75
1003.436	1867.75
1003.655	1938.75
1003.874	1846.75
1004.092	1865.75
1004.311	1890.75
1004.53	1870.75
1004.748	1921.75
1004.966	1842.75
1005.185	1890.75
1005.403	1883.75
1005.622	1895.75
1005.84	1915.75
1006.058	1824.75
1006.276	1860.75
1006.494	2232.75
1006.712	1876.75
1006.931	1904.75
1007.149	1841.75
1007.367	1826.75
1007.584	1872.75
1007.802	1908.75
1008.02	1860.75
1008.238	1953.75
1008.456	1985.75
1008.673	1829.75
1008.891	1968.75
1009.109	1942.75
1009.326	1991.75
1009.544	2119.75
1009.761	2040.75
1009.979	2104.75
1010.196	2166.75
1010.413	2330.75
1010.631	2372.75
1010.848	2433.75
1011.065	2469.75
1011.282	2394.75
1011.5	2311.75
1011.717	2426.75
1011.934	2353.75
1012.151	2364.75
1012.368	2371.75
1012.585	2294.75
1012.801	2345.75
1013.018	2339.75
1013.235	2307.75
1013.452	2340.75
1013.669	2365.75
1013.885	2345.75
1014.102	2396.75
1014.318	2386.75
1014.535	2328.75
1014.751	2339.75
1014.968	2331.75
1015.184	2361.75
1015.401	2251.75
1015.617	2275.75
1015.833	2194.75
1016.049	2198.75
1016.266	2151.75
1016.482	2159.75
1016.698	2063.75
1016.914	2121.75
1017.13	2097.75
1017.346	2072.75
1017.562	2117.75
1017.778	2054.75
1017.993	2022.75
1018.209	2060.75
1018.425	2058.75
1018.641	2004.75
1018.856	1935.75
1019.072	2019.75
1019.288	2079.75
1019.503	1980.75
1019.719	1905.75
1019.934	1895.75
1020.149	1991.75
1020.365	1921.75
1020.58	1846.75
1020.795	1881.75
1021.011	1790.75
1021.226	1763.75
1021.441	1774.75
1021.656	1676.75
1021.871	1603.75
1022.086	1600.75
1022.301	1579.75
1022.516	1575.75
1022.731	1614.75
1022.946	1505.75
1023.16	1508.75
1023.375	1442.75
1023.59	1402.75
1023.804	1373.75
1024.019	1418.75
1024.234	1335.75
1024.448	1330.75
1024.663	1280.75
1024.877	1266.75
1025.092	1277.75
1025.306	1276.75
1025.52	1172.75
1025.734	1245.75
1025.949	1139.75
1026.163	1132.75
1026.377	1050.75
1026.591	1097.75
1026.805	1043.75
1027.019	1039.75
1027.233	976.75
1027.447	932.75
1027.661	1035.75
1027.875	969.75
1028.088	961.75
1028.302	881.75
1028.516	863.75
1028.73	853.75
1028.943	849.75
1029.157	774.75
1029.37	739.75
1029.584	-4.25
1029.797	-3.25
1030.011	0.75
1030.224	-2.25
