Data from QEP037381__129__11-03-40-215.txt Node

Date: Fri Apr 28 11:03:40 EDT 2023
User: dcclab
Spectrometer: QEP03738
Trigger mode: 4
Integration Time (sec): 1.000000E1
Scans to average: 1
Electric dark correction enabled: true
Nonlinearity correction enabled: false
Boxcar width: 0
XAxis mode: Wavelengths
Number of Pixels in Spectrum: 1044
>>>>>Begin Spectral Data<<<<<
784.041	15.75
784.3	-2.25
784.558	-5.25
784.817	-3.25
785.075	69464.75
785.334	13946.75
785.592	7255.75
785.851	5093.75
786.109	3897.75
786.368	3000.75
786.626	2462.75
786.884	2044.75
787.143	1705.75
787.401	1403.75
787.659	1288.75
787.917	1099.75
788.175	1009.75
788.433	906.75
788.691	805.75
788.949	769.75
789.207	726.75
789.465	647.75
789.723	620.75
789.98	581.75
790.238	583.75
790.496	572.75
790.753	546.75
791.011	596.75
791.268	532.75
791.526	509.75
791.783	533.75
792.041	509.75
792.298	440.75
792.556	510.75
792.813	458.75
793.07	461.75
793.327	468.75
793.584	534.75
793.841	452.75
794.099	472.75
794.356	532.75
794.613	448.75
794.869	475.75
795.126	433.75
795.383	429.75
795.64	438.75
795.897	411.75
796.153	455.75
796.41	440.75
796.667	418.75
796.923	431.75
797.18	428.75
797.436	477.75
797.693	435.75
797.949	499.75
798.206	519.75
798.462	428.75
798.718	511.75
798.974	474.75
799.231	509.75
799.487	513.75
799.743	520.75
799.999	543.75
800.255	546.75
800.511	528.75
800.767	602.75
801.023	593.75
801.279	622.75
801.534	701.75
801.79	754.75
802.046	819.75
802.302	1016.75
802.557	1213.75
802.813	1586.75
803.068	2093.75
803.324	3004.75
803.579	4176.75
803.835	5794.75
804.09	7890.75
804.345	10086.75
804.601	12275.75
804.856	14228.75
805.111	15791.75
805.366	16877.75
805.621	17643.75
805.876	18228.75
806.131	18608.75
806.386	18951.75
806.641	19207.75
806.896	19608.75
807.151	19955.75
807.406	20236.75
807.661	20617.75
807.915	20990.75
808.17	21368.75
808.425	21616.75
808.679	21838.75
808.934	22159.75
809.188	22381.75
809.443	22637.75
809.697	23038.75
809.951	23094.75
810.206	23282.75
810.46	23509.75
810.714	23824.75
810.968	24010.75
811.223	24163.75
811.477	24246.75
811.731	24619.75
811.985	24700.75
812.239	24647.75
812.493	24833.75
812.747	24915.75
813	24938.75
813.254	25201.75
813.508	25190.75
813.762	25413.75
814.015	25662.75
814.269	25819.75
814.522	25958.75
814.776	26280.75
815.03	26593.75
815.283	26943.75
815.536	27469.75
815.79	27865.75
816.043	28234.75
816.296	28546.75
816.55	28961.75
816.803	29275.75
817.056	29746.75
817.309	30218.75
817.562	30359.75
817.815	30768.75
818.068	31023.75
818.321	31449.75
818.574	31772.75
818.827	32256.75
819.079	32814.75
819.332	33460.75
819.585	33797.75
819.838	34133.75
820.09	34445.75
820.343	34723.75
820.595	34864.75
820.848	35106.75
821.1	35200.75
821.353	35379.75
821.605	35296.75
821.857	35276.75
822.11	35114.75
822.362	34950.75
822.614	34921.75
822.866	34876.75
823.118	34872.75
823.37	35166.75
823.622	35326.75
823.874	35393.75
824.126	35709.75
824.378	35464.75
824.63	35751.75
824.882	35961.75
825.134	35759.75
825.385	35842.75
825.637	35660.75
825.888	35515.75
826.14	35466.75
826.392	35316.75
826.643	35099.75
826.895	34956.75
827.146	34770.75
827.397	34923.75
827.649	35082.75
827.9	34945.75
828.151	35031.75
828.402	35043.75
828.653	35145.75
828.905	35140.75
829.156	35422.75
829.407	35113.75
829.658	35450.75
829.909	35315.75
830.159	35479.75
830.41	35212.75
830.661	34951.75
830.912	34700.75
831.162	34652.75
831.413	34623.75
831.664	34591.75
831.914	34747.75
832.165	34621.75
832.415	34562.75
832.666	34538.75
832.916	34569.75
833.167	34535.75
833.417	34492.75
833.667	34279.75
833.917	34222.75
834.168	34294.75
834.418	34153.75
834.668	34006.75
834.918	33875.75
835.168	33703.75
835.418	33454.75
835.668	33508.75
835.918	33477.75
836.167	33457.75
836.417	33296.75
836.667	33245.75
836.917	33259.75
837.166	33175.75
837.416	33239.75
837.666	33059.75
837.915	33127.75
838.165	33071.75
838.414	32945.75
838.663	32900.75
838.913	32818.75
839.162	32827.75
839.411	32790.75
839.661	32660.75
839.91	32525.75
840.159	32417.75
840.408	32633.75
840.657	32656.75
840.906	32537.75
841.155	32590.75
841.404	32585.75
841.653	32697.75
841.902	32638.75
842.15	32768.75
842.399	32760.75
842.648	32619.75
842.897	32562.75
843.145	32310.75
843.394	32239.75
843.642	31956.75
843.891	31867.75
844.139	31660.75
844.388	31512.75
844.636	31385.75
844.884	31472.75
845.133	31243.75
845.381	31284.75
845.629	31334.75
845.877	31165.75
846.125	31282.75
846.373	31047.75
846.621	30916.75
846.869	31045.75
847.117	30789.75
847.365	30617.75
847.613	30624.75
847.861	30375.75
848.108	30389.75
848.356	30271.75
848.604	30369.75
848.851	30259.75
849.099	30469.75
849.346	30585.75
849.594	30597.75
849.841	30631.75
850.089	30772.75
850.336	30777.75
850.583	30818.75
850.831	30596.75
851.078	30358.75
851.325	30351.75
851.572	30326.75
851.819	30141.75
852.066	29425.75
852.313	29172.75
852.56	28983.75
852.807	28906.75
853.054	28690.75
853.301	28670.75
853.548	28688.75
853.794	28877.75
854.041	29004.75
854.288	29113.75
854.534	29393.75
854.781	29416.75
855.028	29164.75
855.274	29326.75
855.52	29117.75
855.767	28939.75
856.013	29050.75
856.26	29129.75
856.506	28683.75
856.752	28713.75
856.998	28652.75
857.244	28660.75
857.49	28808.75
857.736	28837.75
857.982	28847.75
858.228	28803.75
858.474	28528.75
858.72	28342.75
858.966	28104.75
859.212	27858.75
859.458	27568.75
859.703	27274.75
859.949	26961.75
860.195	26826.75
860.44	26769.75
860.686	26643.75
860.931	26657.75
861.177	26483.75
861.422	26181.75
861.667	26299.75
861.913	26226.75
862.158	26252.75
862.403	26320.75
862.648	26318.75
862.893	26495.75
863.138	26470.75
863.384	26110.75
863.629	26140.75
863.873	26210.75
864.118	26067.75
864.363	25872.75
864.608	25775.75
864.853	25693.75
865.098	25508.75
865.342	25426.75
865.587	25245.75
865.832	25347.75
866.076	25256.75
866.321	25152.75
866.565	25126.75
866.81	25055.75
867.054	24954.75
867.298	24761.75
867.543	24822.75
867.787	24886.75
868.031	24782.75
868.275	24656.75
868.519	24635.75
868.764	24583.75
869.008	24572.75
869.252	24667.75
869.496	24548.75
869.739	24455.75
869.983	24493.75
870.227	24597.75
870.471	24577.75
870.715	24531.75
870.958	24618.75
871.202	24662.75
871.446	24763.75
871.689	24596.75
871.933	24668.75
872.176	24577.75
872.42	24605.75
872.663	24525.75
872.906	24495.75
873.15	24433.75
873.393	24318.75
873.636	24211.75
873.879	24061.75
874.122	23814.75
874.366	23411.75
874.609	23243.75
874.852	23141.75
875.095	22995.75
875.337	22890.75
875.58	22713.75
875.823	22711.75
876.066	22651.75
876.309	22612.75
876.551	22418.75
876.794	22326.75
877.037	22290.75
877.279	22192.75
877.522	22360.75
877.764	22184.75
878.007	22228.75
878.249	22170.75
878.491	22066.75
878.734	22151.75
878.976	22069.75
879.218	21887.75
879.46	21740.75
879.702	21528.75
879.945	21426.75
880.187	21215.75
880.429	21015.75
880.671	20976.75
880.912	20789.75
881.154	20776.75
881.396	20642.75
881.638	20686.75
881.88	20608.75
882.121	20628.75
882.363	20564.75
882.605	20568.75
882.846	20684.75
883.088	20563.75
883.329	20494.75
883.571	20613.75
883.812	20658.75
884.053	21117.75
884.295	21447.75
884.536	21612.75
884.777	21464.75
885.018	21304.75
885.259	21331.75
885.5	21076.75
885.742	21154.75
885.982	21041.75
886.223	20894.75
886.464	20774.75
886.705	20439.75
886.946	20318.75
887.187	19972.75
887.428	19660.75
887.668	19399.75
887.909	19241.75
888.15	19019.75
888.39	18821.75
888.631	18761.75
888.871	18699.75
889.111	18563.75
889.352	18348.75
889.592	18093.75
889.833	17974.75
890.073	17826.75
890.313	17888.75
890.553	17590.75
890.793	17595.75
891.033	17509.75
891.273	17438.75
891.513	17248.75
891.753	17356.75
891.993	17318.75
892.233	17376.75
892.473	17366.75
892.713	17334.75
892.952	17246.75
893.192	17341.75
893.432	17167.75
893.671	17275.75
893.911	17077.75
894.15	17068.75
894.39	16963.75
894.629	16793.75
894.869	16713.75
895.108	16605.75
895.347	16530.75
895.587	16501.75
895.826	16345.75
896.065	16375.75
896.304	16427.75
896.543	16307.75
896.782	16200.75
897.021	16244.75
897.26	16145.75
897.499	16174.75
897.738	16110.75
897.977	16040.75
898.216	15816.75
898.454	15778.75
898.693	15555.75
898.932	15615.75
899.17	15539.75
899.409	15545.75
899.647	15463.75
899.886	15437.75
900.124	15487.75
900.363	15462.75
900.601	15416.75
900.839	15489.75
901.078	15511.75
901.316	15589.75
901.554	15671.75
901.792	15733.75
902.03	15624.75
902.268	15597.75
902.506	15653.75
902.744	15421.75
902.982	15380.75
903.22	15083.75
903.458	14971.75
903.695	14797.75
903.933	14589.75
904.171	14329.75
904.409	14136.75
904.646	13956.75
904.884	13798.75
905.121	13616.75
905.359	13529.75
905.596	13391.75
905.833	13263.75
906.071	13247.75
906.308	13292.75
906.545	13217.75
906.783	13069.75
907.02	13123.75
907.257	13020.75
907.494	13019.75
907.731	13039.75
907.968	12907.75
908.205	12838.75
908.442	12768.75
908.679	12734.75
908.915	12539.75
909.152	12560.75
909.389	12359.75
909.626	12305.75
909.862	12223.75
910.099	12165.75
910.335	12092.75
910.572	11995.75
910.808	12022.75
911.045	11899.75
911.281	11921.75
911.518	11911.75
911.754	11769.75
911.99	11670.75
912.226	11624.75
912.463	11511.75
912.699	11401.75
912.935	11424.75
913.171	11260.75
913.407	11227.75
913.643	11222.75
913.879	11058.75
914.114	10936.75
914.35	10861.75
914.586	10714.75
914.822	10707.75
915.057	10708.75
915.293	10479.75
915.529	10456.75
915.764	10563.75
916	10408.75
916.235	10380.75
916.471	10354.75
916.706	10348.75
916.941	10318.75
917.177	10309.75
917.412	10237.75
917.647	10183.75
917.882	10263.75
918.117	10213.75
918.352	10193.75
918.588	10203.75
918.823	9970.75
919.057	9879.75
919.292	9812.75
919.527	9853.75
919.762	9572.75
919.997	9598.75
920.232	9415.75
920.466	9410.75
920.701	9221.75
920.935	9260.75
921.17	9234.75
921.405	9109.75
921.639	9153.75
921.873	9080.75
922.108	8974.75
922.342	9049.75
922.576	8907.75
922.811	8863.75
923.045	8920.75
923.279	8915.75
923.513	8782.75
923.747	8774.75
923.981	8736.75
924.215	8710.75
924.449	8623.75
924.683	8463.75
924.917	8505.75
925.151	8401.75
925.385	8504.75
925.618	8441.75
925.852	8400.75
926.086	8373.75
926.319	8277.75
926.553	8349.75
926.786	8323.75
927.02	8283.75
927.253	8343.75
927.486	8321.75
927.72	8165.75
927.953	8239.75
928.186	8147.75
928.42	8087.75
928.653	8094.75
928.886	8035.75
929.119	8065.75
929.352	7979.75
929.585	8013.75
929.818	7864.75
930.051	7838.75
930.284	7828.75
930.516	7623.75
930.749	7622.75
930.982	7621.75
931.215	7628.75
931.447	7455.75
931.68	7561.75
931.912	7490.75
932.145	7463.75
932.377	7477.75
932.61	7628.75
932.842	7405.75
933.074	7438.75
933.307	7406.75
933.539	7541.75
933.771	7521.75
934.003	7429.75
934.236	7479.75
934.468	7432.75
934.7	7406.75
934.932	7400.75
935.164	7293.75
935.395	7279.75
935.627	7302.75
935.859	7273.75
936.091	7188.75
936.323	7246.75
936.554	7189.75
936.786	7117.75
937.017	7075.75
937.249	7103.75
937.481	7007.75
937.712	7049.75
937.943	7035.75
938.175	7000.75
938.406	7008.75
938.637	7052.75
938.869	7007.75
939.1	6982.75
939.331	6919.75
939.562	6907.75
939.793	6934.75
940.024	6917.75
940.255	6873.75
940.486	6831.75
940.717	6771.75
940.948	6745.75
941.179	6682.75
941.409	6633.75
941.64	6683.75
941.871	6707.75
942.102	6585.75
942.332	6688.75
942.563	6663.75
942.793	6636.75
943.024	6632.75
943.254	6644.75
943.484	6647.75
943.715	6656.75
943.945	6674.75
944.175	6512.75
944.405	6509.75
944.636	6571.75
944.866	6563.75
945.096	6593.75
945.326	6463.75
945.556	6461.75
945.786	6496.75
946.016	6403.75
946.245	6296.75
946.475	6322.75
946.705	6292.75
946.935	6254.75
947.164	6213.75
947.394	6186.75
947.624	6161.75
947.853	6203.75
948.083	6169.75
948.312	6098.75
948.542	6038.75
948.771	6022.75
949	5990.75
949.23	6028.75
949.459	5996.75
949.688	6021.75
949.917	6008.75
950.146	5978.75
950.375	6064.75
950.604	5925.75
950.833	6022.75
951.062	5974.75
951.291	5951.75
951.52	5861.75
951.749	5889.75
951.978	5805.75
952.206	5823.75
952.435	5814.75
952.664	5814.75
952.892	5851.75
953.121	5754.75
953.349	5808.75
953.578	5712.75
953.806	5693.75
954.035	5635.75
954.263	5645.75
954.491	5586.75
954.719	5579.75
954.948	5538.75
955.176	5483.75
955.404	5465.75
955.632	5475.75
955.86	5516.75
956.088	5465.75
956.316	5460.75
956.544	5432.75
956.772	5346.75
956.999	5292.75
957.227	5336.75
957.455	5268.75
957.683	5293.75
957.91	5163.75
958.138	5195.75
958.365	5166.75
958.593	5154.75
958.82	5101.75
959.048	5135.75
959.275	5125.75
959.502	5096.75
959.73	5044.75
959.957	5058.75
960.184	5121.75
960.411	4985.75
960.638	5056.75
960.865	5028.75
961.092	5061.75
961.319	4941.75
961.546	5043.75
961.773	5054.75
962	4966.75
962.227	4972.75
962.454	4949.75
962.68	4911.75
962.907	4958.75
963.134	4794.75
963.36	4897.75
963.587	4816.75
963.813	4777.75
964.04	4779.75
964.266	4695.75
964.493	4771.75
964.719	4703.75
964.945	4713.75
965.171	4595.75
965.398	4610.75
965.624	4634.75
965.85	4546.75
966.076	4494.75
966.302	4554.75
966.528	4514.75
966.754	4550.75
966.98	4493.75
967.206	4479.75
967.431	4366.75
967.657	4458.75
967.883	4475.75
968.109	4405.75
968.334	4363.75
968.56	4354.75
968.785	4383.75
969.011	4316.75
969.236	4316.75
969.462	4283.75
969.687	4282.75
969.912	4334.75
970.138	4322.75
970.363	4253.75
970.588	4249.75
970.813	4189.75
971.038	4178.75
971.263	4193.75
971.488	4165.75
971.713	4226.75
971.938	4205.75
972.163	4045.75
972.388	4055.75
972.613	4018.75
972.838	4054.75
973.062	4052.75
973.287	3960.75
973.512	3957.75
973.736	3941.75
973.961	3950.75
974.185	3884.75
974.41	3967.75
974.634	3796.75
974.858	3860.75
975.083	3874.75
975.307	3850.75
975.531	3785.75
975.755	3753.75
975.98	3741.75
976.204	3648.75
976.428	3650.75
976.652	3605.75
976.876	3618.75
977.1	3633.75
977.324	3614.75
977.547	3613.75
977.771	3612.75
977.995	3592.75
978.219	3498.75
978.442	3621.75
978.666	3557.75
978.89	3554.75
979.113	3555.75
979.337	3520.75
979.56	3453.75
979.783	3562.75
980.007	3453.75
980.23	3460.75
980.453	3373.75
980.677	3445.75
980.9	3452.75
981.123	3353.75
981.346	3417.75
981.569	3353.75
981.792	3388.75
982.015	3360.75
982.238	3288.75
982.461	3304.75
982.684	3257.75
982.907	3220.75
983.129	3223.75
983.352	3226.75
983.575	3204.75
983.797	3223.75
984.02	3123.75
984.242	3152.75
984.465	3101.75
984.687	3141.75
984.91	3179.75
985.132	3122.75
985.354	3167.75
985.577	3096.75
985.799	3028.75
986.021	2981.75
986.243	3024.75
986.465	2993.75
986.687	3042.75
986.909	3082.75
987.131	3044.75
987.353	2953.75
987.575	3016.75
987.797	2947.75
988.019	2908.75
988.241	2942.75
988.462	2900.75
988.684	2938.75
988.906	2952.75
989.127	3006.75
989.349	2882.75
989.57	2914.75
989.792	2907.75
990.013	2950.75
990.234	2888.75
990.456	2938.75
990.677	2942.75
990.898	2847.75
991.119	2838.75
991.341	2808.75
991.562	2787.75
991.783	2785.75
992.004	2709.75
992.225	2637.75
992.446	2752.75
992.667	2661.75
992.887	2693.75
993.108	2618.75
993.329	2742.75
993.55	2670.75
993.77	2632.75
993.991	2599.75
994.212	2605.75
994.432	2610.75
994.653	2605.75
994.873	2584.75
995.093	2477.75
995.314	2518.75
995.534	2590.75
995.754	2592.75
995.975	2568.75
996.195	2493.75
996.415	2518.75
996.635	2500.75
996.855	2466.75
997.075	2508.75
997.295	2501.75
997.515	2487.75
997.735	2513.75
997.955	2458.75
998.174	2464.75
998.394	2422.75
998.614	2502.75
998.834	2421.75
999.053	2467.75
999.273	2453.75
999.492	2480.75
999.712	2455.75
999.931	2380.75
1000.151	2425.75
1000.37	2386.75
1000.589	2420.75
1000.809	2349.75
1001.028	2410.75
1001.247	2404.75
1001.466	2268.75
1001.685	2384.75
1001.904	2346.75
1002.123	2306.75
1002.342	2322.75
1002.561	2232.75
1002.78	2271.75
1002.999	2328.75
1003.218	2253.75
1003.436	2221.75
1003.655	2279.75
1003.874	2206.75
1004.092	2220.75
1004.311	2246.75
1004.53	2198.75
1004.748	2270.75
1004.966	2180.75
1005.185	2226.75
1005.403	2214.75
1005.622	2196.75
1005.84	2262.75
1006.058	2154.75
1006.276	2195.75
1006.494	2549.75
1006.712	2168.75
1006.931	2262.75
1007.149	2151.75
1007.367	2169.75
1007.584	2242.75
1007.802	2243.75
1008.02	2204.75
1008.238	2292.75
1008.456	2274.75
1008.673	2181.75
1008.891	2258.75
1009.109	2215.75
1009.326	2296.75
1009.544	2377.75
1009.761	2310.75
1009.979	2425.75
1010.196	2466.75
1010.413	2621.75
1010.631	2725.75
1010.848	2744.75
1011.065	2770.75
1011.282	2691.75
1011.5	2648.75
1011.717	2727.75
1011.934	2680.75
1012.151	2692.75
1012.368	2665.75
1012.585	2613.75
1012.801	2649.75
1013.018	2646.75
1013.235	2611.75
1013.452	2598.75
1013.669	2621.75
1013.885	2638.75
1014.102	2669.75
1014.318	2645.75
1014.535	2609.75
1014.751	2642.75
1014.968	2584.75
1015.184	2583.75
1015.401	2505.75
1015.617	2534.75
1015.833	2446.75
1016.049	2413.75
1016.266	2411.75
1016.482	2406.75
1016.698	2355.75
1016.914	2339.75
1017.13	2327.75
1017.346	2309.75
1017.562	2367.75
1017.778	2300.75
1017.993	2252.75
1018.209	2317.75
1018.425	2279.75
1018.641	2249.75
1018.856	2210.75
1019.072	2251.75
1019.288	2285.75
1019.503	2225.75
1019.719	2188.75
1019.934	2167.75
1020.149	2231.75
1020.365	2156.75
1020.58	2053.75
1020.795	2119.75
1021.011	2019.75
1021.226	1969.75
1021.441	1975.75
1021.656	1893.75
1021.871	1802.75
1022.086	1793.75
1022.301	1785.75
1022.516	1754.75
1022.731	1750.75
1022.946	1695.75
1023.16	1660.75
1023.375	1624.75
1023.59	1604.75
1023.804	1522.75
1024.019	1617.75
1024.234	1472.75
1024.448	1529.75
1024.663	1455.75
1024.877	1436.75
1025.092	1444.75
1025.306	1453.75
1025.52	1332.75
1025.734	1406.75
1025.949	1325.75
1026.163	1287.75
1026.377	1224.75
1026.591	1241.75
1026.805	1174.75
1027.019	1174.75
1027.233	1123.75
1027.447	1070.75
1027.661	1165.75
1027.875	1103.75
1028.088	1095.75
1028.302	1005.75
1028.516	986.75
1028.73	986.75
1028.943	964.75
1029.157	912.75
1029.37	826.75
1029.584	-1.25
1029.797	-2.25
1030.011	0.75
1030.224	-2.25
