Data from QEP037381__212__14-24-35-352.txt Node

Date: Fri Apr 28 14:24:35 EDT 2023
User: dcclab
Spectrometer: QEP03738
Trigger mode: 4
Integration Time (sec): 1.000000E1
Scans to average: 1
Electric dark correction enabled: true
Nonlinearity correction enabled: false
Boxcar width: 0
XAxis mode: Wavelengths
Number of Pixels in Spectrum: 1044
>>>>>Begin Spectral Data<<<<<
784.041	14.5
784.3	3.5
784.558	-3.5
784.817	-4.5
785.075	66153.5
785.334	13463.5
785.592	7118.5
785.851	5018.5
786.109	3762.5
786.368	2934.5
786.626	2394.5
786.884	2003.5
787.143	1708.5
787.401	1388.5
787.659	1267.5
787.917	1085.5
788.175	997.5
788.433	898.5
788.691	794.5
788.949	723.5
789.207	698.5
789.465	607.5
789.723	596.5
789.98	552.5
790.238	569.5
790.496	546.5
790.753	527.5
791.011	566.5
791.268	513.5
791.526	494.5
791.783	516.5
792.041	493.5
792.298	407.5
792.556	475.5
792.813	458.5
793.07	448.5
793.327	430.5
793.584	509.5
793.841	433.5
794.099	441.5
794.356	520.5
794.613	402.5
794.869	442.5
795.126	419.5
795.383	399.5
795.64	416.5
795.897	375.5
796.153	430.5
796.41	418.5
796.667	389.5
796.923	413.5
797.18	402.5
797.436	444.5
797.693	382.5
797.949	454.5
798.206	493.5
798.462	398.5
798.718	451.5
798.974	414.5
799.231	450.5
799.487	464.5
799.743	460.5
799.999	500.5
800.255	476.5
800.511	477.5
800.767	516.5
801.023	509.5
801.279	539.5
801.534	561.5
801.79	591.5
802.046	645.5
802.302	755.5
802.557	885.5
802.813	1103.5
803.068	1369.5
803.324	1912.5
803.579	2631.5
803.835	3682.5
804.09	5058.5
804.345	6552.5
804.601	8194.5
804.856	9572.5
805.111	10789.5
805.366	11481.5
805.621	11968.5
805.876	12376.5
806.131	12603.5
806.386	12754.5
806.641	13047.5
806.896	13174.5
807.151	13485.5
807.406	13599.5
807.661	13959.5
807.915	14124.5
808.17	14378.5
808.425	14558.5
808.679	14668.5
808.934	14908.5
809.188	15137.5
809.443	15251.5
809.697	15440.5
809.951	15511.5
810.206	15616.5
810.46	15783.5
810.714	15985.5
810.968	16146.5
811.223	16215.5
811.477	16369.5
811.731	16512.5
811.985	16566.5
812.239	16626.5
812.493	16736.5
812.747	16841.5
813	16862.5
813.254	17042.5
813.508	17053.5
813.762	16973.5
814.015	17173.5
814.269	17279.5
814.522	17445.5
814.776	17643.5
815.03	17897.5
815.283	18219.5
815.536	18407.5
815.79	18760.5
816.043	18990.5
816.296	19172.5
816.55	19478.5
816.803	19580.5
817.056	19982.5
817.309	20180.5
817.562	20404.5
817.815	20550.5
818.068	20796.5
818.321	21130.5
818.574	21408.5
818.827	21668.5
819.079	21854.5
819.332	22405.5
819.585	22647.5
819.838	22857.5
820.09	23113.5
820.343	23247.5
820.595	23415.5
820.848	23574.5
821.1	23562.5
821.353	23591.5
821.605	23643.5
821.857	23731.5
822.11	23503.5
822.362	23578.5
822.614	23415.5
822.866	23544.5
823.118	23580.5
823.37	23715.5
823.622	23727.5
823.874	23703.5
824.126	23774.5
824.378	23840.5
824.63	24050.5
824.882	24057.5
825.134	23990.5
825.385	24069.5
825.637	23912.5
825.888	23725.5
826.14	23691.5
826.392	23518.5
826.643	23474.5
826.895	23533.5
827.146	23353.5
827.397	23344.5
827.649	23399.5
827.9	23265.5
828.151	23390.5
828.402	23323.5
828.653	23461.5
828.905	23459.5
829.156	23606.5
829.407	23387.5
829.658	23568.5
829.909	23389.5
830.159	23364.5
830.41	23164.5
830.661	22974.5
830.912	22932.5
831.162	22944.5
831.413	22867.5
831.664	22738.5
831.914	22842.5
832.165	22847.5
832.415	22864.5
832.666	22898.5
832.916	22881.5
833.167	22633.5
833.417	22662.5
833.667	22644.5
833.917	22591.5
834.168	22472.5
834.418	22548.5
834.668	22286.5
834.918	22175.5
835.168	22223.5
835.418	22095.5
835.668	22037.5
835.918	22095.5
836.167	22031.5
836.417	21870.5
836.667	21898.5
836.917	21842.5
837.166	21718.5
837.416	21830.5
837.666	21663.5
837.915	21651.5
838.165	21591.5
838.414	21396.5
838.663	21401.5
838.913	21449.5
839.162	21310.5
839.411	21270.5
839.661	21322.5
839.91	21212.5
840.159	21072.5
840.408	21143.5
840.657	21167.5
840.906	21180.5
841.155	21117.5
841.404	21174.5
841.653	21065.5
841.902	21038.5
842.15	21191.5
842.399	21067.5
842.648	21063.5
842.897	20808.5
843.145	20781.5
843.394	20649.5
843.642	20615.5
843.891	20552.5
844.139	20339.5
844.388	20261.5
844.636	20151.5
844.884	20303.5
845.133	20179.5
845.381	20119.5
845.629	20057.5
845.877	20027.5
846.125	20002.5
846.373	19945.5
846.621	19905.5
846.869	19845.5
847.117	19769.5
847.365	19546.5
847.613	19617.5
847.861	19475.5
848.108	19440.5
848.356	19465.5
848.604	19386.5
848.851	19414.5
849.099	19461.5
849.346	19588.5
849.594	19603.5
849.841	19626.5
850.089	19656.5
850.336	19710.5
850.583	19660.5
850.831	19584.5
851.078	19466.5
851.325	19360.5
851.572	19458.5
851.819	19084.5
852.066	18734.5
852.313	18469.5
852.56	18446.5
852.807	18326.5
853.054	18283.5
853.301	18246.5
853.548	18288.5
853.794	18388.5
854.041	18459.5
854.288	18451.5
854.534	18714.5
854.781	18571.5
855.028	18477.5
855.274	18534.5
855.52	18318.5
855.767	18280.5
856.013	18140.5
856.26	18335.5
856.506	17989.5
856.752	17964.5
856.998	18125.5
857.244	17994.5
857.49	18092.5
857.736	18131.5
857.982	18091.5
858.228	18020.5
858.474	17966.5
858.72	17877.5
858.966	17673.5
859.212	17638.5
859.458	17277.5
859.703	17199.5
859.949	17018.5
860.195	16828.5
860.44	16733.5
860.686	16702.5
860.931	16680.5
861.177	16527.5
861.422	16545.5
861.667	16515.5
861.913	16573.5
862.158	16596.5
862.403	16738.5
862.648	16825.5
862.893	16626.5
863.138	16617.5
863.384	16584.5
863.629	16609.5
863.873	16562.5
864.118	16465.5
864.363	16328.5
864.608	16210.5
864.853	16254.5
865.098	16133.5
865.342	16112.5
865.587	15993.5
865.832	15987.5
866.076	15822.5
866.321	15877.5
866.565	15764.5
866.81	15639.5
867.054	15673.5
867.298	15664.5
867.543	15580.5
867.787	15706.5
868.031	15647.5
868.275	15568.5
868.519	15583.5
868.764	15480.5
869.008	15409.5
869.252	15433.5
869.496	15407.5
869.739	15298.5
869.983	15372.5
870.227	15284.5
870.471	15264.5
870.715	15281.5
870.958	15223.5
871.202	15309.5
871.446	15248.5
871.689	15359.5
871.933	15292.5
872.176	15285.5
872.42	15248.5
872.663	15168.5
872.906	15172.5
873.15	15097.5
873.393	14905.5
873.636	14820.5
873.879	14739.5
874.122	14667.5
874.366	14515.5
874.609	14307.5
874.852	14228.5
875.095	14184.5
875.337	14132.5
875.58	14035.5
875.823	14109.5
876.066	14072.5
876.309	14058.5
876.551	13890.5
876.794	13779.5
877.037	13899.5
877.279	13859.5
877.522	13722.5
877.764	13870.5
878.007	13770.5
878.249	13763.5
878.491	13767.5
878.734	13763.5
878.976	13768.5
879.218	13598.5
879.46	13581.5
879.702	13509.5
879.945	13374.5
880.187	13337.5
880.429	13186.5
880.671	13059.5
880.912	13044.5
881.154	12952.5
881.396	12865.5
881.638	12941.5
881.88	12998.5
882.121	12877.5
882.363	12912.5
882.605	12917.5
882.846	12762.5
883.088	12809.5
883.329	12705.5
883.571	12654.5
883.812	12725.5
884.053	12717.5
884.295	12837.5
884.536	12956.5
884.777	12828.5
885.018	12780.5
885.259	12796.5
885.5	12705.5
885.742	12922.5
885.982	12692.5
886.223	12624.5
886.464	12565.5
886.705	12479.5
886.946	12460.5
887.187	12238.5
887.428	12147.5
887.668	12050.5
887.909	11960.5
888.15	11836.5
888.39	11810.5
888.631	11756.5
888.871	11677.5
889.111	11550.5
889.352	11556.5
889.592	11375.5
889.833	11272.5
890.073	11240.5
890.313	11195.5
890.553	11052.5
890.793	11079.5
891.033	10915.5
891.273	10908.5
891.513	10955.5
891.753	10885.5
891.993	10868.5
892.233	10925.5
892.473	10975.5
892.713	10958.5
892.952	10821.5
893.192	10869.5
893.432	10794.5
893.671	10818.5
893.911	10758.5
894.15	10737.5
894.39	10567.5
894.629	10547.5
894.869	10480.5
895.108	10375.5
895.347	10337.5
895.587	10312.5
895.826	10229.5
896.065	10228.5
896.304	10211.5
896.543	10203.5
896.782	10165.5
897.021	10191.5
897.26	10137.5
897.499	10225.5
897.738	10112.5
897.977	10004.5
898.216	9965.5
898.454	9936.5
898.693	9754.5
898.932	9754.5
899.17	9726.5
899.409	9594.5
899.647	9649.5
899.886	9640.5
900.124	9660.5
900.363	9553.5
900.601	9655.5
900.839	9647.5
901.078	9622.5
901.316	9607.5
901.554	9564.5
901.792	9622.5
902.03	9646.5
902.268	9639.5
902.506	9643.5
902.744	9480.5
902.982	9486.5
903.22	9344.5
903.458	9218.5
903.695	9221.5
903.933	9035.5
904.171	8937.5
904.409	8769.5
904.646	8740.5
904.884	8680.5
905.121	8625.5
905.359	8532.5
905.596	8479.5
905.833	8332.5
906.071	8335.5
906.308	8345.5
906.545	8360.5
906.783	8274.5
907.02	8284.5
907.257	8217.5
907.494	8228.5
907.731	8166.5
907.968	8138.5
908.205	8076.5
908.442	8014.5
908.679	8048.5
908.915	8014.5
909.152	7933.5
909.389	7809.5
909.626	7772.5
909.862	7667.5
910.099	7700.5
910.335	7703.5
910.572	7569.5
910.808	7590.5
911.045	7553.5
911.281	7480.5
911.518	7584.5
911.754	7447.5
911.99	7385.5
912.226	7313.5
912.463	7280.5
912.699	7322.5
912.935	7196.5
913.171	7163.5
913.407	7081.5
913.643	7119.5
913.879	7041.5
914.114	6932.5
914.35	6882.5
914.586	6813.5
914.822	6709.5
915.057	6832.5
915.293	6587.5
915.529	6601.5
915.764	6628.5
916	6629.5
916.235	6601.5
916.471	6613.5
916.706	6539.5
916.941	6538.5
917.177	6512.5
917.412	6530.5
917.647	6513.5
917.882	6455.5
918.117	6463.5
918.352	6489.5
918.588	6484.5
918.823	6426.5
919.057	6314.5
919.292	6216.5
919.527	6254.5
919.762	6136.5
919.997	6112.5
920.232	5953.5
920.466	5974.5
920.701	5806.5
920.935	5879.5
921.17	5850.5
921.405	5781.5
921.639	5840.5
921.873	5742.5
922.108	5741.5
922.342	5725.5
922.576	5699.5
922.811	5673.5
923.045	5695.5
923.279	5692.5
923.513	5532.5
923.747	5577.5
923.981	5567.5
924.215	5480.5
924.449	5428.5
924.683	5430.5
924.917	5394.5
925.151	5394.5
925.385	5408.5
925.618	5382.5
925.852	5300.5
926.086	5287.5
926.319	5265.5
926.553	5331.5
926.786	5292.5
927.02	5263.5
927.253	5297.5
927.486	5312.5
927.72	5206.5
927.953	5323.5
928.186	5163.5
928.42	5210.5
928.653	5188.5
928.886	5146.5
929.119	5111.5
929.352	5143.5
929.585	5098.5
929.818	5034.5
930.051	5006.5
930.284	4968.5
930.516	4941.5
930.749	4873.5
930.982	4892.5
931.215	4806.5
931.447	4740.5
931.68	4780.5
931.912	4767.5
932.145	4729.5
932.377	4798.5
932.61	4908.5
932.842	4750.5
933.074	4796.5
933.307	4723.5
933.539	4796.5
933.771	4779.5
934.003	4797.5
934.236	4831.5
934.468	4799.5
934.7	4805.5
934.932	4811.5
935.164	4690.5
935.395	4709.5
935.627	4740.5
935.859	4778.5
936.091	4661.5
936.323	4703.5
936.554	4625.5
936.786	4583.5
937.017	4514.5
937.249	4564.5
937.481	4471.5
937.712	4561.5
937.943	4488.5
938.175	4471.5
938.406	4537.5
938.637	4569.5
938.869	4410.5
939.1	4442.5
939.331	4392.5
939.562	4438.5
939.793	4411.5
940.024	4416.5
940.255	4480.5
940.486	4325.5
940.717	4323.5
940.948	4276.5
941.179	4234.5
941.409	4233.5
941.64	4309.5
941.871	4314.5
942.102	4250.5
942.332	4264.5
942.563	4287.5
942.793	4274.5
943.024	4240.5
943.254	4260.5
943.484	4280.5
943.715	4286.5
943.945	4290.5
944.175	4156.5
944.405	4140.5
944.636	4141.5
944.866	4220.5
945.096	4246.5
945.326	4148.5
945.556	4169.5
945.786	4166.5
946.016	4110.5
946.245	4047.5
946.475	4056.5
946.705	4075.5
946.935	4037.5
947.164	4023.5
947.394	3925.5
947.624	3935.5
947.853	3991.5
948.083	3996.5
948.312	3915.5
948.542	3882.5
948.771	3851.5
949	3865.5
949.23	3873.5
949.459	3868.5
949.688	3902.5
949.917	3872.5
950.146	3890.5
950.375	3920.5
950.604	3785.5
950.833	3923.5
951.062	3925.5
951.291	3827.5
951.52	3811.5
951.749	3803.5
951.978	3775.5
952.206	3843.5
952.435	3731.5
952.664	3791.5
952.892	3748.5
953.121	3734.5
953.349	3757.5
953.578	3734.5
953.806	3700.5
954.035	3616.5
954.263	3661.5
954.491	3574.5
954.719	3606.5
954.948	3584.5
955.176	3569.5
955.404	3470.5
955.632	3575.5
955.86	3540.5
956.088	3524.5
956.316	3517.5
956.544	3524.5
956.772	3456.5
956.999	3474.5
957.227	3566.5
957.455	3433.5
957.683	3405.5
957.91	3383.5
958.138	3360.5
958.365	3366.5
958.593	3334.5
958.82	3261.5
959.048	3399.5
959.275	3320.5
959.502	3321.5
959.73	3293.5
959.957	3333.5
960.184	3310.5
960.411	3308.5
960.638	3306.5
960.865	3245.5
961.092	3293.5
961.319	3173.5
961.546	3282.5
961.773	3304.5
962	3263.5
962.227	3280.5
962.454	3231.5
962.68	3161.5
962.907	3240.5
963.134	3207.5
963.36	3199.5
963.587	3180.5
963.813	3112.5
964.04	3131.5
964.266	3104.5
964.493	3153.5
964.719	3129.5
964.945	3085.5
965.171	2968.5
965.398	3050.5
965.624	3072.5
965.85	2950.5
966.076	2953.5
966.302	3009.5
966.528	2968.5
966.754	2974.5
966.98	2958.5
967.206	2954.5
967.431	2935.5
967.657	2987.5
967.883	2952.5
968.109	2949.5
968.334	2900.5
968.56	2864.5
968.785	2904.5
969.011	2829.5
969.236	2897.5
969.462	2847.5
969.687	2835.5
969.912	2855.5
970.138	2879.5
970.363	2788.5
970.588	2841.5
970.813	2789.5
971.038	2762.5
971.263	2796.5
971.488	2762.5
971.713	2828.5
971.938	2776.5
972.163	2682.5
972.388	2736.5
972.613	2663.5
972.838	2671.5
973.062	2684.5
973.287	2641.5
973.512	2624.5
973.736	2652.5
973.961	2628.5
974.185	2590.5
974.41	2623.5
974.634	2525.5
974.858	2540.5
975.083	2559.5
975.307	2575.5
975.531	2523.5
975.755	2457.5
975.98	2504.5
976.204	2427.5
976.428	2395.5
976.652	2420.5
976.876	2394.5
977.1	2446.5
977.324	2383.5
977.547	2430.5
977.771	2438.5
977.995	2395.5
978.219	2340.5
978.442	2472.5
978.666	2372.5
978.89	2414.5
979.113	2372.5
979.337	2397.5
979.56	2343.5
979.783	2452.5
980.007	2294.5
980.23	2311.5
980.453	2276.5
980.677	2303.5
980.9	2303.5
981.123	2184.5
981.346	2300.5
981.569	2290.5
981.792	2316.5
982.015	2246.5
982.238	2230.5
982.461	2244.5
982.684	2162.5
982.907	2144.5
983.129	2151.5
983.352	2222.5
983.575	2182.5
983.797	2185.5
984.02	2145.5
984.242	2146.5
984.465	2159.5
984.687	2151.5
984.91	2143.5
985.132	2144.5
985.354	2156.5
985.577	2117.5
985.799	2097.5
986.021	1989.5
986.243	2074.5
986.465	2061.5
986.687	2120.5
986.909	2125.5
987.131	2073.5
987.353	2028.5
987.575	2056.5
987.797	2067.5
988.019	1947.5
988.241	2030.5
988.462	2003.5
988.684	2049.5
988.906	2045.5
989.127	2078.5
989.349	1946.5
989.57	2007.5
989.792	2015.5
990.013	2014.5
990.234	2054.5
990.456	2051.5
990.677	2022.5
990.898	1958.5
991.119	1947.5
991.341	1988.5
991.562	1906.5
991.783	1956.5
992.004	1901.5
992.225	1888.5
992.446	1911.5
992.667	1827.5
992.887	1885.5
993.108	1806.5
993.329	1909.5
993.55	1878.5
993.77	1806.5
993.991	1818.5
994.212	1828.5
994.432	1801.5
994.653	1826.5
994.873	1815.5
995.093	1707.5
995.314	1742.5
995.534	1805.5
995.754	1815.5
995.975	1837.5
996.195	1727.5
996.415	1764.5
996.635	1769.5
996.855	1767.5
997.075	1702.5
997.295	1721.5
997.515	1709.5
997.735	1778.5
997.955	1710.5
998.174	1704.5
998.394	1695.5
998.614	1720.5
998.834	1692.5
999.053	1754.5
999.273	1727.5
999.492	1742.5
999.712	1730.5
999.931	1669.5
1000.151	1744.5
1000.37	1692.5
1000.589	1745.5
1000.809	1666.5
1001.028	1779.5
1001.247	1724.5
1001.466	1603.5
1001.685	1752.5
1001.904	1677.5
1002.123	1655.5
1002.342	1675.5
1002.561	1602.5
1002.78	1643.5
1002.999	1707.5
1003.218	1628.5
1003.436	1624.5
1003.655	1666.5
1003.874	1604.5
1004.092	1653.5
1004.311	1654.5
1004.53	1599.5
1004.748	1685.5
1004.966	1619.5
1005.185	1656.5
1005.403	1640.5
1005.622	1615.5
1005.84	1688.5
1006.058	1589.5
1006.276	1603.5
1006.494	1987.5
1006.712	1582.5
1006.931	1659.5
1007.149	1558.5
1007.367	1549.5
1007.584	1564.5
1007.802	1619.5
1008.02	1585.5
1008.238	1673.5
1008.456	1644.5
1008.673	1516.5
1008.891	1617.5
1009.109	1575.5
1009.326	1606.5
1009.544	1693.5
1009.761	1566.5
1009.979	1670.5
1010.196	1658.5
1010.413	1730.5
1010.631	1757.5
1010.848	1783.5
1011.065	1752.5
1011.282	1691.5
1011.5	1652.5
1011.717	1744.5
1011.934	1691.5
1012.151	1690.5
1012.368	1717.5
1012.585	1629.5
1012.801	1699.5
1013.018	1632.5
1013.235	1638.5
1013.452	1635.5
1013.669	1660.5
1013.885	1625.5
1014.102	1640.5
1014.318	1615.5
1014.535	1593.5
1014.751	1631.5
1014.968	1616.5
1015.184	1632.5
1015.401	1562.5
1015.617	1577.5
1015.833	1512.5
1016.049	1532.5
1016.266	1519.5
1016.482	1537.5
1016.698	1467.5
1016.914	1539.5
1017.13	1460.5
1017.346	1458.5
1017.562	1506.5
1017.778	1456.5
1017.993	1450.5
1018.209	1509.5
1018.425	1468.5
1018.641	1431.5
1018.856	1420.5
1019.072	1451.5
1019.288	1483.5
1019.503	1423.5
1019.719	1367.5
1019.934	1392.5
1020.149	1447.5
1020.365	1359.5
1020.58	1351.5
1020.795	1384.5
1021.011	1324.5
1021.226	1298.5
1021.441	1324.5
1021.656	1260.5
1021.871	1196.5
1022.086	1184.5
1022.301	1197.5
1022.516	1177.5
1022.731	1246.5
1022.946	1160.5
1023.16	1118.5
1023.375	1110.5
1023.59	1097.5
1023.804	1066.5
1024.019	1164.5
1024.234	1043.5
1024.448	1073.5
1024.663	1005.5
1024.877	1035.5
1025.092	1033.5
1025.306	1044.5
1025.52	960.5
1025.734	1050.5
1025.949	973.5
1026.163	919.5
1026.377	877.5
1026.591	941.5
1026.805	864.5
1027.019	841.5
1027.233	832.5
1027.447	774.5
1027.661	869.5
1027.875	794.5
1028.088	818.5
1028.302	749.5
1028.516	735.5
1028.73	738.5
1028.943	734.5
1029.157	693.5
1029.37	640.5
1029.584	-4.5
1029.797	-3.5
1030.011	-2.5
1030.224	0.5
