Data from QEP037381__210__14-24-15-351.txt Node

Date: Fri Apr 28 14:24:15 EDT 2023
User: dcclab
Spectrometer: QEP03738
Trigger mode: 4
Integration Time (sec): 1.000000E1
Scans to average: 1
Electric dark correction enabled: true
Nonlinearity correction enabled: false
Boxcar width: 0
XAxis mode: Wavelengths
Number of Pixels in Spectrum: 1044
>>>>>Begin Spectral Data<<<<<
784.041	10
784.3	-1
784.558	-1
784.817	-5
785.075	66210
785.334	13581
785.592	7195
785.851	5090
786.109	3911
786.368	3040
786.626	2436
786.884	2059
787.143	1728
787.401	1448
787.659	1304
787.917	1114
788.175	1020
788.433	904
788.691	797
788.949	744
789.207	713
789.465	615
789.723	606
789.98	548
790.238	597
790.496	550
790.753	533
791.011	565
791.268	508
791.526	500
791.783	509
792.041	510
792.298	408
792.556	485
792.813	465
793.07	421
793.327	436
793.584	491
793.841	417
794.099	453
794.356	503
794.613	403
794.869	448
795.126	401
795.383	388
795.64	420
795.897	375
796.153	429
796.41	415
796.667	383
796.923	390
797.18	399
797.436	441
797.693	386
797.949	450
798.206	467
798.462	391
798.718	442
798.974	416
799.231	464
799.487	463
799.743	452
799.999	470
800.255	487
800.511	456
800.767	515
801.023	489
801.279	524
801.534	561
801.79	605
802.046	625
802.302	742
802.557	851
802.813	1078
803.068	1262
803.324	1814
803.579	2457
803.835	3421
804.09	4736
804.345	6172
804.601	7700
804.856	8996
805.111	10140
805.366	10808
805.621	11267
805.876	11508
806.131	11742
806.386	12019
806.641	12159
806.896	12255
807.151	12617
807.406	12720
807.661	12984
807.915	13223
808.17	13363
808.425	13587
808.679	13703
808.934	13908
809.188	14021
809.443	14197
809.697	14457
809.951	14482
810.206	14655
810.46	14708
810.714	14917
810.968	15074
811.223	15092
811.477	15276
811.731	15367
811.985	15461
812.239	15493
812.493	15642
812.747	15694
813	15663
813.254	15893
813.508	15969
813.762	16003
814.015	15962
814.269	16161
814.522	16359
814.776	16505
815.03	16783
815.283	16881
815.536	17133
815.79	17453
816.043	17654
816.296	17942
816.55	18129
816.803	18298
817.056	18679
817.309	18777
817.562	18958
817.815	19130
818.068	19396
818.321	19546
818.574	19825
818.827	20160
819.079	20359
819.332	20883
819.585	21032
819.838	21442
820.09	21520
820.343	21657
820.595	21796
820.848	21900
821.1	21955
821.353	21940
821.605	22025
821.857	21918
822.11	21827
822.362	21870
822.614	21792
822.866	21806
823.118	21786
823.37	21952
823.622	21942
823.874	22030
824.126	22167
824.378	22125
824.63	22297
824.882	22377
825.134	22298
825.385	22274
825.637	22099
825.888	22122
826.14	22092
826.392	21864
826.643	21805
826.895	21632
827.146	21807
827.397	21677
827.649	21699
827.9	21659
828.151	21641
828.402	21697
828.653	21727
828.905	21737
829.156	21736
829.407	21706
829.658	21819
829.909	21644
830.159	21631
830.41	21502
830.661	21396
830.912	21285
831.162	21195
831.413	21231
831.664	21100
831.914	21202
832.165	21212
832.415	21173
832.666	21081
832.916	21134
833.167	21117
833.417	20975
833.667	20910
833.917	20868
834.168	20813
834.418	20766
834.668	20685
834.918	20550
835.168	20517
835.418	20505
835.668	20362
835.918	20429
836.167	20329
836.417	20242
836.667	20261
836.917	20095
837.166	20146
837.416	20135
837.666	20017
837.915	19928
838.165	19928
838.414	19779
838.663	19684
838.913	19732
839.162	19622
839.411	19665
839.661	19607
839.91	19590
840.159	19572
840.408	19494
840.657	19580
840.906	19426
841.155	19490
841.404	19359
841.653	19518
841.902	19570
842.15	19439
842.399	19482
842.648	19381
842.897	19255
843.145	19198
843.394	19112
843.642	19048
843.891	18968
844.139	18877
844.388	18658
844.636	18561
844.884	18613
845.133	18558
845.381	18472
845.629	18597
845.877	18558
846.125	18507
846.373	18442
846.621	18303
846.869	18321
847.117	18155
847.365	18083
847.613	18096
847.861	17985
848.108	17975
848.356	17961
848.604	18007
848.851	17942
849.099	17960
849.346	17900
849.594	18074
849.841	18132
850.089	18123
850.336	18156
850.583	18193
850.831	18097
851.078	18021
851.325	17918
851.572	17896
851.819	17680
852.066	17243
852.313	17141
852.56	16947
852.807	16827
853.054	16846
853.301	16800
853.548	16874
853.794	16954
854.041	16997
854.288	17037
854.534	17260
854.781	17081
855.028	17085
855.274	17005
855.52	16775
855.767	16725
856.013	16652
856.26	16899
856.506	16606
856.752	16582
856.998	16528
857.244	16427
857.49	16660
857.736	16682
857.982	16598
858.228	16591
858.474	16435
858.72	16372
858.966	16249
859.212	16120
859.458	15982
859.703	15798
859.949	15600
860.195	15516
860.44	15429
860.686	15319
860.931	15404
861.177	15201
861.422	15181
861.667	15114
861.913	15091
862.158	15180
862.403	15380
862.648	15390
862.893	15469
863.138	15327
863.384	15217
863.629	15264
863.873	15183
864.118	15083
864.363	14996
864.608	14899
864.853	15004
865.098	14809
865.342	14782
865.587	14596
865.832	14667
866.076	14519
866.321	14500
866.565	14532
866.81	14392
867.054	14443
867.298	14418
867.543	14329
867.787	14426
868.031	14339
868.275	14287
868.519	14238
868.764	14155
869.008	14155
869.252	14202
869.496	14033
869.739	14121
869.983	14123
870.227	14011
870.471	14037
870.715	14052
870.958	14000
871.202	14116
871.446	14010
871.689	14011
871.933	14081
872.176	14012
872.42	13975
872.663	13963
872.906	13844
873.15	13811
873.393	13654
873.636	13636
873.879	13512
874.122	13446
874.366	13292
874.609	13187
874.852	13068
875.095	13076
875.337	13011
875.58	12844
875.823	12923
876.066	12953
876.309	12879
876.551	12771
876.794	12694
877.037	12696
877.279	12638
877.522	12661
877.764	12739
878.007	12638
878.249	12690
878.491	12622
878.734	12611
878.976	12617
879.218	12489
879.46	12453
879.702	12273
879.945	12281
880.187	12106
880.429	12040
880.671	12042
880.912	11948
881.154	11893
881.396	11817
881.638	11877
881.88	11850
882.121	11832
882.363	11741
882.605	11826
882.846	11653
883.088	11704
883.329	11631
883.571	11595
883.812	11604
884.053	11701
884.295	11762
884.536	11905
884.777	11704
885.018	11744
885.259	11774
885.5	11679
885.742	11795
885.982	11691
886.223	11527
886.464	11476
886.705	11344
886.946	11325
887.187	11176
887.428	11197
887.668	11009
887.909	10921
888.15	10712
888.39	10754
888.631	10736
888.871	10665
889.111	10628
889.352	10509
889.592	10366
889.833	10330
890.073	10242
890.313	10273
890.553	10089
890.793	10022
891.033	10062
891.273	9985
891.513	9927
891.753	10007
891.993	9949
892.233	9987
892.473	10063
892.713	10037
892.952	9924
893.192	9904
893.432	9897
893.671	9954
893.911	9869
894.15	9778
894.39	9653
894.629	9608
894.869	9567
895.108	9517
895.347	9512
895.587	9453
895.826	9404
896.065	9353
896.304	9435
896.543	9402
896.782	9258
897.021	9301
897.26	9290
897.499	9334
897.738	9290
897.977	9166
898.216	9097
898.454	9011
898.693	8873
898.932	8901
899.17	8835
899.409	8821
899.647	8844
899.886	8766
900.124	8792
900.363	8747
900.601	8717
900.839	8787
901.078	8792
901.316	8803
901.554	8830
901.792	8812
902.03	8761
902.268	8816
902.506	8779
902.744	8656
902.982	8717
903.22	8511
903.458	8452
903.695	8363
903.933	8334
904.171	8151
904.409	8063
904.646	7987
904.884	7849
905.121	7842
905.359	7800
905.596	7722
905.833	7604
906.071	7608
906.308	7706
906.545	7537
906.783	7518
907.02	7544
907.257	7495
907.494	7495
907.731	7486
907.968	7460
908.205	7367
908.442	7353
908.679	7346
908.915	7252
909.152	7208
909.389	7077
909.626	7079
909.862	6965
910.099	7012
910.335	7036
910.572	6921
910.808	6993
911.045	6875
911.281	6829
911.518	6916
911.754	6787
911.99	6775
912.226	6736
912.463	6630
912.699	6627
912.935	6555
913.171	6475
913.407	6461
913.643	6461
913.879	6386
914.114	6277
914.35	6265
914.586	6180
914.822	6114
915.057	6155
915.293	6019
915.529	6037
915.764	6072
916	6025
916.235	5985
916.471	6020
916.706	5933
916.941	5976
917.177	5929
917.412	5992
917.647	5947
917.882	5856
918.117	5940
918.352	5894
918.588	5881
918.823	5793
919.057	5769
919.292	5639
919.527	5680
919.762	5557
919.997	5561
920.232	5447
920.466	5510
920.701	5332
920.935	5329
921.17	5280
921.405	5262
921.639	5296
921.873	5231
922.108	5233
922.342	5209
922.576	5163
922.811	5147
923.045	5261
923.279	5206
923.513	5077
923.747	5132
923.981	5081
924.215	5013
924.449	4957
924.683	4926
924.917	4939
925.151	4886
925.385	4951
925.618	4902
925.852	4820
926.086	4800
926.319	4825
926.553	4871
926.786	4833
927.02	4772
927.253	4861
927.486	4855
927.72	4779
927.953	4800
928.186	4698
928.42	4747
928.653	4689
928.886	4639
929.119	4736
929.352	4680
929.585	4574
929.818	4567
930.051	4570
930.284	4537
930.516	4431
930.749	4442
930.982	4423
931.215	4405
931.447	4303
931.68	4333
931.912	4313
932.145	4310
932.377	4364
932.61	4473
932.842	4281
933.074	4304
933.307	4314
933.539	4317
933.771	4383
934.003	4299
934.236	4397
934.468	4376
934.7	4332
934.932	4308
935.164	4240
935.395	4227
935.627	4231
935.859	4239
936.091	4194
936.323	4219
936.554	4242
936.786	4206
937.017	4103
937.249	4172
937.481	4067
937.712	4164
937.943	4114
938.175	4052
938.406	4064
938.637	4085
938.869	3981
939.1	4015
939.331	4060
939.562	4038
939.793	4037
940.024	4040
940.255	4012
940.486	3975
940.717	3913
940.948	3927
941.179	3879
941.409	3886
941.64	3880
941.871	3885
942.102	3869
942.332	3884
942.563	3907
942.793	3884
943.024	3843
943.254	3856
943.484	3926
943.715	3895
943.945	3876
944.175	3778
944.405	3814
944.636	3817
944.866	3853
945.096	3878
945.326	3735
945.556	3800
945.786	3800
946.016	3755
946.245	3671
946.475	3666
946.705	3678
946.935	3679
947.164	3659
947.394	3626
947.624	3657
947.853	3623
948.083	3625
948.312	3562
948.542	3524
948.771	3507
949	3512
949.23	3537
949.459	3529
949.688	3579
949.917	3502
950.146	3504
950.375	3589
950.604	3471
950.833	3539
951.062	3546
951.291	3496
951.52	3446
951.749	3458
951.978	3400
952.206	3427
952.435	3427
952.664	3444
952.892	3447
953.121	3360
953.349	3438
953.578	3386
953.806	3384
954.035	3328
954.263	3379
954.491	3282
954.719	3320
954.948	3288
955.176	3302
955.404	3171
955.632	3215
955.86	3243
956.088	3214
956.316	3240
956.544	3266
956.772	3129
956.999	3104
957.227	3204
957.455	3117
957.683	3149
957.91	3074
958.138	3044
958.365	3029
958.593	3040
958.82	3021
959.048	3078
959.275	3008
959.502	3016
959.73	3004
959.957	3029
960.184	3024
960.411	2971
960.638	3042
960.865	2973
961.092	2999
961.319	2927
961.546	3029
961.773	3029
962	2962
962.227	3015
962.454	2965
962.68	2942
962.907	2959
963.134	2904
963.36	2924
963.587	2932
963.813	2846
964.04	2868
964.266	2798
964.493	2864
964.719	2824
964.945	2862
965.171	2710
965.398	2745
965.624	2825
965.85	2717
966.076	2702
966.302	2764
966.528	2681
966.754	2731
966.98	2728
967.206	2685
967.431	2655
967.657	2726
967.883	2687
968.109	2683
968.334	2628
968.56	2592
968.785	2637
969.011	2549
969.236	2586
969.462	2582
969.687	2596
969.912	2667
970.138	2634
970.363	2537
970.588	2559
970.813	2557
971.038	2526
971.263	2583
971.488	2529
971.713	2578
971.938	2559
972.163	2424
972.388	2443
972.613	2426
972.838	2435
973.062	2439
973.287	2457
973.512	2343
973.736	2407
973.961	2385
974.185	2371
974.41	2412
974.634	2314
974.858	2329
975.083	2350
975.307	2357
975.531	2301
975.755	2237
975.98	2248
976.204	2208
976.428	2188
976.652	2194
976.876	2214
977.1	2204
977.324	2154
977.547	2221
977.771	2256
977.995	2228
978.219	2166
978.442	2264
978.666	2167
978.89	2186
979.113	2185
979.337	2151
979.56	2130
979.783	2210
980.007	2082
980.23	2148
980.453	2101
980.677	2130
980.9	2117
981.123	1995
981.346	2121
981.569	2092
981.792	2102
982.015	2052
982.238	2012
982.461	2022
982.684	2002
982.907	1986
983.129	1952
983.352	2041
983.575	2017
983.797	2018
984.02	1972
984.242	1930
984.465	1956
984.687	1947
984.91	2014
985.132	1984
985.354	1955
985.577	1928
985.799	1915
986.021	1844
986.243	1873
986.465	1891
986.687	1940
986.909	1971
987.131	1926
987.353	1889
987.575	1910
987.797	1850
988.019	1778
988.241	1878
988.462	1843
988.684	1904
988.906	1896
989.127	1895
989.349	1789
989.57	1834
989.792	1868
990.013	1879
990.234	1858
990.456	1904
990.677	1852
990.898	1817
991.119	1817
991.341	1810
991.562	1789
991.783	1801
992.004	1733
992.225	1706
992.446	1774
992.667	1695
992.887	1753
993.108	1670
993.329	1788
993.55	1717
993.77	1688
993.991	1674
994.212	1714
994.432	1680
994.653	1701
994.873	1693
995.093	1589
995.314	1625
995.534	1679
995.754	1694
995.975	1713
996.195	1581
996.415	1665
996.635	1624
996.855	1640
997.075	1610
997.295	1613
997.515	1598
997.735	1645
997.955	1610
998.174	1612
998.394	1583
998.614	1603
998.834	1560
999.053	1621
999.273	1626
999.492	1680
999.712	1620
999.931	1545
1000.151	1608
1000.37	1566
1000.589	1648
1000.809	1561
1001.028	1660
1001.247	1593
1001.466	1484
1001.685	1620
1001.904	1597
1002.123	1547
1002.342	1565
1002.561	1545
1002.78	1534
1002.999	1604
1003.218	1557
1003.436	1518
1003.655	1584
1003.874	1508
1004.092	1526
1004.311	1534
1004.53	1529
1004.748	1611
1004.966	1513
1005.185	1562
1005.403	1540
1005.622	1538
1005.84	1573
1006.058	1499
1006.276	1515
1006.494	1868
1006.712	1504
1006.931	1556
1007.149	1474
1007.367	1477
1007.584	1515
1007.802	1541
1008.02	1477
1008.238	1569
1008.456	1548
1008.673	1435
1008.891	1514
1009.109	1467
1009.326	1525
1009.544	1629
1009.761	1487
1009.979	1561
1010.196	1558
1010.413	1613
1010.631	1642
1010.848	1681
1011.065	1637
1011.282	1605
1011.5	1550
1011.717	1643
1011.934	1577
1012.151	1618
1012.368	1599
1012.585	1549
1012.801	1597
1013.018	1565
1013.235	1567
1013.452	1567
1013.669	1525
1013.885	1539
1014.102	1577
1014.318	1519
1014.535	1506
1014.751	1514
1014.968	1511
1015.184	1536
1015.401	1450
1015.617	1505
1015.833	1426
1016.049	1434
1016.266	1414
1016.482	1449
1016.698	1349
1016.914	1430
1017.13	1382
1017.346	1425
1017.562	1476
1017.778	1384
1017.993	1371
1018.209	1394
1018.425	1376
1018.641	1318
1018.856	1321
1019.072	1367
1019.288	1380
1019.503	1354
1019.719	1254
1019.934	1276
1020.149	1366
1020.365	1303
1020.58	1269
1020.795	1304
1021.011	1256
1021.226	1233
1021.441	1267
1021.656	1199
1021.871	1100
1022.086	1140
1022.301	1139
1022.516	1128
1022.731	1206
1022.946	1070
1023.16	1068
1023.375	1049
1023.59	1028
1023.804	1019
1024.019	1108
1024.234	961
1024.448	1024
1024.663	942
1024.877	968
1025.092	974
1025.306	998
1025.52	901
1025.734	985
1025.949	930
1026.163	889
1026.377	823
1026.591	886
1026.805	813
1027.019	814
1027.233	775
1027.447	730
1027.661	824
1027.875	776
1028.088	767
1028.302	710
1028.516	706
1028.73	704
1028.943	700
1029.157	654
1029.37	603
1029.584	-1
1029.797	-1
1030.011	0
1030.224	-1
