Data from QEP037381__203__14-23-05-351.txt Node

Date: Fri Apr 28 14:23:05 EDT 2023
User: dcclab
Spectrometer: QEP03738
Trigger mode: 4
Integration Time (sec): 1.000000E1
Scans to average: 1
Electric dark correction enabled: true
Nonlinearity correction enabled: false
Boxcar width: 0
XAxis mode: Wavelengths
Number of Pixels in Spectrum: 1044
>>>>>Begin Spectral Data<<<<<
784.041	12.38
784.3	-1.62
784.558	-2.62
784.817	-6.62
785.075	68580.38
785.334	13917.38
785.592	7312.38
785.851	5124.38
786.109	3842.38
786.368	3050.38
786.626	2511.38
786.884	2077.38
787.143	1734.38
787.401	1437.38
787.659	1315.38
787.917	1094.38
788.175	1023.38
788.433	880.38
788.691	787.38
788.949	740.38
789.207	700.38
789.465	608.38
789.723	601.38
789.98	546.38
790.238	597.38
790.496	559.38
790.753	511.38
791.011	577.38
791.268	505.38
791.526	475.38
791.783	512.38
792.041	487.38
792.298	418.38
792.556	470.38
792.813	469.38
793.07	447.38
793.327	433.38
793.584	502.38
793.841	435.38
794.099	442.38
794.356	500.38
794.613	414.38
794.869	452.38
795.126	404.38
795.383	383.38
795.64	415.38
795.897	384.38
796.153	433.38
796.41	405.38
796.667	394.38
796.923	389.38
797.18	403.38
797.436	428.38
797.693	387.38
797.949	446.38
798.206	474.38
798.462	386.38
798.718	439.38
798.974	425.38
799.231	443.38
799.487	462.38
799.743	445.38
799.999	476.38
800.255	468.38
800.511	439.38
800.767	499.38
801.023	498.38
801.279	503.38
801.534	560.38
801.79	587.38
802.046	625.38
802.302	735.38
802.557	841.38
802.813	1056.38
803.068	1318.38
803.324	1809.38
803.579	2502.38
803.835	3479.38
804.09	4722.38
804.345	6009.38
804.601	7235.38
804.856	8403.38
805.111	9342.38
805.366	9953.38
805.621	10368.38
805.876	10664.38
806.131	10906.38
806.386	11031.38
806.641	11063.38
806.896	11267.38
807.151	11504.38
807.406	11485.38
807.661	11752.38
807.915	11913.38
808.17	12122.38
808.425	12212.38
808.679	12286.38
808.934	12570.38
809.188	12588.38
809.443	12678.38
809.697	12945.38
809.951	12927.38
810.206	13003.38
810.46	13124.38
810.714	13227.38
810.968	13253.38
811.223	13393.38
811.477	13494.38
811.731	13615.38
811.985	13616.38
812.239	13591.38
812.493	13777.38
812.747	13709.38
813	13720.38
813.254	13876.38
813.508	13959.38
813.762	13988.38
814.015	14014.38
814.269	14022.38
814.522	14137.38
814.776	14309.38
815.03	14453.38
815.283	14544.38
815.536	14718.38
815.79	15072.38
816.043	15122.38
816.296	15393.38
816.55	15403.38
816.803	15719.38
817.056	15929.38
817.309	16042.38
817.562	16130.38
817.815	16301.38
818.068	16387.38
818.321	16643.38
818.574	16710.38
818.827	16999.38
819.079	17120.38
819.332	17552.38
819.585	17750.38
819.838	17954.38
820.09	17960.38
820.343	18155.38
820.595	18147.38
820.848	18210.38
821.1	18340.38
821.353	18214.38
821.605	18134.38
821.857	18359.38
822.11	18122.38
822.362	18151.38
822.614	18057.38
822.866	18068.38
823.118	18165.38
823.37	18227.38
823.622	18319.38
823.874	18415.38
824.126	18428.38
824.378	18357.38
824.63	18409.38
824.882	18466.38
825.134	18365.38
825.385	18333.38
825.637	18294.38
825.888	18220.38
826.14	18219.38
826.392	18084.38
826.643	17953.38
826.895	18024.38
827.146	17712.38
827.397	17719.38
827.649	17815.38
827.9	17750.38
828.151	17880.38
828.402	17852.38
828.653	17789.38
828.905	17832.38
829.156	17937.38
829.407	17914.38
829.658	18015.38
829.909	18081.38
830.159	18082.38
830.41	17922.38
830.661	17780.38
830.912	17656.38
831.162	17542.38
831.413	17514.38
831.664	17608.38
831.914	17556.38
832.165	17483.38
832.415	17556.38
832.666	17530.38
832.916	17552.38
833.167	17573.38
833.417	17576.38
833.667	17268.38
833.917	17280.38
834.168	17294.38
834.418	17195.38
834.668	17167.38
834.918	17124.38
835.168	16983.38
835.418	16848.38
835.668	16796.38
835.918	16810.38
836.167	16772.38
836.417	16685.38
836.667	16763.38
836.917	16661.38
837.166	16648.38
837.416	16795.38
837.666	16734.38
837.915	16569.38
838.165	16616.38
838.414	16455.38
838.663	16548.38
838.913	16485.38
839.162	16399.38
839.411	16561.38
839.661	16294.38
839.91	16385.38
840.159	16312.38
840.408	16379.38
840.657	16405.38
840.906	16422.38
841.155	16368.38
841.404	16347.38
841.653	16247.38
841.902	16349.38
842.15	16424.38
842.399	16410.38
842.648	16366.38
842.897	16326.38
843.145	16199.38
843.394	16084.38
843.642	16017.38
843.891	15872.38
844.139	15776.38
844.388	15626.38
844.636	15563.38
844.884	15579.38
845.133	15495.38
845.381	15503.38
845.629	15584.38
845.877	15503.38
846.125	15536.38
846.373	15374.38
846.621	15347.38
846.869	15375.38
847.117	15331.38
847.365	15154.38
847.613	15090.38
847.861	15085.38
848.108	15177.38
848.356	15117.38
848.604	15111.38
848.851	14996.38
849.099	15161.38
849.346	15086.38
849.594	15166.38
849.841	15144.38
850.089	15155.38
850.336	15154.38
850.583	15179.38
850.831	15102.38
851.078	14964.38
851.325	14985.38
851.572	15119.38
851.819	14798.38
852.066	14522.38
852.313	14347.38
852.56	14244.38
852.807	14180.38
853.054	14173.38
853.301	14183.38
853.548	14189.38
853.794	14413.38
854.041	14353.38
854.288	14357.38
854.534	14574.38
854.781	14502.38
855.028	14513.38
855.274	14474.38
855.52	14511.38
855.767	14517.38
856.013	14544.38
856.26	14744.38
856.506	14287.38
856.752	14176.38
856.998	14142.38
857.244	14246.38
857.49	14312.38
857.736	14343.38
857.982	14337.38
858.228	14206.38
858.474	14003.38
858.72	13909.38
858.966	13855.38
859.212	13765.38
859.458	13617.38
859.703	13422.38
859.949	13280.38
860.195	13209.38
860.44	13109.38
860.686	13140.38
860.931	13196.38
861.177	12989.38
861.422	12942.38
861.667	12799.38
861.913	12770.38
862.158	12810.38
862.403	12751.38
862.648	12899.38
862.893	12827.38
863.138	12836.38
863.384	12703.38
863.629	12723.38
863.873	12683.38
864.118	12717.38
864.363	12565.38
864.608	12566.38
864.853	12484.38
865.098	12379.38
865.342	12329.38
865.587	12228.38
865.832	12276.38
866.076	12184.38
866.321	12218.38
866.565	12112.38
866.81	12069.38
867.054	12103.38
867.298	12046.38
867.543	11989.38
867.787	12045.38
868.031	12065.38
868.275	11928.38
868.519	11980.38
868.764	12018.38
869.008	11869.38
869.252	12012.38
869.496	11909.38
869.739	11948.38
869.983	11975.38
870.227	12028.38
870.471	11953.38
870.715	11962.38
870.958	12062.38
871.202	12026.38
871.446	12096.38
871.689	12063.38
871.933	12098.38
872.176	12123.38
872.42	12065.38
872.663	12110.38
872.906	11990.38
873.15	12166.38
873.393	12120.38
873.636	12089.38
873.879	12006.38
874.122	11836.38
874.366	11645.38
874.609	11498.38
874.852	11327.38
875.095	11214.38
875.337	11144.38
875.58	11004.38
875.823	11075.38
876.066	10974.38
876.309	11028.38
876.551	10862.38
876.794	10749.38
877.037	10857.38
877.279	10706.38
877.522	10773.38
877.764	10729.38
878.007	10742.38
878.249	10703.38
878.491	10646.38
878.734	10655.38
878.976	10669.38
879.218	10547.38
879.46	10520.38
879.702	10405.38
879.945	10346.38
880.187	10199.38
880.429	10130.38
880.671	10042.38
880.912	10007.38
881.154	9964.38
881.396	9878.38
881.638	9938.38
881.88	9886.38
882.121	9928.38
882.363	9862.38
882.605	9905.38
882.846	10001.38
883.088	9966.38
883.329	9995.38
883.571	10135.38
883.812	10411.38
884.053	10756.38
884.295	11108.38
884.536	11265.38
884.777	11036.38
885.018	10937.38
885.259	10882.38
885.5	10662.38
885.742	10736.38
885.982	10541.38
886.223	10459.38
886.464	10395.38
886.705	10185.38
886.946	10053.38
887.187	9703.38
887.428	9627.38
887.668	9438.38
887.909	9229.38
888.15	9123.38
888.39	9133.38
888.631	9071.38
888.871	8972.38
889.111	8842.38
889.352	8729.38
889.592	8658.38
889.833	8603.38
890.073	8474.38
890.313	8527.38
890.553	8367.38
890.793	8359.38
891.033	8357.38
891.273	8320.38
891.513	8244.38
891.753	8272.38
891.993	8241.38
892.233	8278.38
892.473	8342.38
892.713	8307.38
892.952	8178.38
893.192	8282.38
893.432	8209.38
893.671	8244.38
893.911	8196.38
894.15	8168.38
894.39	7979.38
894.629	8043.38
894.869	7883.38
895.108	7877.38
895.347	7787.38
895.587	7852.38
895.826	7743.38
896.065	7753.38
896.304	7838.38
896.543	7763.38
896.782	7654.38
897.021	7712.38
897.26	7656.38
897.499	7750.38
897.738	7701.38
897.977	7613.38
898.216	7611.38
898.454	7470.38
898.693	7430.38
898.932	7478.38
899.17	7354.38
899.409	7368.38
899.647	7335.38
899.886	7336.38
900.124	7397.38
900.363	7346.38
900.601	7387.38
900.839	7411.38
901.078	7539.38
901.316	7480.38
901.554	7546.38
901.792	7639.38
902.03	7555.38
902.268	7620.38
902.506	7580.38
902.744	7513.38
902.982	7452.38
903.22	7323.38
903.458	7181.38
903.695	7085.38
903.933	6965.38
904.171	6780.38
904.409	6740.38
904.646	6630.38
904.884	6548.38
905.121	6461.38
905.359	6471.38
905.596	6418.38
905.833	6305.38
906.071	6272.38
906.308	6312.38
906.545	6263.38
906.783	6232.38
907.02	6260.38
907.257	6209.38
907.494	6190.38
907.731	6273.38
907.968	6132.38
908.205	6116.38
908.442	6090.38
908.679	6059.38
908.915	5995.38
909.152	5976.38
909.389	5847.38
909.626	5888.38
909.862	5812.38
910.099	5785.38
910.335	5762.38
910.572	5739.38
910.808	5739.38
911.045	5728.38
911.281	5619.38
911.518	5755.38
911.754	5625.38
911.99	5622.38
912.226	5559.38
912.463	5495.38
912.699	5448.38
912.935	5444.38
913.171	5412.38
913.407	5318.38
913.643	5349.38
913.879	5254.38
914.114	5224.38
914.35	5212.38
914.586	5120.38
914.822	5035.38
915.057	5130.38
915.293	4939.38
915.529	4963.38
915.764	5040.38
916	4992.38
916.235	4983.38
916.471	5013.38
916.706	4903.38
916.941	4947.38
917.177	4877.38
917.412	4949.38
917.647	4953.38
917.882	4842.38
918.117	4889.38
918.352	4870.38
918.588	4903.38
918.823	4817.38
919.057	4773.38
919.292	4645.38
919.527	4736.38
919.762	4635.38
919.997	4648.38
920.232	4538.38
920.466	4493.38
920.701	4384.38
920.935	4402.38
921.17	4375.38
921.405	4330.38
921.639	4361.38
921.873	4370.38
922.108	4377.38
922.342	4372.38
922.576	4256.38
922.811	4313.38
923.045	4309.38
923.279	4328.38
923.513	4163.38
923.747	4273.38
923.981	4167.38
924.215	4139.38
924.449	4121.38
924.683	4054.38
924.917	4071.38
925.151	4084.38
925.385	4105.38
925.618	4090.38
925.852	4021.38
926.086	3963.38
926.319	4005.38
926.553	4000.38
926.786	4018.38
927.02	4007.38
927.253	4031.38
927.486	4011.38
927.72	3906.38
927.953	3954.38
928.186	3899.38
928.42	3948.38
928.653	3900.38
928.886	3852.38
929.119	3895.38
929.352	3831.38
929.585	3834.38
929.818	3789.38
930.051	3765.38
930.284	3790.38
930.516	3678.38
930.749	3647.38
930.982	3715.38
931.215	3700.38
931.447	3635.38
931.68	3617.38
931.912	3563.38
932.145	3620.38
932.377	3659.38
932.61	3737.38
932.842	3529.38
933.074	3616.38
933.307	3539.38
933.539	3667.38
933.771	3608.38
934.003	3601.38
934.236	3660.38
934.468	3650.38
934.7	3581.38
934.932	3589.38
935.164	3544.38
935.395	3493.38
935.627	3537.38
935.859	3540.38
936.091	3456.38
936.323	3508.38
936.554	3531.38
936.786	3472.38
937.017	3389.38
937.249	3471.38
937.481	3345.38
937.712	3462.38
937.943	3391.38
938.175	3403.38
938.406	3402.38
938.637	3439.38
938.869	3357.38
939.1	3391.38
939.331	3360.38
939.562	3381.38
939.793	3359.38
940.024	3389.38
940.255	3423.38
940.486	3293.38
940.717	3283.38
940.948	3264.38
941.179	3235.38
941.409	3242.38
941.64	3244.38
941.871	3246.38
942.102	3245.38
942.332	3266.38
942.563	3255.38
942.793	3281.38
943.024	3184.38
943.254	3286.38
943.484	3282.38
943.715	3256.38
943.945	3249.38
944.175	3177.38
944.405	3166.38
944.636	3197.38
944.866	3173.38
945.096	3240.38
945.326	3146.38
945.556	3213.38
945.786	3201.38
946.016	3135.38
946.245	3085.38
946.475	3067.38
946.705	3073.38
946.935	3123.38
947.164	3082.38
947.394	2980.38
947.624	3015.38
947.853	3062.38
948.083	3026.38
948.312	2989.38
948.542	2909.38
948.771	2931.38
949	2910.38
949.23	2958.38
949.459	2949.38
949.688	2977.38
949.917	2982.38
950.146	2934.38
950.375	3010.38
950.604	2880.38
950.833	2982.38
951.062	2983.38
951.291	2930.38
951.52	2900.38
951.749	2896.38
951.978	2861.38
952.206	2876.38
952.435	2840.38
952.664	2892.38
952.892	2876.38
953.121	2833.38
953.349	2870.38
953.578	2850.38
953.806	2797.38
954.035	2776.38
954.263	2771.38
954.491	2709.38
954.719	2780.38
954.948	2725.38
955.176	2738.38
955.404	2638.38
955.632	2717.38
955.86	2725.38
956.088	2715.38
956.316	2716.38
956.544	2746.38
956.772	2679.38
956.999	2609.38
957.227	2718.38
957.455	2607.38
957.683	2648.38
957.91	2580.38
958.138	2549.38
958.365	2551.38
958.593	2557.38
958.82	2511.38
959.048	2558.38
959.275	2572.38
959.502	2548.38
959.73	2529.38
959.957	2530.38
960.184	2591.38
960.411	2503.38
960.638	2545.38
960.865	2513.38
961.092	2535.38
961.319	2420.38
961.546	2521.38
961.773	2513.38
962	2477.38
962.227	2585.38
962.454	2477.38
962.68	2471.38
962.907	2480.38
963.134	2406.38
963.36	2447.38
963.587	2447.38
963.813	2387.38
964.04	2450.38
964.266	2351.38
964.493	2425.38
964.719	2414.38
964.945	2405.38
965.171	2285.38
965.398	2350.38
965.624	2394.38
965.85	2275.38
966.076	2274.38
966.302	2342.38
966.528	2302.38
966.754	2315.38
966.98	2302.38
967.206	2301.38
967.431	2201.38
967.657	2307.38
967.883	2287.38
968.109	2264.38
968.334	2212.38
968.56	2219.38
968.785	2255.38
969.011	2191.38
969.236	2271.38
969.462	2181.38
969.687	2215.38
969.912	2243.38
970.138	2262.38
970.363	2194.38
970.588	2200.38
970.813	2169.38
971.038	2138.38
971.263	2184.38
971.488	2193.38
971.713	2223.38
971.938	2188.38
972.163	2069.38
972.388	2074.38
972.613	2109.38
972.838	2087.38
973.062	2109.38
973.287	2090.38
973.512	2015.38
973.736	2067.38
973.961	2042.38
974.185	2007.38
974.41	2043.38
974.634	1961.38
974.858	1973.38
975.083	2022.38
975.307	2044.38
975.531	1959.38
975.755	1893.38
975.98	1938.38
976.204	1881.38
976.428	1876.38
976.652	1885.38
976.876	1865.38
977.1	1910.38
977.324	1857.38
977.547	1900.38
977.771	1906.38
977.995	1884.38
978.219	1826.38
978.442	1926.38
978.666	1857.38
978.89	1875.38
979.113	1836.38
979.337	1842.38
979.56	1813.38
979.783	1894.38
980.007	1805.38
980.23	1814.38
980.453	1788.38
980.677	1821.38
980.9	1810.38
981.123	1726.38
981.346	1833.38
981.569	1772.38
981.792	1818.38
982.015	1767.38
982.238	1724.38
982.461	1781.38
982.684	1742.38
982.907	1702.38
983.129	1709.38
983.352	1761.38
983.575	1754.38
983.797	1731.38
984.02	1682.38
984.242	1666.38
984.465	1689.38
984.687	1713.38
984.91	1732.38
985.132	1720.38
985.354	1717.38
985.577	1710.38
985.799	1684.38
986.021	1598.38
986.243	1653.38
986.465	1639.38
986.687	1685.38
986.909	1727.38
987.131	1667.38
987.353	1618.38
987.575	1659.38
987.797	1634.38
988.019	1571.38
988.241	1618.38
988.462	1607.38
988.684	1657.38
988.906	1669.38
989.127	1680.38
989.349	1548.38
989.57	1616.38
989.792	1623.38
990.013	1668.38
990.234	1650.38
990.456	1715.38
990.677	1654.38
990.898	1588.38
991.119	1584.38
991.341	1626.38
991.562	1559.38
991.783	1567.38
992.004	1524.38
992.225	1488.38
992.446	1603.38
992.667	1483.38
992.887	1590.38
993.108	1472.38
993.329	1609.38
993.55	1578.38
993.77	1478.38
993.991	1480.38
994.212	1507.38
994.432	1490.38
994.653	1498.38
994.873	1509.38
995.093	1386.38
995.314	1458.38
995.534	1508.38
995.754	1536.38
995.975	1560.38
996.195	1440.38
996.415	1509.38
996.635	1528.38
996.855	1783.38
997.075	1496.38
997.295	1496.38
997.515	1453.38
997.735	1540.38
997.955	1467.38
998.174	1467.38
998.394	1431.38
998.614	1492.38
998.834	1435.38
999.053	1508.38
999.273	1499.38
999.492	1505.38
999.712	1469.38
999.931	1447.38
1000.151	1475.38
1000.37	1438.38
1000.589	1505.38
1000.809	1404.38
1001.028	1535.38
1001.247	1453.38
1001.466	1355.38
1001.685	1482.38
1001.904	1429.38
1002.123	1432.38
1002.342	1444.38
1002.561	1378.38
1002.78	1418.38
1002.999	1483.38
1003.218	1413.38
1003.436	1380.38
1003.655	1415.38
1003.874	1383.38
1004.092	1388.38
1004.311	1443.38
1004.53	1384.38
1004.748	1476.38
1004.966	1384.38
1005.185	1454.38
1005.403	1445.38
1005.622	1442.38
1005.84	1503.38
1006.058	1378.38
1006.276	1415.38
1006.494	1800.38
1006.712	1413.38
1006.931	1495.38
1007.149	1402.38
1007.367	1428.38
1007.584	1489.38
1007.802	1500.38
1008.02	1458.38
1008.238	1541.38
1008.456	1556.38
1008.673	1425.38
1008.891	1540.38
1009.109	1539.38
1009.326	1620.38
1009.544	1703.38
1009.761	1630.38
1009.979	1726.38
1010.196	1779.38
1010.413	1976.38
1010.631	2021.38
1010.848	2070.38
1011.065	2074.38
1011.282	2005.38
1011.5	1964.38
1011.717	2064.38
1011.934	1987.38
1012.151	1987.38
1012.368	1987.38
1012.585	1971.38
1012.801	1977.38
1013.018	1971.38
1013.235	1986.38
1013.452	1976.38
1013.669	1966.38
1013.885	2013.38
1014.102	2044.38
1014.318	2002.38
1014.535	1978.38
1014.751	1982.38
1014.968	1999.38
1015.184	2011.38
1015.401	1882.38
1015.617	1927.38
1015.833	1865.38
1016.049	1854.38
1016.266	1817.38
1016.482	1816.38
1016.698	1729.38
1016.914	1785.38
1017.13	1724.38
1017.346	1718.38
1017.562	1762.38
1017.778	1685.38
1017.993	1628.38
1018.209	1723.38
1018.425	1687.38
1018.641	1624.38
1018.856	1632.38
1019.072	1639.38
1019.288	1690.38
1019.503	1649.38
1019.719	1560.38
1019.934	1590.38
1020.149	1636.38
1020.365	1551.38
1020.58	1490.38
1020.795	1544.38
1021.011	1444.38
1021.226	1418.38
1021.441	1426.38
1021.656	1342.38
1021.871	1287.38
1022.086	1277.38
1022.301	1272.38
1022.516	1246.38
1022.731	1333.38
1022.946	1213.38
1023.16	1155.38
1023.375	1128.38
1023.59	1103.38
1023.804	1092.38
1024.019	1152.38
1024.234	1053.38
1024.448	1046.38
1024.663	993.38
1024.877	1023.38
1025.092	1007.38
1025.306	1032.38
1025.52	932.38
1025.734	1007.38
1025.949	918.38
1026.163	893.38
1026.377	839.38
1026.591	888.38
1026.805	814.38
1027.019	797.38
1027.233	785.38
1027.447	726.38
1027.661	808.38
1027.875	744.38
1028.088	786.38
1028.302	677.38
1028.516	660.38
1028.73	683.38
1028.943	664.38
1029.157	614.38
1029.37	583.38
1029.584	2.38
1029.797	-3.62
1030.011	0.38
1030.224	-0.62
