Data from QEP037381__196__14-21-55-351.txt Node

Date: Fri Apr 28 14:21:55 EDT 2023
User: dcclab
Spectrometer: QEP03738
Trigger mode: 4
Integration Time (sec): 1.000000E1
Scans to average: 1
Electric dark correction enabled: true
Nonlinearity correction enabled: false
Boxcar width: 0
XAxis mode: Wavelengths
Number of Pixels in Spectrum: 1044
>>>>>Begin Spectral Data<<<<<
784.041	11.25
784.3	1.25
784.558	-3.75
784.817	-3.75
785.075	70231.25
785.334	14062.25
785.592	7336.25
785.851	5160.25
786.109	3930.25
786.368	3076.25
786.626	2469.25
786.884	2072.25
787.143	1732.25
787.401	1437.25
787.659	1319.25
787.917	1140.25
788.175	1008.25
788.433	921.25
788.691	815.25
788.949	746.25
789.207	745.25
789.465	629.25
789.723	606.25
789.98	558.25
790.238	604.25
790.496	556.25
790.753	544.25
791.011	585.25
791.268	511.25
791.526	517.25
791.783	526.25
792.041	524.25
792.298	419.25
792.556	484.25
792.813	465.25
793.07	440.25
793.327	443.25
793.584	524.25
793.841	444.25
794.099	456.25
794.356	506.25
794.613	424.25
794.869	459.25
795.126	415.25
795.383	403.25
795.64	424.25
795.897	386.25
796.153	434.25
796.41	419.25
796.667	400.25
796.923	406.25
797.18	413.25
797.436	438.25
797.693	400.25
797.949	455.25
798.206	481.25
798.462	401.25
798.718	457.25
798.974	430.25
799.231	479.25
799.487	470.25
799.743	483.25
799.999	487.25
800.255	488.25
800.511	480.25
800.767	517.25
801.023	503.25
801.279	542.25
801.534	582.25
801.79	620.25
802.046	666.25
802.302	828.25
802.557	912.25
802.813	1169.25
803.068	1472.25
803.324	2085.25
803.579	2919.25
803.835	4012.25
804.09	5490.25
804.345	7112.25
804.601	8804.25
804.856	10393.25
805.111	11561.25
805.366	12262.25
805.621	12835.25
805.876	13214.25
806.131	13481.25
806.386	13691.25
806.641	13795.25
806.896	14047.25
807.151	14289.25
807.406	14408.25
807.661	14640.25
807.915	14970.25
808.17	15217.25
808.425	15324.25
808.679	15433.25
808.934	15628.25
809.188	15814.25
809.443	16017.25
809.697	16137.25
809.951	16248.25
810.206	16255.25
810.46	16586.25
810.714	16640.25
810.968	16765.25
811.223	16864.25
811.477	17066.25
811.731	17180.25
811.985	17145.25
812.239	17290.25
812.493	17427.25
812.747	17461.25
813	17556.25
813.254	17635.25
813.508	17614.25
813.762	17657.25
814.015	17771.25
814.269	17934.25
814.522	18086.25
814.776	18173.25
815.03	18377.25
815.283	18582.25
815.536	18906.25
815.79	19183.25
816.043	19306.25
816.296	19573.25
816.55	19916.25
816.803	20112.25
817.056	20319.25
817.309	20473.25
817.562	20665.25
817.815	20903.25
818.068	21124.25
818.321	21412.25
818.574	21659.25
818.827	21964.25
819.079	22182.25
819.332	22510.25
819.585	22896.25
819.838	23197.25
820.09	23290.25
820.343	23470.25
820.595	23563.25
820.848	23705.25
821.1	23862.25
821.353	23789.25
821.605	23758.25
821.857	23755.25
822.11	23595.25
822.362	23563.25
822.614	23480.25
822.866	23578.25
823.118	23592.25
823.37	23657.25
823.622	23663.25
823.874	23705.25
824.126	23872.25
824.378	23872.25
824.63	23989.25
824.882	23939.25
825.134	23970.25
825.385	23919.25
825.637	23837.25
825.888	23694.25
826.14	23728.25
826.392	23610.25
826.643	23456.25
826.895	23399.25
827.146	23202.25
827.397	23338.25
827.649	23228.25
827.9	23091.25
828.151	23214.25
828.402	23245.25
828.653	23375.25
828.905	23346.25
829.156	23504.25
829.407	23372.25
829.658	23355.25
829.909	23370.25
830.159	23352.25
830.41	23138.25
830.661	22967.25
830.912	22847.25
831.162	22840.25
831.413	22782.25
831.664	22817.25
831.914	22721.25
832.165	22714.25
832.415	22757.25
832.666	22789.25
832.916	22737.25
833.167	22681.25
833.417	22649.25
833.667	22548.25
833.917	22405.25
834.168	22433.25
834.418	22376.25
834.668	22267.25
834.918	22229.25
835.168	22081.25
835.418	21926.25
835.668	21950.25
835.918	22013.25
836.167	21893.25
836.417	21808.25
836.667	21672.25
836.917	21720.25
837.166	21648.25
837.416	21694.25
837.666	21560.25
837.915	21577.25
838.165	21594.25
838.414	21322.25
838.663	21354.25
838.913	21360.25
839.162	21321.25
839.411	21282.25
839.661	21179.25
839.91	21179.25
840.159	21118.25
840.408	21145.25
840.657	21046.25
840.906	21106.25
841.155	21152.25
841.404	20959.25
841.653	21030.25
841.902	21018.25
842.15	21115.25
842.399	20997.25
842.648	20957.25
842.897	20923.25
843.145	20730.25
843.394	20718.25
843.642	20635.25
843.891	20560.25
844.139	20307.25
844.388	20249.25
844.636	20080.25
844.884	20107.25
845.133	20096.25
845.381	19990.25
845.629	20058.25
845.877	19915.25
846.125	19916.25
846.373	19963.25
846.621	19762.25
846.869	19859.25
847.117	19730.25
847.365	19621.25
847.613	19494.25
847.861	19422.25
848.108	19488.25
848.356	19336.25
848.604	19260.25
848.851	19332.25
849.099	19404.25
849.346	19448.25
849.594	19506.25
849.841	19493.25
850.089	19551.25
850.336	19499.25
850.583	19529.25
850.831	19539.25
851.078	19344.25
851.325	19268.25
851.572	19230.25
851.819	19097.25
852.066	18672.25
852.313	18421.25
852.56	18272.25
852.807	18239.25
853.054	18158.25
853.301	18204.25
853.548	18186.25
853.794	18341.25
854.041	18404.25
854.288	18589.25
854.534	18647.25
854.781	18608.25
855.028	18479.25
855.274	18541.25
855.52	18334.25
855.767	18274.25
856.013	18300.25
856.26	18451.25
856.506	17963.25
856.752	18020.25
856.998	18094.25
857.244	18029.25
857.49	18102.25
857.736	18055.25
857.982	18123.25
858.228	18009.25
858.474	17760.25
858.72	17804.25
858.966	17671.25
859.212	17458.25
859.458	17238.25
859.703	17187.25
859.949	16920.25
860.195	16749.25
860.44	16687.25
860.686	16667.25
860.931	16601.25
861.177	16483.25
861.422	16416.25
861.667	16393.25
861.913	16401.25
862.158	16447.25
862.403	16555.25
862.648	16482.25
862.893	16550.25
863.138	16512.25
863.384	16424.25
863.629	16477.25
863.873	16468.25
864.118	16242.25
864.363	16172.25
864.608	16137.25
864.853	16002.25
865.098	15887.25
865.342	15882.25
865.587	15794.25
865.832	15776.25
866.076	15748.25
866.321	15624.25
866.565	15660.25
866.81	15463.25
867.054	15524.25
867.298	15476.25
867.543	15347.25
867.787	15515.25
868.031	15377.25
868.275	15445.25
868.519	15270.25
868.764	15348.25
869.008	15255.25
869.252	15350.25
869.496	15255.25
869.739	15204.25
869.983	15282.25
870.227	15174.25
870.471	15217.25
870.715	15345.25
870.958	15245.25
871.202	15212.25
871.446	15219.25
871.689	15347.25
871.933	15330.25
872.176	15305.25
872.42	15144.25
872.663	15143.25
872.906	15092.25
873.15	15057.25
873.393	15047.25
873.636	14969.25
873.879	14876.25
874.122	14698.25
874.366	14433.25
874.609	14380.25
874.852	14200.25
875.095	14204.25
875.337	13991.25
875.58	13981.25
875.823	13987.25
876.066	13983.25
876.309	13950.25
876.551	13766.25
876.794	13751.25
877.037	13748.25
877.279	13654.25
877.522	13658.25
877.764	13685.25
878.007	13583.25
878.249	13674.25
878.491	13597.25
878.734	13618.25
878.976	13582.25
879.218	13429.25
879.46	13480.25
879.702	13285.25
879.945	13201.25
880.187	12987.25
880.429	12993.25
880.671	12902.25
880.912	12858.25
881.154	12744.25
881.396	12647.25
881.638	12826.25
881.88	12774.25
882.121	12685.25
882.363	12601.25
882.605	12781.25
882.846	12658.25
883.088	12622.25
883.329	12654.25
883.571	12583.25
883.812	12804.25
884.053	13082.25
884.295	13168.25
884.536	13356.25
884.777	13204.25
885.018	13167.25
885.259	13073.25
885.5	12927.25
885.742	13162.25
885.982	12885.25
886.223	12753.25
886.464	12675.25
886.705	12480.25
886.946	12440.25
887.187	12220.25
887.428	12142.25
887.668	11921.25
887.909	11820.25
888.15	11674.25
888.39	11531.25
888.631	11570.25
888.871	11464.25
889.111	11349.25
889.352	11216.25
889.592	11058.25
889.833	11067.25
890.073	10983.25
890.313	10991.25
890.553	10859.25
890.793	10751.25
891.033	10683.25
891.273	10722.25
891.513	10629.25
891.753	10700.25
891.993	10630.25
892.233	10700.25
892.473	10661.25
892.713	10665.25
892.952	10646.25
893.192	10618.25
893.432	10564.25
893.671	10628.25
893.911	10544.25
894.15	10470.25
894.39	10322.25
894.629	10266.25
894.869	10207.25
895.108	10173.25
895.347	10038.25
895.587	10056.25
895.826	9966.25
896.065	10066.25
896.304	10033.25
896.543	10022.25
896.782	9873.25
897.021	9886.25
897.26	9859.25
897.499	9961.25
897.738	9878.25
897.977	9744.25
898.216	9629.25
898.454	9606.25
898.693	9549.25
898.932	9525.25
899.17	9459.25
899.409	9466.25
899.647	9444.25
899.886	9330.25
900.124	9442.25
900.363	9394.25
900.601	9349.25
900.839	9451.25
901.078	9467.25
901.316	9488.25
901.554	9478.25
901.792	9594.25
902.03	9489.25
902.268	9518.25
902.506	9550.25
902.744	9418.25
902.982	9317.25
903.22	9180.25
903.458	9108.25
903.695	8992.25
903.933	8847.25
904.171	8762.25
904.409	8568.25
904.646	8603.25
904.884	8353.25
905.121	8343.25
905.359	8217.25
905.596	8238.25
905.833	8114.25
906.071	8116.25
906.308	8141.25
906.545	8058.25
906.783	8047.25
907.02	7992.25
907.257	7993.25
907.494	7997.25
907.731	7959.25
907.968	7931.25
908.205	7880.25
908.442	7844.25
908.679	7792.25
908.915	7712.25
909.152	7663.25
909.389	7496.25
909.626	7511.25
909.862	7460.25
910.099	7438.25
910.335	7448.25
910.572	7303.25
910.808	7402.25
911.045	7300.25
911.281	7301.25
911.518	7270.25
911.754	7226.25
911.99	7172.25
912.226	7139.25
912.463	7070.25
912.699	7036.25
912.935	7042.25
913.171	6980.25
913.407	6804.25
913.643	6829.25
913.879	6763.25
914.114	6692.25
914.35	6627.25
914.586	6529.25
914.822	6503.25
915.057	6569.25
915.293	6407.25
915.529	6368.25
915.764	6442.25
916	6390.25
916.235	6390.25
916.471	6358.25
916.706	6302.25
916.941	6286.25
917.177	6321.25
917.412	6348.25
917.647	6304.25
917.882	6214.25
918.117	6311.25
918.352	6255.25
918.588	6315.25
918.823	6162.25
919.057	6103.25
919.292	5934.25
919.527	5996.25
919.762	5911.25
919.997	5875.25
920.232	5750.25
920.466	5741.25
920.701	5619.25
920.935	5670.25
921.17	5674.25
921.405	5557.25
921.639	5598.25
921.873	5533.25
922.108	5520.25
922.342	5543.25
922.576	5470.25
922.811	5488.25
923.045	5448.25
923.279	5530.25
923.513	5382.25
923.747	5379.25
923.981	5431.25
924.215	5335.25
924.449	5237.25
924.683	5228.25
924.917	5217.25
925.151	5150.25
925.385	5208.25
925.618	5169.25
925.852	5172.25
926.086	5086.25
926.319	5111.25
926.553	5110.25
926.786	5128.25
927.02	5130.25
927.253	5090.25
927.486	5069.25
927.72	5055.25
927.953	5082.25
928.186	4995.25
928.42	5039.25
928.653	4949.25
928.886	4922.25
929.119	4976.25
929.352	4944.25
929.585	4898.25
929.818	4796.25
930.051	4869.25
930.284	4754.25
930.516	4709.25
930.749	4611.25
930.982	4718.25
931.215	4645.25
931.447	4568.25
931.68	4638.25
931.912	4569.25
932.145	4589.25
932.377	4646.25
932.61	4650.25
932.842	4501.25
933.074	4632.25
933.307	4513.25
933.539	4600.25
933.771	4608.25
934.003	4526.25
934.236	4688.25
934.468	4648.25
934.7	4510.25
934.932	4576.25
935.164	4492.25
935.395	4456.25
935.627	4472.25
935.859	4501.25
936.091	4394.25
936.323	4482.25
936.554	4475.25
936.786	4380.25
937.017	4328.25
937.249	4328.25
937.481	4267.25
937.712	4388.25
937.943	4322.25
938.175	4312.25
938.406	4298.25
938.637	4367.25
938.869	4274.25
939.1	4271.25
939.331	4259.25
939.562	4271.25
939.793	4231.25
940.024	4273.25
940.255	4241.25
940.486	4218.25
940.717	4158.25
940.948	4191.25
941.179	4102.25
941.409	4114.25
941.64	4096.25
941.871	4117.25
942.102	4066.25
942.332	4088.25
942.563	4127.25
942.793	4145.25
943.024	4076.25
943.254	4100.25
943.484	4117.25
943.715	4149.25
943.945	4096.25
944.175	3981.25
944.405	3993.25
944.636	4019.25
944.866	4037.25
945.096	4097.25
945.326	3977.25
945.556	3971.25
945.786	4053.25
946.016	3952.25
946.245	3908.25
946.475	3928.25
946.705	3882.25
946.935	3864.25
947.164	3880.25
947.394	3790.25
947.624	3809.25
947.853	3855.25
948.083	3799.25
948.312	3782.25
948.542	3712.25
948.771	3671.25
949	3704.25
949.23	3678.25
949.459	3716.25
949.688	3810.25
949.917	3702.25
950.146	3771.25
950.375	3758.25
950.604	3704.25
950.833	3735.25
951.062	3715.25
951.291	3688.25
951.52	3636.25
951.749	3667.25
951.978	3603.25
952.206	3577.25
952.435	3603.25
952.664	3629.25
952.892	3625.25
953.121	3583.25
953.349	3637.25
953.578	3567.25
953.806	3557.25
954.035	3495.25
954.263	3504.25
954.491	3430.25
954.719	3498.25
954.948	3430.25
955.176	3396.25
955.404	3367.25
955.632	3390.25
955.86	3408.25
956.088	3359.25
956.316	3460.25
956.544	3404.25
956.772	3339.25
956.999	3307.25
957.227	3390.25
957.455	3266.25
957.683	3294.25
957.91	3235.25
958.138	3217.25
958.365	3223.25
958.593	3211.25
958.82	3155.25
959.048	3248.25
959.275	3198.25
959.502	3179.25
959.73	3143.25
959.957	3184.25
960.184	3185.25
960.411	3084.25
960.638	3191.25
960.865	3110.25
961.092	3153.25
961.319	3049.25
961.546	3201.25
961.773	3175.25
962	3126.25
962.227	3189.25
962.454	3118.25
962.68	3109.25
962.907	3072.25
963.134	3039.25
963.36	3071.25
963.587	3080.25
963.813	2952.25
964.04	3048.25
964.266	2952.25
964.493	3030.25
964.719	2974.25
964.945	2926.25
965.171	2867.25
965.398	2915.25
965.624	2935.25
965.85	2857.25
966.076	2847.25
966.302	2868.25
966.528	2825.25
966.754	2851.25
966.98	2869.25
967.206	2844.25
967.431	2765.25
967.657	2827.25
967.883	2844.25
968.109	2830.25
968.334	2767.25
968.56	2770.25
968.785	2752.25
969.011	2714.25
969.236	2769.25
969.462	2722.25
969.687	2719.25
969.912	2782.25
970.138	2785.25
970.363	2676.25
970.588	2732.25
970.813	2654.25
971.038	2635.25
971.263	2683.25
971.488	2658.25
971.713	2701.25
971.938	2709.25
972.163	2593.25
972.388	2601.25
972.613	2571.25
972.838	2633.25
973.062	2562.25
973.287	2586.25
973.512	2473.25
973.736	2528.25
973.961	2558.25
974.185	2478.25
974.41	2530.25
974.634	2418.25
974.858	2423.25
975.083	2471.25
975.307	2459.25
975.531	2432.25
975.755	2367.25
975.98	2402.25
976.204	2323.25
976.428	2351.25
976.652	2320.25
976.876	2294.25
977.1	2357.25
977.324	2261.25
977.547	2364.25
977.771	2340.25
977.995	2326.25
978.219	2268.25
978.442	2369.25
978.666	2315.25
978.89	2268.25
979.113	2295.25
979.337	2255.25
979.56	2240.25
979.783	2332.25
980.007	2229.25
980.23	2239.25
980.453	2204.25
980.677	2227.25
980.9	2209.25
981.123	2124.25
981.346	2200.25
981.569	2161.25
981.792	2220.25
982.015	2165.25
982.238	2121.25
982.461	2126.25
982.684	2113.25
982.907	2056.25
983.129	2076.25
983.352	2110.25
983.575	2104.25
983.797	2103.25
984.02	2065.25
984.242	2034.25
984.465	2015.25
984.687	2095.25
984.91	2100.25
985.132	2067.25
985.354	2066.25
985.577	2015.25
985.799	2012.25
986.021	1963.25
986.243	1977.25
986.465	1956.25
986.687	2042.25
986.909	2055.25
987.131	1999.25
987.353	1932.25
987.575	1988.25
987.797	1959.25
988.019	1908.25
988.241	1957.25
988.462	1931.25
988.684	1969.25
988.906	1996.25
989.127	2017.25
989.349	1884.25
989.57	1956.25
989.792	1949.25
990.013	1945.25
990.234	1951.25
990.456	1987.25
990.677	1982.25
990.898	1880.25
991.119	1901.25
991.341	1946.25
991.562	1851.25
991.783	1890.25
992.004	1821.25
992.225	1794.25
992.446	1891.25
992.667	1772.25
992.887	1856.25
993.108	1723.25
993.329	1865.25
993.55	1797.25
993.77	1743.25
993.991	1751.25
994.212	1787.25
994.432	1771.25
994.653	1771.25
994.873	1765.25
995.093	1650.25
995.314	1704.25
995.534	1769.25
995.754	1781.25
995.975	1815.25
996.195	1696.25
996.415	1782.25
996.635	1734.25
996.855	1746.25
997.075	1726.25
997.295	1720.25
997.515	1671.25
997.735	1751.25
997.955	1699.25
998.174	1699.25
998.394	1674.25
998.614	1721.25
998.834	1656.25
999.053	1756.25
999.273	1680.25
999.492	1738.25
999.712	1685.25
999.931	1642.25
1000.151	1693.25
1000.37	1657.25
1000.589	1691.25
1000.809	1641.25
1001.028	1758.25
1001.247	1673.25
1001.466	1562.25
1001.685	1695.25
1001.904	1648.25
1002.123	1631.25
1002.342	1624.25
1002.561	1615.25
1002.78	1619.25
1002.999	1661.25
1003.218	1599.25
1003.436	1575.25
1003.655	1622.25
1003.874	1591.25
1004.092	1578.25
1004.311	1633.25
1004.53	1570.25
1004.748	1651.25
1004.966	1591.25
1005.185	1641.25
1005.403	1633.25
1005.622	1587.25
1005.84	1679.25
1006.058	1564.25
1006.276	1598.25
1006.494	1968.25
1006.712	1590.25
1006.931	1630.25
1007.149	1561.25
1007.367	1582.25
1007.584	1599.25
1007.802	1623.25
1008.02	1616.25
1008.238	1708.25
1008.456	1682.25
1008.673	1585.25
1008.891	1675.25
1009.109	1623.25
1009.326	1691.25
1009.544	1783.25
1009.761	1674.25
1009.979	1817.25
1010.196	1799.25
1010.413	1929.25
1010.631	1975.25
1010.848	2030.25
1011.065	2000.25
1011.282	1962.25
1011.5	1883.25
1011.717	1981.25
1011.934	1928.25
1012.151	1942.25
1012.368	1963.25
1012.585	1887.25
1012.801	1925.25
1013.018	1917.25
1013.235	1889.25
1013.452	1921.25
1013.669	1928.25
1013.885	1934.25
1014.102	1951.25
1014.318	1962.25
1014.535	1882.25
1014.751	1901.25
1014.968	1888.25
1015.184	1941.25
1015.401	1827.25
1015.617	1836.25
1015.833	1791.25
1016.049	1798.25
1016.266	1756.25
1016.482	1784.25
1016.698	1680.25
1016.914	1740.25
1017.13	1674.25
1017.346	1683.25
1017.562	1727.25
1017.778	1658.25
1017.993	1655.25
1018.209	1680.25
1018.425	1649.25
1018.641	1634.25
1018.856	1605.25
1019.072	1659.25
1019.288	1659.25
1019.503	1614.25
1019.719	1531.25
1019.934	1535.25
1020.149	1632.25
1020.365	1582.25
1020.58	1516.25
1020.795	1533.25
1021.011	1451.25
1021.226	1454.25
1021.441	1460.25
1021.656	1378.25
1021.871	1307.25
1022.086	1291.25
1022.301	1298.25
1022.516	1287.25
1022.731	1363.25
1022.946	1240.25
1023.16	1215.25
1023.375	1182.25
1023.59	1159.25
1023.804	1129.25
1024.019	1202.25
1024.234	1101.25
1024.448	1105.25
1024.663	1066.25
1024.877	1061.25
1025.092	1095.25
1025.306	1085.25
1025.52	985.25
1025.734	1063.25
1025.949	999.25
1026.163	942.25
1026.377	899.25
1026.591	949.25
1026.805	875.25
1027.019	872.25
1027.233	846.25
1027.447	791.25
1027.661	864.25
1027.875	815.25
1028.088	842.25
1028.302	759.25
1028.516	740.25
1028.73	748.25
1028.943	735.25
1029.157	675.25
1029.37	640.25
1029.584	-3.75
1029.797	-0.75
1030.011	-0.75
1030.224	0.25
