Data from QEP037381__295__11-09-46-590.txt Node

Date: Wed Dec 21 11:09:46 EST 2022
User: dcclab
Spectrometer: QEP03738
Trigger mode: 4
Integration Time (sec): 1.000000E1
Scans to average: 1
Electric dark correction enabled: true
Nonlinearity correction enabled: false
Boxcar width: 0
XAxis mode: Wavelengths
Number of Pixels in Spectrum: 1044
>>>>>Begin Spectral Data<<<<<
784.041	11.25
784.3	-1.75
784.558	-0.75
784.817	-5.75
785.075	93473.25
785.334	16476.25
785.592	7757.25
785.851	5370.25
786.109	4020.25
786.368	3167.25
786.626	2528.25
786.884	2119.25
787.143	1784.25
787.401	1463.25
787.659	1314.25
787.917	1137.25
788.175	1045.25
788.433	919.25
788.691	806.25
788.949	750.25
789.207	696.25
789.465	638.25
789.723	613.25
789.98	559.25
790.238	565.25
790.496	542.25
790.753	525.25
791.011	576.25
791.268	498.25
791.526	486.25
791.783	507.25
792.041	498.25
792.298	393.25
792.556	463.25
792.813	446.25
793.07	411.25
793.327	424.25
793.584	491.25
793.841	416.25
794.099	420.25
794.356	492.25
794.613	383.25
794.869	425.25
795.126	395.25
795.383	358.25
795.64	394.25
795.897	346.25
796.153	396.25
796.41	387.25
796.667	372.25
796.923	379.25
797.18	393.25
797.436	396.25
797.693	360.25
797.949	403.25
798.206	432.25
798.462	341.25
798.718	401.25
798.974	387.25
799.231	415.25
799.487	383.25
799.743	393.25
799.999	425.25
800.255	407.25
800.511	378.25
800.767	411.25
801.023	393.25
801.279	395.25
801.534	418.25
801.79	423.25
802.046	400.25
802.302	479.25
802.557	473.25
802.813	526.25
803.068	524.25
803.324	653.25
803.579	746.25
803.835	934.25
804.09	1234.25
804.345	1523.25
804.601	1846.25
804.856	2227.25
805.111	2544.25
805.366	2756.25
805.621	2921.25
805.876	2999.25
806.131	3037.25
806.386	3058.25
806.641	3077.25
806.896	3153.25
807.151	3276.25
807.406	3286.25
807.661	3334.25
807.915	3386.25
808.17	3489.25
808.425	3487.25
808.679	3431.25
808.934	3598.25
809.188	3573.25
809.443	3676.25
809.697	3730.25
809.951	3706.25
810.206	3775.25
810.46	3824.25
810.714	3836.25
810.968	3906.25
811.223	3846.25
811.477	3969.25
811.731	3938.25
811.985	3877.25
812.239	3884.25
812.493	3934.25
812.747	4014.25
813	3969.25
813.254	4049.25
813.508	4132.25
813.762	4109.25
814.015	4057.25
814.269	4133.25
814.522	4159.25
814.776	4291.25
815.03	4284.25
815.283	4337.25
815.536	4395.25
815.79	4461.25
816.043	4537.25
816.296	4577.25
816.55	4617.25
816.803	4656.25
817.056	4823.25
817.309	4818.25
817.562	4882.25
817.815	4905.25
818.068	4861.25
818.321	4953.25
818.574	5071.25
818.827	5150.25
819.079	5179.25
819.332	5359.25
819.585	5429.25
819.838	5509.25
820.09	5440.25
820.343	5528.25
820.595	5516.25
820.848	5612.25
821.1	5605.25
821.353	5605.25
821.605	5599.25
821.857	5651.25
822.11	5519.25
822.362	5549.25
822.614	5577.25
822.866	5585.25
823.118	5551.25
823.37	5661.25
823.622	5686.25
823.874	5668.25
824.126	5732.25
824.378	5703.25
824.63	5739.25
824.882	5779.25
825.134	5697.25
825.385	5769.25
825.637	5696.25
825.888	5624.25
826.14	5663.25
826.392	5617.25
826.643	5506.25
826.895	5583.25
827.146	5543.25
827.397	5514.25
827.649	5573.25
827.9	5510.25
828.151	5486.25
828.402	5509.25
828.653	5541.25
828.905	5544.25
829.156	5631.25
829.407	5555.25
829.658	5618.25
829.909	5633.25
830.159	5641.25
830.41	5598.25
830.661	5590.25
830.912	5590.25
831.162	5564.25
831.413	5542.25
831.664	5587.25
831.914	5565.25
832.165	5560.25
832.415	5583.25
832.666	5553.25
832.916	5567.25
833.167	5544.25
833.417	5593.25
833.667	5519.25
833.917	5483.25
834.168	5571.25
834.418	5585.25
834.668	5523.25
834.918	5506.25
835.168	5482.25
835.418	5406.25
835.668	5466.25
835.918	5411.25
836.167	5474.25
836.417	5376.25
836.667	5450.25
836.917	5480.25
837.166	5415.25
837.416	5485.25
837.666	5431.25
837.915	5383.25
838.165	5377.25
838.414	5302.25
838.663	5361.25
838.913	5373.25
839.162	5296.25
839.411	5437.25
839.661	5330.25
839.91	5392.25
840.159	5383.25
840.408	5424.25
840.657	5401.25
840.906	5391.25
841.155	5415.25
841.404	5383.25
841.653	5402.25
841.902	5352.25
842.15	5433.25
842.399	5420.25
842.648	5426.25
842.897	5381.25
843.145	5325.25
843.394	5304.25
843.642	5270.25
843.891	5271.25
844.139	5259.25
844.388	5130.25
844.636	5123.25
844.884	5193.25
845.133	5160.25
845.381	5139.25
845.629	5213.25
845.877	5118.25
846.125	5222.25
846.373	5175.25
846.621	5095.25
846.869	5171.25
847.117	5113.25
847.365	5067.25
847.613	5120.25
847.861	5070.25
848.108	5160.25
848.356	5091.25
848.604	5082.25
848.851	5156.25
849.099	5094.25
849.346	5116.25
849.594	5221.25
849.841	5249.25
850.089	5283.25
850.336	5231.25
850.583	5279.25
850.831	5371.25
851.078	5341.25
851.325	5354.25
851.572	5424.25
851.819	5301.25
852.066	5123.25
852.313	4932.25
852.56	4930.25
852.807	4865.25
853.054	4866.25
853.301	4883.25
853.548	4950.25
853.794	5027.25
854.041	5036.25
854.288	4991.25
854.534	5145.25
854.781	5050.25
855.028	5046.25
855.274	5105.25
855.52	5021.25
855.767	4985.25
856.013	5086.25
856.26	5267.25
856.506	4989.25
856.752	4959.25
856.998	4939.25
857.244	4956.25
857.49	5018.25
857.736	5017.25
857.982	5032.25
858.228	4961.25
858.474	4979.25
858.72	4921.25
858.966	4898.25
859.212	4840.25
859.458	4776.25
859.703	4749.25
859.949	4663.25
860.195	4689.25
860.44	4625.25
860.686	4586.25
860.931	4702.25
861.177	4594.25
861.422	4578.25
861.667	4524.25
861.913	4560.25
862.158	4559.25
862.403	4620.25
862.648	4578.25
862.893	4633.25
863.138	4627.25
863.384	4610.25
863.629	4623.25
863.873	4595.25
864.118	4593.25
864.363	4520.25
864.608	4605.25
864.853	4609.25
865.098	4515.25
865.342	4560.25
865.587	4506.25
865.832	4488.25
866.076	4501.25
866.321	4463.25
866.565	4441.25
866.81	4402.25
867.054	4451.25
867.298	4450.25
867.543	4392.25
867.787	4479.25
868.031	4476.25
868.275	4443.25
868.519	4457.25
868.764	4417.25
869.008	4411.25
869.252	4482.25
869.496	4426.25
869.739	4414.25
869.983	4523.25
870.227	4482.25
870.471	4488.25
870.715	4534.25
870.958	4562.25
871.202	4510.25
871.446	4492.25
871.689	4480.25
871.933	4514.25
872.176	4540.25
872.42	4491.25
872.663	4520.25
872.906	4498.25
873.15	4471.25
873.393	4445.25
873.636	4513.25
873.879	4462.25
874.122	4506.25
874.366	4335.25
874.609	4359.25
874.852	4316.25
875.095	4277.25
875.337	4237.25
875.58	4191.25
875.823	4263.25
876.066	4272.25
876.309	4228.25
876.551	4135.25
876.794	4120.25
877.037	4188.25
877.279	4069.25
877.522	4133.25
877.764	4156.25
878.007	4113.25
878.249	4153.25
878.491	4086.25
878.734	4116.25
878.976	4105.25
879.218	4014.25
879.46	4080.25
879.702	4036.25
879.945	3986.25
880.187	3959.25
880.429	3960.25
880.671	3909.25
880.912	3949.25
881.154	3900.25
881.396	3835.25
881.638	3886.25
881.88	3927.25
882.121	3855.25
882.363	3878.25
882.605	3944.25
882.846	3915.25
883.088	3927.25
883.329	3901.25
883.571	3893.25
883.812	3939.25
884.053	4102.25
884.295	4231.25
884.536	4334.25
884.777	4335.25
885.018	4336.25
885.259	4296.25
885.5	4178.25
885.742	4459.25
885.982	4173.25
886.223	4111.25
886.464	4064.25
886.705	4013.25
886.946	3983.25
887.187	3847.25
887.428	3885.25
887.668	3679.25
887.909	3648.25
888.15	3634.25
888.39	3614.25
888.631	3695.25
888.871	3643.25
889.111	3567.25
889.352	3544.25
889.592	3500.25
889.833	3477.25
890.073	3475.25
890.313	3520.25
890.553	3399.25
890.793	3420.25
891.033	3412.25
891.273	3372.25
891.513	3414.25
891.753	3426.25
891.993	3377.25
892.233	3401.25
892.473	3481.25
892.713	3478.25
892.952	3428.25
893.192	3452.25
893.432	3419.25
893.671	3489.25
893.911	3455.25
894.15	3403.25
894.39	3336.25
894.629	3362.25
894.869	3441.25
895.108	3339.25
895.347	3344.25
895.587	3364.25
895.826	3312.25
896.065	3287.25
896.304	3358.25
896.543	3345.25
896.782	3255.25
897.021	3383.25
897.26	3316.25
897.499	3360.25
897.738	3425.25
897.977	3365.25
898.216	3314.25
898.454	3298.25
898.693	3262.25
898.932	3296.25
899.17	3249.25
899.409	3264.25
899.647	3273.25
899.886	3235.25
900.124	3290.25
900.363	3239.25
900.601	3275.25
900.839	3280.25
901.078	3332.25
901.316	3332.25
901.554	3355.25
901.792	3484.25
902.03	3425.25
902.268	3450.25
902.506	3444.25
902.744	3410.25
902.982	3358.25
903.22	3259.25
903.458	3251.25
903.695	3194.25
903.933	3156.25
904.171	3005.25
904.409	3031.25
904.646	3001.25
904.884	2900.25
905.121	2932.25
905.359	2923.25
905.596	2841.25
905.833	2796.25
906.071	2756.25
906.308	2834.25
906.545	2830.25
906.783	2732.25
907.02	2748.25
907.257	2708.25
907.494	2739.25
907.731	2762.25
907.968	2752.25
908.205	2694.25
908.442	2675.25
908.679	2685.25
908.915	2665.25
909.152	2639.25
909.389	2584.25
909.626	2603.25
909.862	2522.25
910.099	2574.25
910.335	2611.25
910.572	2484.25
910.808	2550.25
911.045	2545.25
911.281	2497.25
911.518	2570.25
911.754	2482.25
911.99	2509.25
912.226	2477.25
912.463	2464.25
912.699	2442.25
912.935	2448.25
913.171	2421.25
913.407	2338.25
913.643	2449.25
913.879	2411.25
914.114	2374.25
914.35	2341.25
914.586	2324.25
914.822	2285.25
915.057	2393.25
915.293	2229.25
915.529	2251.25
915.764	2315.25
916	2282.25
916.235	2283.25
916.471	2294.25
916.706	2236.25
916.941	2241.25
917.177	2258.25
917.412	2299.25
917.647	2313.25
917.882	2256.25
918.117	2304.25
918.352	2257.25
918.588	2333.25
918.823	2255.25
919.057	2204.25
919.292	2110.25
919.527	2253.25
919.762	2148.25
919.997	2204.25
920.232	2128.25
920.466	2159.25
920.701	2037.25
920.935	2098.25
921.17	2074.25
921.405	2031.25
921.639	2092.25
921.873	2060.25
922.108	2067.25
922.342	2086.25
922.576	2029.25
922.811	2038.25
923.045	2092.25
923.279	2087.25
923.513	1968.25
923.747	2005.25
923.981	2022.25
924.215	1987.25
924.449	1997.25
924.683	1931.25
924.917	1948.25
925.151	1991.25
925.385	2037.25
925.618	1984.25
925.852	1956.25
926.086	1891.25
926.319	1958.25
926.553	1966.25
926.786	1975.25
927.02	1929.25
927.253	1980.25
927.486	1968.25
927.72	1914.25
927.953	1975.25
928.186	1913.25
928.42	1971.25
928.653	1923.25
928.886	1917.25
929.119	1953.25
929.352	1914.25
929.585	1896.25
929.818	1856.25
930.051	1924.25
930.284	1880.25
930.516	1808.25
930.749	1855.25
930.982	1885.25
931.215	1845.25
931.447	1829.25
931.68	1819.25
931.912	1836.25
932.145	1802.25
932.377	1832.25
932.61	1954.25
932.842	1748.25
933.074	1857.25
933.307	1792.25
933.539	1914.25
933.771	1876.25
934.003	1813.25
934.236	1884.25
934.468	1900.25
934.7	1820.25
934.932	1873.25
935.164	1815.25
935.395	1814.25
935.627	1817.25
935.859	1823.25
936.091	1754.25
936.323	1817.25
936.554	1852.25
936.786	1793.25
937.017	1757.25
937.249	1814.25
937.481	1734.25
937.712	1834.25
937.943	1802.25
938.175	1783.25
938.406	1776.25
938.637	1853.25
938.869	1758.25
939.1	1806.25
939.331	1737.25
939.562	1818.25
939.793	1790.25
940.024	1790.25
940.255	1829.25
940.486	1778.25
940.717	1765.25
940.948	1753.25
941.179	1701.25
941.409	1730.25
941.64	1771.25
941.871	1744.25
942.102	1719.25
942.332	1718.25
942.563	1767.25
942.793	1743.25
943.024	1698.25
943.254	1741.25
943.484	1772.25
943.715	1785.25
943.945	1742.25
944.175	1681.25
944.405	1659.25
944.636	1684.25
944.866	1735.25
945.096	1735.25
945.326	1683.25
945.556	1706.25
945.786	1730.25
946.016	1719.25
946.245	1657.25
946.475	1680.25
946.705	1656.25
946.935	1692.25
947.164	1681.25
947.394	1649.25
947.624	1658.25
947.853	1716.25
948.083	1666.25
948.312	1629.25
948.542	1605.25
948.771	1613.25
949	1601.25
949.23	1634.25
949.459	1644.25
949.688	1706.25
949.917	1639.25
950.146	1618.25
950.375	1705.25
950.604	1591.25
950.833	1689.25
951.062	1717.25
951.291	1626.25
951.52	1600.25
951.749	1634.25
951.978	1611.25
952.206	1608.25
952.435	1621.25
952.664	1607.25
952.892	1653.25
953.121	1621.25
953.349	1613.25
953.578	1618.25
953.806	1593.25
954.035	1558.25
954.263	1583.25
954.491	1533.25
954.719	1622.25
954.948	1538.25
955.176	1552.25
955.404	1463.25
955.632	1551.25
955.86	1579.25
956.088	1550.25
956.316	1604.25
956.544	1593.25
956.772	1523.25
956.999	1506.25
957.227	1613.25
957.455	1494.25
957.683	1540.25
957.91	1509.25
958.138	1486.25
958.365	1483.25
958.593	1496.25
958.82	1463.25
959.048	1518.25
959.275	1496.25
959.502	1487.25
959.73	1454.25
959.957	1509.25
960.184	1546.25
960.411	1490.25
960.638	1564.25
960.865	1495.25
961.092	1517.25
961.319	1432.25
961.546	1505.25
961.773	1487.25
962	1477.25
962.227	1530.25
962.454	1501.25
962.68	1467.25
962.907	1494.25
963.134	1468.25
963.36	1488.25
963.587	1496.25
963.813	1434.25
964.04	1453.25
964.266	1396.25
964.493	1508.25
964.719	1474.25
964.945	1469.25
965.171	1393.25
965.398	1458.25
965.624	1452.25
965.85	1384.25
966.076	1395.25
966.302	1454.25
966.528	1403.25
966.754	1424.25
966.98	1452.25
967.206	1410.25
967.431	1359.25
967.657	1450.25
967.883	1435.25
968.109	1414.25
968.334	1353.25
968.56	1366.25
968.785	1381.25
969.011	1361.25
969.236	1396.25
969.462	1351.25
969.687	1372.25
969.912	1420.25
970.138	1424.25
970.363	1349.25
970.588	1370.25
970.813	1331.25
971.038	1319.25
971.263	1338.25
971.488	1363.25
971.713	1428.25
971.938	1375.25
972.163	1278.25
972.388	1325.25
972.613	1310.25
972.838	1359.25
973.062	1316.25
973.287	1323.25
973.512	1248.25
973.736	1295.25
973.961	1285.25
974.185	1291.25
974.41	1333.25
974.634	1229.25
974.858	1263.25
975.083	1316.25
975.307	1304.25
975.531	1268.25
975.755	1212.25
975.98	1233.25
976.204	1193.25
976.428	1183.25
976.652	1192.25
976.876	1166.25
977.1	1223.25
977.324	1199.25
977.547	1233.25
977.771	1232.25
977.995	1202.25
978.219	1150.25
978.442	1284.25
978.666	1216.25
978.89	1198.25
979.113	1202.25
979.337	1198.25
979.56	1169.25
979.783	1257.25
980.007	1151.25
980.23	1196.25
980.453	1154.25
980.677	1211.25
980.9	1200.25
981.123	1097.25
981.346	1197.25
981.569	1200.25
981.792	1220.25
982.015	1169.25
982.238	1149.25
982.461	1173.25
982.684	1156.25
982.907	1137.25
983.129	1118.25
983.352	1201.25
983.575	1180.25
983.797	1145.25
984.02	1133.25
984.242	1132.25
984.465	1141.25
984.687	1174.25
984.91	1197.25
985.132	1170.25
985.354	1199.25
985.577	1144.25
985.799	1143.25
986.021	1080.25
986.243	1117.25
986.465	1114.25
986.687	1163.25
986.909	1206.25
987.131	1154.25
987.353	1124.25
987.575	1166.25
987.797	1122.25
988.019	1063.25
988.241	1134.25
988.462	1064.25
988.684	1153.25
988.906	1171.25
989.127	1195.25
989.349	1078.25
989.57	1108.25
989.792	1149.25
990.013	1144.25
990.234	1171.25
990.456	1201.25
990.677	1161.25
990.898	1127.25
991.119	1114.25
991.341	1169.25
991.562	1059.25
991.783	1152.25
992.004	1074.25
992.225	1062.25
992.446	1118.25
992.667	1038.25
992.887	1110.25
993.108	1040.25
993.329	1163.25
993.55	1117.25
993.77	1034.25
993.991	1070.25
994.212	1094.25
994.432	1094.25
994.653	1111.25
994.873	1101.25
995.093	998.25
995.314	1044.25
995.534	1103.25
995.754	1134.25
995.975	1150.25
996.195	1033.25
996.415	1107.25
996.635	1056.25
996.855	1091.25
997.075	1064.25
997.295	1073.25
997.515	1045.25
997.735	1114.25
997.955	1091.25
998.174	1077.25
998.394	1059.25
998.614	1087.25
998.834	1066.25
999.053	1150.25
999.273	1102.25
999.492	1158.25
999.712	1090.25
999.931	1045.25
1000.151	1129.25
1000.37	1079.25
1000.589	1131.25
1000.809	1043.25
1001.028	1181.25
1001.247	1126.25
1001.466	1032.25
1001.685	1178.25
1001.904	1122.25
1002.123	1093.25
1002.342	1132.25
1002.561	1070.25
1002.78	1095.25
1002.999	1132.25
1003.218	1126.25
1003.436	1072.25
1003.655	1133.25
1003.874	1069.25
1004.092	1098.25
1004.311	1144.25
1004.53	1104.25
1004.748	1193.25
1004.966	1100.25
1005.185	1169.25
1005.403	1172.25
1005.622	1114.25
1005.84	1213.25
1006.058	1121.25
1006.276	1140.25
1006.494	1646.25
1006.712	1139.25
1006.931	1204.25
1007.149	1097.25
1007.367	1125.25
1007.584	1159.25
1007.802	1198.25
1008.02	1145.25
1008.238	1235.25
1008.456	1237.25
1008.673	1116.25
1008.891	1208.25
1009.109	1167.25
1009.326	1225.25
1009.544	1297.25
1009.761	1213.25
1009.979	1299.25
1010.196	1324.25
1010.413	1415.25
1010.631	1450.25
1010.848	1498.25
1011.065	1491.25
1011.282	1437.25
1011.5	1388.25
1011.717	1500.25
1011.934	1463.25
1012.151	1481.25
1012.368	1457.25
1012.585	1395.25
1012.801	1467.25
1013.018	1436.25
1013.235	1401.25
1013.452	1440.25
1013.669	1434.25
1013.885	1420.25
1014.102	1475.25
1014.318	1438.25
1014.535	1404.25
1014.751	1420.25
1014.968	1432.25
1015.184	1458.25
1015.401	1370.25
1015.617	1434.25
1015.833	1371.25
1016.049	1385.25
1016.266	1342.25
1016.482	1371.25
1016.698	1307.25
1016.914	1407.25
1017.13	1306.25
1017.346	1319.25
1017.562	1358.25
1017.778	1299.25
1017.993	1288.25
1018.209	1340.25
1018.425	1323.25
1018.641	1300.25
1018.856	1252.25
1019.072	1333.25
1019.288	1361.25
1019.503	1310.25
1019.719	1224.25
1019.934	1247.25
1020.149	1336.25
1020.365	1268.25
1020.58	1208.25
1020.795	1246.25
1021.011	1177.25
1021.226	1159.25
1021.441	1185.25
1021.656	1102.25
1021.871	1064.25
1022.086	1054.25
1022.301	1073.25
1022.516	1038.25
1022.731	1102.25
1022.946	1005.25
1023.16	999.25
1023.375	995.25
1023.59	954.25
1023.804	899.25
1024.019	1039.25
1024.234	901.25
1024.448	956.25
1024.663	881.25
1024.877	885.25
1025.092	905.25
1025.306	929.25
1025.52	810.25
1025.734	922.25
1025.949	855.25
1026.163	799.25
1026.377	752.25
1026.591	813.25
1026.805	742.25
1027.019	731.25
1027.233	704.25
1027.447	657.25
1027.661	752.25
1027.875	702.25
1028.088	712.25
1028.302	634.25
1028.516	638.25
1028.73	640.25
1028.943	629.25
1029.157	584.25
1029.37	534.25
1029.584	-0.75
1029.797	-4.75
1030.011	1.25
1030.224	1.25
