Data from QEP037381__318__11-13-36-591.txt Node

Date: Wed Dec 21 11:13:36 EST 2022
User: dcclab
Spectrometer: QEP03738
Trigger mode: 4
Integration Time (sec): 1.000000E1
Scans to average: 1
Electric dark correction enabled: true
Nonlinearity correction enabled: false
Boxcar width: 0
XAxis mode: Wavelengths
Number of Pixels in Spectrum: 1044
>>>>>Begin Spectral Data<<<<<
784.041	9.75
784.3	-0.25
784.558	-0.25
784.817	-6.25
785.075	96317.75
785.334	16698.75
785.592	7829.75
785.851	5389.75
786.109	4071.75
786.368	3136.75
786.626	2542.75
786.884	2120.75
787.143	1763.75
787.401	1443.75
787.659	1299.75
787.917	1121.75
788.175	1013.75
788.433	921.75
788.691	807.75
788.949	755.75
789.207	702.75
789.465	609.75
789.723	607.75
789.98	552.75
790.238	587.75
790.496	546.75
790.753	530.75
791.011	566.75
791.268	500.75
791.526	490.75
791.783	492.75
792.041	485.75
792.298	406.75
792.556	460.75
792.813	462.75
793.07	425.75
793.327	421.75
793.584	510.75
793.841	404.75
794.099	423.75
794.356	490.75
794.613	389.75
794.869	425.75
795.126	395.75
795.383	371.75
795.64	393.75
795.897	356.75
796.153	401.75
796.41	391.75
796.667	365.75
796.923	385.75
797.18	381.75
797.436	401.75
797.693	365.75
797.949	422.75
798.206	459.75
798.462	345.75
798.718	409.75
798.974	361.75
799.231	414.75
799.487	400.75
799.743	405.75
799.999	409.75
800.255	423.75
800.511	389.75
800.767	421.75
801.023	391.75
801.279	418.75
801.534	419.75
801.79	443.75
802.046	422.75
802.302	493.75
802.557	490.75
802.813	547.75
803.068	569.75
803.324	698.75
803.579	847.75
803.835	1060.75
804.09	1421.75
804.345	1748.75
804.601	2193.75
804.856	2658.75
805.111	3052.75
805.366	3359.75
805.621	3508.75
805.876	3680.75
806.131	3734.75
806.386	3808.75
806.641	3778.75
806.896	3887.75
807.151	4017.75
807.406	4056.75
807.661	4113.75
807.915	4183.75
808.17	4325.75
808.425	4318.75
808.679	4313.75
808.934	4505.75
809.188	4474.75
809.443	4554.75
809.697	4605.75
809.951	4624.75
810.206	4642.75
810.46	4715.75
810.714	4797.75
810.968	4908.75
811.223	4843.75
811.477	4881.75
811.731	4965.75
811.985	4931.75
812.239	4978.75
812.493	4981.75
812.747	5038.75
813	4999.75
813.254	5094.75
813.508	5148.75
813.762	5122.75
814.015	5206.75
814.269	5183.75
814.522	5259.75
814.776	5315.75
815.03	5409.75
815.283	5494.75
815.536	5574.75
815.79	5661.75
816.043	5739.75
816.296	5800.75
816.55	5866.75
816.803	5944.75
817.056	6158.75
817.309	6142.75
817.562	6129.75
817.815	6287.75
818.068	6270.75
818.321	6369.75
818.574	6428.75
818.827	6581.75
819.079	6660.75
819.332	6882.75
819.585	6915.75
819.838	7079.75
820.09	6989.75
820.343	7117.75
820.595	7073.75
820.848	7175.75
821.1	7148.75
821.353	7167.75
821.605	7196.75
821.857	7252.75
822.11	7119.75
822.362	7159.75
822.614	7119.75
822.866	7176.75
823.118	7125.75
823.37	7241.75
823.622	7269.75
823.874	7296.75
824.126	7311.75
824.378	7278.75
824.63	7393.75
824.882	7440.75
825.134	7337.75
825.385	7366.75
825.637	7294.75
825.888	7304.75
826.14	7297.75
826.392	7227.75
826.643	7175.75
826.895	7246.75
827.146	7113.75
827.397	7128.75
827.649	7169.75
827.9	7126.75
828.151	7062.75
828.402	7122.75
828.653	7173.75
828.905	7148.75
829.156	7239.75
829.407	7282.75
829.658	7206.75
829.909	7379.75
830.159	7310.75
830.41	7341.75
830.661	7187.75
830.912	7161.75
831.162	7198.75
831.413	7174.75
831.664	7177.75
831.914	7213.75
832.165	7219.75
832.415	7236.75
832.666	7251.75
832.916	7240.75
833.167	7174.75
833.417	7288.75
833.667	7122.75
833.917	7140.75
834.168	7215.75
834.418	7207.75
834.668	7150.75
834.918	7128.75
835.168	7119.75
835.418	7064.75
835.668	7092.75
835.918	7105.75
836.167	7059.75
836.417	7022.75
836.667	7040.75
836.917	7065.75
837.166	7028.75
837.416	7065.75
837.666	7011.75
837.915	6982.75
838.165	7002.75
838.414	6946.75
838.663	6889.75
838.913	6980.75
839.162	6970.75
839.411	7049.75
839.661	7042.75
839.91	7027.75
840.159	7016.75
840.408	6996.75
840.657	7047.75
840.906	7089.75
841.155	7079.75
841.404	7018.75
841.653	7023.75
841.902	7045.75
842.15	7092.75
842.399	7174.75
842.648	7034.75
842.897	7063.75
843.145	7037.75
843.394	6986.75
843.642	6899.75
843.891	6964.75
844.139	6917.75
844.388	6801.75
844.636	6757.75
844.884	6759.75
845.133	6769.75
845.381	6794.75
845.629	6804.75
845.877	6751.75
846.125	6813.75
846.373	6875.75
846.621	6790.75
846.869	6826.75
847.117	6755.75
847.365	6684.75
847.613	6679.75
847.861	6684.75
848.108	6764.75
848.356	6741.75
848.604	6711.75
848.851	6748.75
849.099	6732.75
849.346	6768.75
849.594	6808.75
849.841	6908.75
850.089	6915.75
850.336	6961.75
850.583	7024.75
850.831	6981.75
851.078	7002.75
851.325	7017.75
851.572	7136.75
851.819	7006.75
852.066	6732.75
852.313	6556.75
852.56	6435.75
852.807	6474.75
853.054	6439.75
853.301	6507.75
853.548	6523.75
853.794	6588.75
854.041	6548.75
854.288	6579.75
854.534	6795.75
854.781	6666.75
855.028	6668.75
855.274	6708.75
855.52	6645.75
855.767	6581.75
856.013	6621.75
856.26	6942.75
856.506	6543.75
856.752	6594.75
856.998	6528.75
857.244	6566.75
857.49	6647.75
857.736	6704.75
857.982	6692.75
858.228	6639.75
858.474	6501.75
858.72	6489.75
858.966	6533.75
859.212	6450.75
859.458	6333.75
859.703	6246.75
859.949	6180.75
860.195	6143.75
860.44	6220.75
860.686	6127.75
860.931	6189.75
861.177	6095.75
861.422	6127.75
861.667	6024.75
861.913	6003.75
862.158	6047.75
862.403	6132.75
862.648	6094.75
862.893	6172.75
863.138	6166.75
863.384	6060.75
863.629	6139.75
863.873	6075.75
864.118	6121.75
864.363	6053.75
864.608	6108.75
864.853	6081.75
865.098	6015.75
865.342	6006.75
865.587	5938.75
865.832	6013.75
866.076	5998.75
866.321	5975.75
866.565	5950.75
866.81	5877.75
867.054	5916.75
867.298	5937.75
867.543	5828.75
867.787	5914.75
868.031	5906.75
868.275	5940.75
868.519	5909.75
868.764	5944.75
869.008	5906.75
869.252	6018.75
869.496	5901.75
869.739	5892.75
869.983	6000.75
870.227	5985.75
870.471	5983.75
870.715	6035.75
870.958	6050.75
871.202	6043.75
871.446	6125.75
871.689	6081.75
871.933	6054.75
872.176	6061.75
872.42	6075.75
872.663	6094.75
872.906	6097.75
873.15	6081.75
873.393	5912.75
873.636	6117.75
873.879	5997.75
874.122	5987.75
874.366	5860.75
874.609	5810.75
874.852	5769.75
875.095	5723.75
875.337	5706.75
875.58	5648.75
875.823	5666.75
876.066	5695.75
876.309	5685.75
876.551	5584.75
876.794	5517.75
877.037	5615.75
877.279	5542.75
877.522	5531.75
877.764	5618.75
878.007	5503.75
878.249	5486.75
878.491	5472.75
878.734	5574.75
878.976	5481.75
879.218	5405.75
879.46	5467.75
879.702	5398.75
879.945	5363.75
880.187	5290.75
880.429	5312.75
880.671	5244.75
880.912	5300.75
881.154	5220.75
881.396	5226.75
881.638	5187.75
881.88	5252.75
882.121	5189.75
882.363	5200.75
882.605	5325.75
882.846	5243.75
883.088	5237.75
883.329	5281.75
883.571	5281.75
883.812	5401.75
884.053	5482.75
884.295	5679.75
884.536	5900.75
884.777	5822.75
885.018	5845.75
885.259	5823.75
885.5	5679.75
885.742	5884.75
885.982	5690.75
886.223	5551.75
886.464	5553.75
886.705	5405.75
886.946	5390.75
887.187	5249.75
887.428	5286.75
887.668	5071.75
887.909	4984.75
888.15	4971.75
888.39	5014.75
888.631	4949.75
888.871	4856.75
889.111	4845.75
889.352	4763.75
889.592	4723.75
889.833	4673.75
890.073	4685.75
890.313	4682.75
890.553	4606.75
890.793	4567.75
891.033	4529.75
891.273	4552.75
891.513	4548.75
891.753	4598.75
891.993	4545.75
892.233	4560.75
892.473	4667.75
892.713	4626.75
892.952	4608.75
893.192	4623.75
893.432	4639.75
893.671	4728.75
893.911	4643.75
894.15	4575.75
894.39	4539.75
894.629	4571.75
894.869	4587.75
895.108	4530.75
895.347	4453.75
895.587	4509.75
895.826	4521.75
896.065	4496.75
896.304	4506.75
896.543	4557.75
896.782	4440.75
897.021	4513.75
897.26	4495.75
897.499	4573.75
897.738	4562.75
897.977	4535.75
898.216	4485.75
898.454	4471.75
898.693	4385.75
898.932	4477.75
899.17	4418.75
899.409	4429.75
899.647	4454.75
899.886	4408.75
900.124	4496.75
900.363	4421.75
900.601	4502.75
900.839	4496.75
901.078	4510.75
901.316	4568.75
901.554	4673.75
901.792	4680.75
902.03	4647.75
902.268	4694.75
902.506	4760.75
902.744	4671.75
902.982	4677.75
903.22	4463.75
903.458	4439.75
903.695	4407.75
903.933	4296.75
904.171	4150.75
904.409	4101.75
904.646	4088.75
904.884	3961.75
905.121	3958.75
905.359	3922.75
905.596	3859.75
905.833	3833.75
906.071	3755.75
906.308	3859.75
906.545	3741.75
906.783	3719.75
907.02	3757.75
907.257	3695.75
907.494	3751.75
907.731	3734.75
907.968	3740.75
908.205	3661.75
908.442	3632.75
908.679	3658.75
908.915	3638.75
909.152	3592.75
909.389	3475.75
909.626	3526.75
909.862	3514.75
910.099	3490.75
910.335	3510.75
910.572	3401.75
910.808	3436.75
911.045	3423.75
911.281	3379.75
911.518	3469.75
911.754	3370.75
911.99	3374.75
912.226	3320.75
912.463	3303.75
912.699	3273.75
912.935	3303.75
913.171	3305.75
913.407	3241.75
913.643	3314.75
913.879	3221.75
914.114	3187.75
914.35	3124.75
914.586	3137.75
914.822	3082.75
915.057	3173.75
915.293	3074.75
915.529	3010.75
915.764	3095.75
916	3060.75
916.235	3050.75
916.471	3087.75
916.706	3017.75
916.941	3029.75
917.177	3029.75
917.412	3050.75
917.647	3050.75
917.882	3013.75
918.117	3081.75
918.352	3041.75
918.588	3073.75
918.823	2971.75
919.057	3019.75
919.292	2851.75
919.527	2964.75
919.762	2891.75
919.997	2928.75
920.232	2829.75
920.466	2892.75
920.701	2782.75
920.935	2835.75
921.17	2804.75
921.405	2775.75
921.639	2802.75
921.873	2758.75
922.108	2776.75
922.342	2764.75
922.576	2739.75
922.811	2699.75
923.045	2759.75
923.279	2773.75
923.513	2672.75
923.747	2757.75
923.981	2709.75
924.215	2657.75
924.449	2686.75
924.683	2646.75
924.917	2611.75
925.151	2581.75
925.385	2643.75
925.618	2604.75
925.852	2625.75
926.086	2602.75
926.319	2603.75
926.553	2641.75
926.786	2633.75
927.02	2629.75
927.253	2677.75
927.486	2641.75
927.72	2608.75
927.953	2627.75
928.186	2606.75
928.42	2687.75
928.653	2569.75
928.886	2552.75
929.119	2620.75
929.352	2566.75
929.585	2557.75
929.818	2544.75
930.051	2518.75
930.284	2507.75
930.516	2476.75
930.749	2477.75
930.982	2512.75
931.215	2501.75
931.447	2421.75
931.68	2446.75
931.912	2405.75
932.145	2437.75
932.377	2494.75
932.61	2585.75
932.842	2405.75
933.074	2421.75
933.307	2426.75
933.539	2464.75
933.771	2492.75
934.003	2418.75
934.236	2536.75
934.468	2555.75
934.7	2429.75
934.932	2486.75
935.164	2430.75
935.395	2408.75
935.627	2426.75
935.859	2464.75
936.091	2353.75
936.323	2465.75
936.554	2463.75
936.786	2443.75
937.017	2383.75
937.249	2434.75
937.481	2378.75
937.712	2423.75
937.943	2389.75
938.175	2399.75
938.406	2410.75
938.637	2446.75
938.869	2361.75
939.1	2424.75
939.331	2394.75
939.562	2365.75
939.793	2402.75
940.024	2442.75
940.255	2417.75
940.486	2373.75
940.717	2395.75
940.948	2345.75
941.179	2268.75
941.409	2368.75
941.64	2302.75
941.871	2362.75
942.102	2301.75
942.332	2346.75
942.563	2382.75
942.793	2353.75
943.024	2301.75
943.254	2367.75
943.484	2362.75
943.715	2372.75
943.945	2346.75
944.175	2296.75
944.405	2282.75
944.636	2292.75
944.866	2338.75
945.096	2342.75
945.326	2299.75
945.556	2366.75
945.786	2339.75
946.016	2280.75
946.245	2254.75
946.475	2235.75
946.705	2293.75
946.935	2270.75
947.164	2256.75
947.394	2218.75
947.624	2232.75
947.853	2275.75
948.083	2226.75
948.312	2201.75
948.542	2171.75
948.771	2134.75
949	2159.75
949.23	2189.75
949.459	2200.75
949.688	2243.75
949.917	2202.75
950.146	2225.75
950.375	2267.75
950.604	2170.75
950.833	2251.75
951.062	2231.75
951.291	2213.75
951.52	2178.75
951.749	2153.75
951.978	2146.75
952.206	2119.75
952.435	2152.75
952.664	2200.75
952.892	2200.75
953.121	2145.75
953.349	2161.75
953.578	2204.75
953.806	2129.75
954.035	2116.75
954.263	2112.75
954.491	2079.75
954.719	2131.75
954.948	2101.75
955.176	2064.75
955.404	1994.75
955.632	2091.75
955.86	2110.75
956.088	2072.75
956.316	2084.75
956.544	2125.75
956.772	2026.75
956.999	2032.75
957.227	2115.75
957.455	1984.75
957.683	2047.75
957.91	2010.75
958.138	1987.75
958.365	1987.75
958.593	1995.75
958.82	1944.75
959.048	2019.75
959.275	1950.75
959.502	1965.75
959.73	1958.75
959.957	1993.75
960.184	2028.75
960.411	1976.75
960.638	2022.75
960.865	1977.75
961.092	1957.75
961.319	1896.75
961.546	2007.75
961.773	2014.75
962	1935.75
962.227	2000.75
962.454	1978.75
962.68	1937.75
962.907	1940.75
963.134	1924.75
963.36	1923.75
963.587	1946.75
963.813	1883.75
964.04	1926.75
964.266	1863.75
964.493	1984.75
964.719	1917.75
964.945	1956.75
965.171	1823.75
965.398	1868.75
965.624	1932.75
965.85	1869.75
966.076	1833.75
966.302	1878.75
966.528	1831.75
966.754	1880.75
966.98	1816.75
967.206	1837.75
967.431	1787.75
967.657	1869.75
967.883	1873.75
968.109	1838.75
968.334	1809.75
968.56	1807.75
968.785	1799.75
969.011	1768.75
969.236	1811.75
969.462	1773.75
969.687	1802.75
969.912	1833.75
970.138	1843.75
970.363	1758.75
970.588	1792.75
970.813	1771.75
971.038	1757.75
971.263	1807.75
971.488	1775.75
971.713	1790.75
971.938	1804.75
972.163	1702.75
972.388	1734.75
972.613	1733.75
972.838	1734.75
973.062	1731.75
973.287	1715.75
973.512	1669.75
973.736	1691.75
973.961	1672.75
974.185	1662.75
974.41	1704.75
974.634	1634.75
974.858	1660.75
975.083	1689.75
975.307	1696.75
975.531	1626.75
975.755	1567.75
975.98	1603.75
976.204	1556.75
976.428	1565.75
976.652	1575.75
976.876	1580.75
977.1	1618.75
977.324	1558.75
977.547	1593.75
977.771	1614.75
977.995	1598.75
978.219	1529.75
978.442	1636.75
978.666	1619.75
978.89	1565.75
979.113	1564.75
979.337	1554.75
979.56	1570.75
979.783	1644.75
980.007	1519.75
980.23	1554.75
980.453	1524.75
980.677	1539.75
980.9	1553.75
981.123	1456.75
981.346	1568.75
981.569	1528.75
981.792	1557.75
982.015	1541.75
982.238	1468.75
982.461	1515.75
982.684	1509.75
982.907	1451.75
983.129	1450.75
983.352	1527.75
983.575	1487.75
983.797	1500.75
984.02	1454.75
984.242	1449.75
984.465	1463.75
984.687	1503.75
984.91	1514.75
985.132	1486.75
985.354	1495.75
985.577	1479.75
985.799	1476.75
986.021	1393.75
986.243	1427.75
986.465	1439.75
986.687	1481.75
986.909	1530.75
987.131	1470.75
987.353	1422.75
987.575	1481.75
987.797	1432.75
988.019	1349.75
988.241	1437.75
988.462	1397.75
988.684	1419.75
988.906	1478.75
989.127	1498.75
989.349	1369.75
989.57	1441.75
989.792	1463.75
990.013	1478.75
990.234	1483.75
990.456	1514.75
990.677	1482.75
990.898	1432.75
991.119	1426.75
991.341	1471.75
991.562	1382.75
991.783	1450.75
992.004	1365.75
992.225	1329.75
992.446	1420.75
992.667	1343.75
992.887	1409.75
993.108	1303.75
993.329	1469.75
993.55	1385.75
993.77	1327.75
993.991	1333.75
994.212	1353.75
994.432	1379.75
994.653	1371.75
994.873	1373.75
995.093	1260.75
995.314	1307.75
995.534	1369.75
995.754	1386.75
995.975	1419.75
996.195	1278.75
996.415	1352.75
996.635	1348.75
996.855	1370.75
997.075	1332.75
997.295	1312.75
997.515	1308.75
997.735	1376.75
997.955	1358.75
998.174	1329.75
998.394	1317.75
998.614	1345.75
998.834	1312.75
999.053	1402.75
999.273	1343.75
999.492	1406.75
999.712	1368.75
999.931	1275.75
1000.151	1341.75
1000.37	1350.75
1000.589	1387.75
1000.809	1341.75
1001.028	1421.75
1001.247	1368.75
1001.466	1262.75
1001.685	1409.75
1001.904	1372.75
1002.123	1318.75
1002.342	1336.75
1002.561	1285.75
1002.78	1347.75
1002.999	1394.75
1003.218	1336.75
1003.436	1305.75
1003.655	1360.75
1003.874	1294.75
1004.092	1339.75
1004.311	1347.75
1004.53	1344.75
1004.748	1405.75
1004.966	1325.75
1005.185	1385.75
1005.403	1365.75
1005.622	1356.75
1005.84	1435.75
1006.058	1331.75
1006.276	1360.75
1006.494	1851.75
1006.712	1345.75
1006.931	1439.75
1007.149	1328.75
1007.367	1343.75
1007.584	1371.75
1007.802	1444.75
1008.02	1363.75
1008.238	1489.75
1008.456	1480.75
1008.673	1367.75
1008.891	1461.75
1009.109	1430.75
1009.326	1480.75
1009.544	1613.75
1009.761	1520.75
1009.979	1633.75
1010.196	1639.75
1010.413	1773.75
1010.631	1833.75
1010.848	1896.75
1011.065	1898.75
1011.282	1868.75
1011.5	1795.75
1011.717	1928.75
1011.934	1845.75
1012.151	1881.75
1012.368	1893.75
1012.585	1802.75
1012.801	1829.75
1013.018	1856.75
1013.235	1832.75
1013.452	1830.75
1013.669	1879.75
1013.885	1856.75
1014.102	1864.75
1014.318	1876.75
1014.535	1838.75
1014.751	1878.75
1014.968	1864.75
1015.184	1895.75
1015.401	1818.75
1015.617	1814.75
1015.833	1775.75
1016.049	1812.75
1016.266	1777.75
1016.482	1781.75
1016.698	1717.75
1016.914	1772.75
1017.13	1735.75
1017.346	1701.75
1017.562	1773.75
1017.778	1740.75
1017.993	1692.75
1018.209	1739.75
1018.425	1739.75
1018.641	1699.75
1018.856	1660.75
1019.072	1695.75
1019.288	1738.75
1019.503	1756.75
1019.719	1615.75
1019.934	1632.75
1020.149	1729.75
1020.365	1622.75
1020.58	1598.75
1020.795	1642.75
1021.011	1550.75
1021.226	1517.75
1021.441	1543.75
1021.656	1438.75
1021.871	1388.75
1022.086	1373.75
1022.301	1375.75
1022.516	1335.75
1022.731	1396.75
1022.946	1303.75
1023.16	1302.75
1023.375	1278.75
1023.59	1215.75
1023.804	1202.75
1024.019	1300.75
1024.234	1170.75
1024.448	1170.75
1024.663	1125.75
1024.877	1110.75
1025.092	1129.75
1025.306	1148.75
1025.52	1014.75
1025.734	1114.75
1025.949	1052.75
1026.163	1009.75
1026.377	916.75
1026.591	994.75
1026.805	909.75
1027.019	908.75
1027.233	878.75
1027.447	837.75
1027.661	907.75
1027.875	854.75
1028.088	875.75
1028.302	796.75
1028.516	784.75
1028.73	786.75
1028.943	755.75
1029.157	697.75
1029.37	668.75
1029.584	-0.25
1029.797	-1.25
1030.011	0.75
1030.224	-2.25
