Data from QEP037381__279__11-07-06-589.txt Node

Date: Wed Dec 21 11:07:06 EST 2022
User: dcclab
Spectrometer: QEP03738
Trigger mode: 4
Integration Time (sec): 1.000000E1
Scans to average: 1
Electric dark correction enabled: true
Nonlinearity correction enabled: false
Boxcar width: 0
XAxis mode: Wavelengths
Number of Pixels in Spectrum: 1044
>>>>>Begin Spectral Data<<<<<
784.041	9.5
784.3	1.5
784.558	-0.5
784.817	-1.5
785.075	94853.5
785.334	16231.5
785.592	7349.5
785.851	5124.5
786.109	3835.5
786.368	2990.5
786.626	2449.5
786.884	2050.5
787.143	1711.5
787.401	1399.5
787.659	1293.5
787.917	1074.5
788.175	998.5
788.433	872.5
788.691	785.5
788.949	707.5
789.207	694.5
789.465	592.5
789.723	578.5
789.98	538.5
790.238	563.5
790.496	525.5
790.753	506.5
791.011	572.5
791.268	500.5
791.526	477.5
791.783	480.5
792.041	465.5
792.298	394.5
792.556	467.5
792.813	438.5
793.07	417.5
793.327	397.5
793.584	485.5
793.841	388.5
794.099	425.5
794.356	478.5
794.613	373.5
794.869	422.5
795.126	370.5
795.383	363.5
795.64	395.5
795.897	346.5
796.153	395.5
796.41	384.5
796.667	360.5
796.923	375.5
797.18	368.5
797.436	377.5
797.693	354.5
797.949	408.5
798.206	428.5
798.462	351.5
798.718	393.5
798.974	384.5
799.231	403.5
799.487	391.5
799.743	394.5
799.999	413.5
800.255	385.5
800.511	380.5
800.767	402.5
801.023	382.5
801.279	401.5
801.534	415.5
801.79	430.5
802.046	405.5
802.302	477.5
802.557	475.5
802.813	522.5
803.068	520.5
803.324	647.5
803.579	747.5
803.835	922.5
804.09	1235.5
804.345	1525.5
804.601	1897.5
804.856	2264.5
805.111	2600.5
805.366	2806.5
805.621	2933.5
805.876	3104.5
806.131	3136.5
806.386	3125.5
806.641	3148.5
806.896	3229.5
807.151	3361.5
807.406	3320.5
807.661	3394.5
807.915	3459.5
808.17	3536.5
808.425	3606.5
808.679	3572.5
808.934	3712.5
809.188	3644.5
809.443	3711.5
809.697	3825.5
809.951	3798.5
810.206	3839.5
810.46	3930.5
810.714	3949.5
810.968	3993.5
811.223	3998.5
811.477	4057.5
811.731	4061.5
811.985	3982.5
812.239	4026.5
812.493	4056.5
812.747	4078.5
813	4084.5
813.254	4141.5
813.508	4246.5
813.762	4172.5
814.015	4217.5
814.269	4246.5
814.522	4323.5
814.776	4348.5
815.03	4433.5
815.283	4482.5
815.536	4525.5
815.79	4589.5
816.043	4655.5
816.296	4732.5
816.55	4713.5
816.803	4827.5
817.056	4963.5
817.309	4961.5
817.562	5036.5
817.815	5094.5
818.068	5094.5
818.321	5149.5
818.574	5183.5
818.827	5297.5
819.079	5329.5
819.332	5563.5
819.585	5600.5
819.838	5688.5
820.09	5615.5
820.343	5765.5
820.595	5787.5
820.848	5823.5
821.1	5833.5
821.353	5804.5
821.605	5739.5
821.857	5823.5
822.11	5723.5
822.362	5719.5
822.614	5723.5
822.866	5776.5
823.118	5789.5
823.37	5913.5
823.622	5891.5
823.874	5894.5
824.126	5970.5
824.378	5926.5
824.63	5958.5
824.882	5980.5
825.134	5932.5
825.385	5931.5
825.637	5899.5
825.888	5873.5
826.14	5820.5
826.392	5808.5
826.643	5765.5
826.895	5876.5
827.146	5778.5
827.397	5665.5
827.649	5797.5
827.9	5677.5
828.151	5680.5
828.402	5769.5
828.653	5772.5
828.905	5787.5
829.156	5822.5
829.407	5759.5
829.658	5813.5
829.909	5853.5
830.159	5885.5
830.41	5760.5
830.661	5809.5
830.912	5746.5
831.162	5751.5
831.413	5695.5
831.664	5793.5
831.914	5739.5
832.165	5792.5
832.415	5820.5
832.666	5773.5
832.916	5790.5
833.167	5700.5
833.417	5778.5
833.667	5761.5
833.917	5719.5
834.168	5745.5
834.418	5741.5
834.668	5711.5
834.918	5668.5
835.168	5695.5
835.418	5570.5
835.668	5669.5
835.918	5636.5
836.167	5608.5
836.417	5583.5
836.667	5669.5
836.917	5669.5
837.166	5533.5
837.416	5622.5
837.666	5582.5
837.915	5497.5
838.165	5567.5
838.414	5462.5
838.663	5490.5
838.913	5562.5
839.162	5493.5
839.411	5586.5
839.661	5522.5
839.91	5521.5
840.159	5469.5
840.408	5544.5
840.657	5546.5
840.906	5584.5
841.155	5604.5
841.404	5544.5
841.653	5563.5
841.902	5517.5
842.15	5620.5
842.399	5585.5
842.648	5563.5
842.897	5563.5
843.145	5460.5
843.394	5372.5
843.642	5445.5
843.891	5467.5
844.139	5355.5
844.388	5329.5
844.636	5286.5
844.884	5350.5
845.133	5290.5
845.381	5304.5
845.629	5356.5
845.877	5311.5
846.125	5360.5
846.373	5330.5
846.621	5322.5
846.869	5361.5
847.117	5308.5
847.365	5224.5
847.613	5257.5
847.861	5213.5
848.108	5239.5
848.356	5249.5
848.604	5202.5
848.851	5213.5
849.099	5244.5
849.346	5281.5
849.594	5360.5
849.841	5392.5
850.089	5382.5
850.336	5398.5
850.583	5445.5
850.831	5451.5
851.078	5460.5
851.325	5496.5
851.572	5617.5
851.819	5448.5
852.066	5243.5
852.313	5040.5
852.56	5010.5
852.807	4998.5
853.054	5001.5
853.301	5106.5
853.548	5110.5
853.794	5158.5
854.041	5108.5
854.288	5149.5
854.534	5306.5
854.781	5197.5
855.028	5163.5
855.274	5222.5
855.52	5097.5
855.767	5090.5
856.013	5139.5
856.26	5415.5
856.506	5059.5
856.752	5094.5
856.998	5088.5
857.244	5060.5
857.49	5121.5
857.736	5093.5
857.982	5154.5
858.228	5141.5
858.474	5015.5
858.72	5053.5
858.966	5026.5
859.212	4932.5
859.458	4867.5
859.703	4883.5
859.949	4767.5
860.195	4763.5
860.44	4731.5
860.686	4683.5
860.931	4777.5
861.177	4650.5
861.422	4780.5
861.667	4645.5
861.913	4666.5
862.158	4674.5
862.403	4730.5
862.648	4786.5
862.893	4825.5
863.138	4752.5
863.384	4671.5
863.629	4728.5
863.873	4740.5
864.118	4667.5
864.363	4609.5
864.608	4733.5
864.853	4658.5
865.098	4657.5
865.342	4636.5
865.587	4591.5
865.832	4674.5
866.076	4620.5
866.321	4598.5
866.565	4586.5
866.81	4523.5
867.054	4534.5
867.298	4569.5
867.543	4516.5
867.787	4573.5
868.031	4553.5
868.275	4564.5
868.519	4537.5
868.764	4535.5
869.008	4526.5
869.252	4602.5
869.496	4543.5
869.739	4506.5
869.983	4585.5
870.227	4515.5
870.471	4531.5
870.715	4599.5
870.958	4593.5
871.202	4578.5
871.446	4573.5
871.689	4565.5
871.933	4619.5
872.176	4606.5
872.42	4518.5
872.663	4554.5
872.906	4595.5
873.15	4545.5
873.393	4495.5
873.636	4581.5
873.879	4567.5
874.122	4523.5
874.366	4420.5
874.609	4443.5
874.852	4363.5
875.095	4366.5
875.337	4288.5
875.58	4216.5
875.823	4259.5
876.066	4298.5
876.309	4355.5
876.551	4208.5
876.794	4206.5
877.037	4270.5
877.279	4185.5
877.522	4181.5
877.764	4221.5
878.007	4196.5
878.249	4195.5
878.491	4185.5
878.734	4233.5
878.976	4199.5
879.218	4094.5
879.46	4168.5
879.702	4119.5
879.945	4089.5
880.187	4001.5
880.429	4041.5
880.671	3983.5
880.912	4009.5
881.154	3971.5
881.396	3883.5
881.638	3979.5
881.88	3967.5
882.121	3926.5
882.363	3949.5
882.605	4008.5
882.846	3971.5
883.088	3963.5
883.329	3962.5
883.571	3939.5
883.812	4022.5
884.053	4132.5
884.295	4223.5
884.536	4311.5
884.777	4279.5
885.018	4283.5
885.259	4273.5
885.5	4176.5
885.742	4435.5
885.982	4177.5
886.223	4138.5
886.464	4110.5
886.705	3991.5
886.946	3982.5
887.187	3867.5
887.428	3896.5
887.668	3777.5
887.909	3738.5
888.15	3713.5
888.39	3738.5
888.631	3749.5
888.871	3678.5
889.111	3628.5
889.352	3623.5
889.592	3614.5
889.833	3556.5
890.073	3551.5
890.313	3615.5
890.553	3441.5
890.793	3496.5
891.033	3449.5
891.273	3420.5
891.513	3423.5
891.753	3491.5
891.993	3457.5
892.233	3497.5
892.473	3546.5
892.713	3512.5
892.952	3458.5
893.192	3516.5
893.432	3471.5
893.671	3544.5
893.911	3506.5
894.15	3480.5
894.39	3397.5
894.629	3388.5
894.869	3448.5
895.108	3397.5
895.347	3342.5
895.587	3438.5
895.826	3391.5
896.065	3354.5
896.304	3391.5
896.543	3386.5
896.782	3311.5
897.021	3419.5
897.26	3394.5
897.499	3487.5
897.738	3454.5
897.977	3385.5
898.216	3355.5
898.454	3362.5
898.693	3320.5
898.932	3349.5
899.17	3269.5
899.409	3281.5
899.647	3277.5
899.886	3259.5
900.124	3340.5
900.363	3277.5
900.601	3356.5
900.839	3332.5
901.078	3335.5
901.316	3390.5
901.554	3391.5
901.792	3410.5
902.03	3423.5
902.268	3436.5
902.506	3493.5
902.744	3434.5
902.982	3393.5
903.22	3297.5
903.458	3229.5
903.695	3199.5
903.933	3207.5
904.171	3085.5
904.409	3016.5
904.646	3007.5
904.884	2929.5
905.121	2974.5
905.359	2932.5
905.596	2885.5
905.833	2841.5
906.071	2841.5
906.308	2856.5
906.545	2818.5
906.783	2755.5
907.02	2798.5
907.257	2785.5
907.494	2767.5
907.731	2783.5
907.968	2790.5
908.205	2785.5
908.442	2725.5
908.679	2701.5
908.915	2678.5
909.152	2702.5
909.389	2596.5
909.626	2620.5
909.862	2616.5
910.099	2621.5
910.335	2655.5
910.572	2521.5
910.808	2595.5
911.045	2564.5
911.281	2534.5
911.518	2636.5
911.754	2513.5
911.99	2538.5
912.226	2543.5
912.463	2494.5
912.699	2504.5
912.935	2507.5
913.171	2469.5
913.407	2423.5
913.643	2482.5
913.879	2435.5
914.114	2441.5
914.35	2383.5
914.586	2351.5
914.822	2328.5
915.057	2386.5
915.293	2260.5
915.529	2284.5
915.764	2376.5
916	2309.5
916.235	2299.5
916.471	2324.5
916.706	2262.5
916.941	2255.5
917.177	2299.5
917.412	2285.5
917.647	2335.5
917.882	2270.5
918.117	2327.5
918.352	2276.5
918.588	2336.5
918.823	2239.5
919.057	2257.5
919.292	2138.5
919.527	2266.5
919.762	2188.5
919.997	2222.5
920.232	2139.5
920.466	2192.5
920.701	2051.5
920.935	2141.5
921.17	2112.5
921.405	2087.5
921.639	2113.5
921.873	2070.5
922.108	2093.5
922.342	2098.5
922.576	2057.5
922.811	2048.5
923.045	2087.5
923.279	2105.5
923.513	1978.5
923.747	2068.5
923.981	2062.5
924.215	2008.5
924.449	1990.5
924.683	1953.5
924.917	1962.5
925.151	1959.5
925.385	2021.5
925.618	1978.5
925.852	1998.5
926.086	1889.5
926.319	1971.5
926.553	1969.5
926.786	1969.5
927.02	1955.5
927.253	2021.5
927.486	2001.5
927.72	1949.5
927.953	1976.5
928.186	1949.5
928.42	2004.5
928.653	1921.5
928.886	1905.5
929.119	1933.5
929.352	1934.5
929.585	1930.5
929.818	1902.5
930.051	1919.5
930.284	1922.5
930.516	1818.5
930.749	1841.5
930.982	1909.5
931.215	1891.5
931.447	1820.5
931.68	1823.5
931.912	1812.5
932.145	1817.5
932.377	1825.5
932.61	1949.5
932.842	1775.5
933.074	1850.5
933.307	1789.5
933.539	1878.5
933.771	1909.5
934.003	1834.5
934.236	1913.5
934.468	1930.5
934.7	1844.5
934.932	1880.5
935.164	1832.5
935.395	1786.5
935.627	1870.5
935.859	1840.5
936.091	1794.5
936.323	1842.5
936.554	1876.5
936.786	1795.5
937.017	1774.5
937.249	1807.5
937.481	1741.5
937.712	1811.5
937.943	1793.5
938.175	1767.5
938.406	1752.5
938.637	1842.5
938.869	1761.5
939.1	1805.5
939.331	1789.5
939.562	1810.5
939.793	1780.5
940.024	1805.5
940.255	1823.5
940.486	1754.5
940.717	1774.5
940.948	1783.5
941.179	1716.5
941.409	1746.5
941.64	1726.5
941.871	1765.5
942.102	1716.5
942.332	1718.5
942.563	1782.5
942.793	1752.5
943.024	1677.5
943.254	1740.5
943.484	1770.5
943.715	1761.5
943.945	1748.5
944.175	1685.5
944.405	1687.5
944.636	1692.5
944.866	1727.5
945.096	1763.5
945.326	1681.5
945.556	1725.5
945.786	1756.5
946.016	1686.5
946.245	1673.5
946.475	1681.5
946.705	1689.5
946.935	1672.5
947.164	1681.5
947.394	1635.5
947.624	1685.5
947.853	1706.5
948.083	1688.5
948.312	1636.5
948.542	1599.5
948.771	1606.5
949	1597.5
949.23	1621.5
949.459	1621.5
949.688	1683.5
949.917	1644.5
950.146	1633.5
950.375	1679.5
950.604	1582.5
950.833	1703.5
951.062	1684.5
951.291	1641.5
951.52	1602.5
951.749	1619.5
951.978	1589.5
952.206	1599.5
952.435	1587.5
952.664	1640.5
952.892	1627.5
953.121	1628.5
953.349	1626.5
953.578	1618.5
953.806	1608.5
954.035	1539.5
954.263	1598.5
954.491	1544.5
954.719	1583.5
954.948	1564.5
955.176	1534.5
955.404	1459.5
955.632	1560.5
955.86	1549.5
956.088	1565.5
956.316	1575.5
956.544	1587.5
956.772	1539.5
956.999	1472.5
957.227	1614.5
957.455	1522.5
957.683	1527.5
957.91	1475.5
958.138	1482.5
958.365	1478.5
958.593	1464.5
958.82	1460.5
959.048	1537.5
959.275	1479.5
959.502	1494.5
959.73	1437.5
959.957	1512.5
960.184	1540.5
960.411	1504.5
960.638	1556.5
960.865	1483.5
961.092	1514.5
961.319	1408.5
961.546	1480.5
961.773	1514.5
962	1438.5
962.227	1484.5
962.454	1460.5
962.68	1468.5
962.907	1475.5
963.134	1441.5
963.36	1453.5
963.587	1469.5
963.813	1446.5
964.04	1458.5
964.266	1408.5
964.493	1516.5
964.719	1473.5
964.945	1480.5
965.171	1386.5
965.398	1436.5
965.624	1457.5
965.85	1378.5
966.076	1392.5
966.302	1443.5
966.528	1377.5
966.754	1420.5
966.98	1421.5
967.206	1421.5
967.431	1351.5
967.657	1422.5
967.883	1402.5
968.109	1373.5
968.334	1343.5
968.56	1357.5
968.785	1372.5
969.011	1335.5
969.236	1390.5
969.462	1349.5
969.687	1363.5
969.912	1390.5
970.138	1439.5
970.363	1348.5
970.588	1353.5
970.813	1340.5
971.038	1319.5
971.263	1386.5
971.488	1371.5
971.713	1390.5
971.938	1355.5
972.163	1292.5
972.388	1329.5
972.613	1299.5
972.838	1324.5
973.062	1274.5
973.287	1317.5
973.512	1248.5
973.736	1319.5
973.961	1300.5
974.185	1275.5
974.41	1331.5
974.634	1216.5
974.858	1267.5
975.083	1315.5
975.307	1299.5
975.531	1262.5
975.755	1210.5
975.98	1228.5
976.204	1181.5
976.428	1167.5
976.652	1213.5
976.876	1171.5
977.1	1212.5
977.324	1178.5
977.547	1250.5
977.771	1237.5
977.995	1236.5
978.219	1179.5
978.442	1272.5
978.666	1209.5
978.89	1181.5
979.113	1210.5
979.337	1221.5
979.56	1169.5
979.783	1272.5
980.007	1131.5
980.23	1197.5
980.453	1168.5
980.677	1189.5
980.9	1195.5
981.123	1089.5
981.346	1191.5
981.569	1199.5
981.792	1223.5
982.015	1170.5
982.238	1131.5
982.461	1162.5
982.684	1147.5
982.907	1118.5
983.129	1126.5
983.352	1187.5
983.575	1144.5
983.797	1163.5
984.02	1108.5
984.242	1112.5
984.465	1119.5
984.687	1147.5
984.91	1178.5
985.132	1136.5
985.354	1162.5
985.577	1165.5
985.799	1148.5
986.021	1085.5
986.243	1096.5
986.465	1122.5
986.687	1177.5
986.909	1201.5
987.131	1136.5
987.353	1100.5
987.575	1157.5
987.797	1082.5
988.019	1054.5
988.241	1099.5
988.462	1061.5
988.684	1145.5
988.906	1169.5
989.127	1198.5
989.349	1067.5
989.57	1125.5
989.792	1145.5
990.013	1147.5
990.234	1155.5
990.456	1177.5
990.677	1194.5
990.898	1094.5
991.119	1104.5
991.341	1161.5
991.562	1091.5
991.783	1129.5
992.004	1056.5
992.225	1056.5
992.446	1121.5
992.667	1035.5
992.887	1106.5
993.108	1003.5
993.329	1130.5
993.55	1084.5
993.77	1027.5
993.991	1046.5
994.212	1096.5
994.432	1060.5
994.653	1079.5
994.873	1099.5
995.093	974.5
995.314	1067.5
995.534	1100.5
995.754	1109.5
995.975	1135.5
996.195	1035.5
996.415	1072.5
996.635	1104.5
996.855	1082.5
997.075	1042.5
997.295	1053.5
997.515	1051.5
997.735	1092.5
997.955	1067.5
998.174	1055.5
998.394	1036.5
998.614	1074.5
998.834	1028.5
999.053	1129.5
999.273	1067.5
999.492	1119.5
999.712	1078.5
999.931	1036.5
1000.151	1095.5
1000.37	1070.5
1000.589	1122.5
1000.809	1048.5
1001.028	1182.5
1001.247	1108.5
1001.466	996.5
1001.685	1159.5
1001.904	1078.5
1002.123	1078.5
1002.342	1096.5
1002.561	1064.5
1002.78	1078.5
1002.999	1155.5
1003.218	1100.5
1003.436	1069.5
1003.655	1111.5
1003.874	1081.5
1004.092	1074.5
1004.311	1136.5
1004.53	1087.5
1004.748	1157.5
1004.966	1099.5
1005.185	1152.5
1005.403	1150.5
1005.622	1116.5
1005.84	1197.5
1006.058	1100.5
1006.276	1126.5
1006.494	1627.5
1006.712	1113.5
1006.931	1181.5
1007.149	1086.5
1007.367	1105.5
1007.584	1146.5
1007.802	1166.5
1008.02	1086.5
1008.238	1203.5
1008.456	1215.5
1008.673	1078.5
1008.891	1175.5
1009.109	1115.5
1009.326	1182.5
1009.544	1269.5
1009.761	1154.5
1009.979	1268.5
1010.196	1251.5
1010.413	1334.5
1010.631	1381.5
1010.848	1406.5
1011.065	1399.5
1011.282	1364.5
1011.5	1305.5
1011.717	1411.5
1011.934	1370.5
1012.151	1393.5
1012.368	1388.5
1012.585	1339.5
1012.801	1403.5
1013.018	1344.5
1013.235	1323.5
1013.452	1342.5
1013.669	1363.5
1013.885	1345.5
1014.102	1372.5
1014.318	1349.5
1014.535	1309.5
1014.751	1351.5
1014.968	1339.5
1015.184	1376.5
1015.401	1283.5
1015.617	1326.5
1015.833	1285.5
1016.049	1284.5
1016.266	1290.5
1016.482	1298.5
1016.698	1225.5
1016.914	1294.5
1017.13	1220.5
1017.346	1235.5
1017.562	1277.5
1017.778	1224.5
1017.993	1204.5
1018.209	1282.5
1018.425	1276.5
1018.641	1220.5
1018.856	1212.5
1019.072	1218.5
1019.288	1276.5
1019.503	1238.5
1019.719	1172.5
1019.934	1160.5
1020.149	1244.5
1020.365	1185.5
1020.58	1144.5
1020.795	1182.5
1021.011	1132.5
1021.226	1111.5
1021.441	1143.5
1021.656	1046.5
1021.871	1015.5
1022.086	991.5
1022.301	997.5
1022.516	1006.5
1022.731	1060.5
1022.946	968.5
1023.16	939.5
1023.375	938.5
1023.59	914.5
1023.804	906.5
1024.019	1019.5
1024.234	865.5
1024.448	889.5
1024.663	841.5
1024.877	860.5
1025.092	866.5
1025.306	876.5
1025.52	790.5
1025.734	877.5
1025.949	811.5
1026.163	783.5
1026.377	743.5
1026.591	787.5
1026.805	693.5
1027.019	704.5
1027.233	661.5
1027.447	629.5
1027.661	737.5
1027.875	685.5
1028.088	677.5
1028.302	629.5
1028.516	621.5
1028.73	612.5
1028.943	616.5
1029.157	555.5
1029.37	546.5
1029.584	-1.5
1029.797	-3.5
1030.011	-0.5
1030.224	-3.5
