Data from QEP037381__273__11-06-06-589.txt Node

Date: Wed Dec 21 11:06:06 EST 2022
User: dcclab
Spectrometer: QEP03738
Trigger mode: 4
Integration Time (sec): 1.000000E1
Scans to average: 1
Electric dark correction enabled: true
Nonlinearity correction enabled: false
Boxcar width: 0
XAxis mode: Wavelengths
Number of Pixels in Spectrum: 1044
>>>>>Begin Spectral Data<<<<<
784.041	11.88
784.3	-0.12
784.558	1.88
784.817	-3.12
785.075	99514.88
785.334	17268.88
785.592	8078.88
785.851	5616.88
786.109	4193.88
786.368	3290.88
786.626	2650.88
786.884	2160.88
787.143	1830.88
787.401	1493.88
787.659	1350.88
787.917	1145.88
788.175	1040.88
788.433	908.88
788.691	805.88
788.949	751.88
789.207	722.88
789.465	611.88
789.723	595.88
789.98	560.88
790.238	596.88
790.496	539.88
790.753	525.88
791.011	575.88
791.268	504.88
791.526	479.88
791.783	507.88
792.041	496.88
792.298	410.88
792.556	474.88
792.813	449.88
793.07	427.88
793.327	414.88
793.584	485.88
793.841	408.88
794.099	426.88
794.356	487.88
794.613	399.88
794.869	432.88
795.126	374.88
795.383	373.88
795.64	391.88
795.897	343.88
796.153	396.88
796.41	385.88
796.667	378.88
796.923	367.88
797.18	368.88
797.436	398.88
797.693	356.88
797.949	410.88
798.206	418.88
798.462	345.88
798.718	398.88
798.974	374.88
799.231	396.88
799.487	404.88
799.743	400.88
799.999	413.88
800.255	396.88
800.511	377.88
800.767	406.88
801.023	394.88
801.279	403.88
801.534	397.88
801.79	427.88
802.046	414.88
802.302	461.88
802.557	478.88
802.813	503.88
803.068	512.88
803.324	598.88
803.579	681.88
803.835	841.88
804.09	1110.88
804.345	1334.88
804.601	1623.88
804.856	1970.88
805.111	2266.88
805.366	2459.88
805.621	2552.88
805.876	2700.88
806.131	2711.88
806.386	2720.88
806.641	2770.88
806.896	2782.88
807.151	2928.88
807.406	2891.88
807.661	2976.88
807.915	3058.88
808.17	3058.88
808.425	3106.88
808.679	3132.88
808.934	3205.88
809.188	3187.88
809.443	3290.88
809.697	3285.88
809.951	3292.88
810.206	3328.88
810.46	3436.88
810.714	3417.88
810.968	3494.88
811.223	3407.88
811.477	3494.88
811.731	3516.88
811.985	3489.88
812.239	3506.88
812.493	3531.88
812.747	3529.88
813	3504.88
813.254	3587.88
813.508	3607.88
813.762	3618.88
814.015	3622.88
814.269	3662.88
814.522	3703.88
814.776	3795.88
815.03	3777.88
815.283	3816.88
815.536	3937.88
815.79	3974.88
816.043	4021.88
816.296	4103.88
816.55	4127.88
816.803	4155.88
817.056	4291.88
817.309	4248.88
817.562	4291.88
817.815	4378.88
818.068	4376.88
818.321	4423.88
818.574	4497.88
818.827	4562.88
819.079	4574.88
819.332	4788.88
819.585	4823.88
819.838	4848.88
820.09	4861.88
820.343	4944.88
820.595	4902.88
820.848	4969.88
821.1	4957.88
821.353	4967.88
821.605	4979.88
821.857	4957.88
822.11	4923.88
822.362	4915.88
822.614	4900.88
822.866	4983.88
823.118	4952.88
823.37	5015.88
823.622	4997.88
823.874	5047.88
824.126	5157.88
824.378	5090.88
824.63	5096.88
824.882	5030.88
825.134	5072.88
825.385	5105.88
825.637	4992.88
825.888	5010.88
826.14	5001.88
826.392	4960.88
826.643	4929.88
826.895	4968.88
827.146	4932.88
827.397	4830.88
827.649	4916.88
827.9	4862.88
828.151	4870.88
828.402	4867.88
828.653	4947.88
828.905	4948.88
829.156	5009.88
829.407	4904.88
829.658	4996.88
829.909	5014.88
830.159	5012.88
830.41	5005.88
830.661	4920.88
830.912	4858.88
831.162	4902.88
831.413	4883.88
831.664	4962.88
831.914	4903.88
832.165	4907.88
832.415	4889.88
832.666	4900.88
832.916	4915.88
833.167	4891.88
833.417	4990.88
833.667	4934.88
833.917	4871.88
834.168	4919.88
834.418	4884.88
834.668	4938.88
834.918	4877.88
835.168	4899.88
835.418	4804.88
835.668	4778.88
835.918	4820.88
836.167	4801.88
836.417	4751.88
836.667	4786.88
836.917	4849.88
837.166	4792.88
837.416	4786.88
837.666	4837.88
837.915	4721.88
838.165	4707.88
838.414	4705.88
838.663	4674.88
838.913	4727.88
839.162	4667.88
839.411	4775.88
839.661	4717.88
839.91	4689.88
840.159	4720.88
840.408	4787.88
840.657	4788.88
840.906	4796.88
841.155	4851.88
841.404	4750.88
841.653	4763.88
841.902	4708.88
842.15	4776.88
842.399	4797.88
842.648	4776.88
842.897	4788.88
843.145	4707.88
843.394	4642.88
843.642	4662.88
843.891	4656.88
844.139	4633.88
844.388	4548.88
844.636	4487.88
844.884	4638.88
845.133	4549.88
845.381	4556.88
845.629	4605.88
845.877	4520.88
846.125	4598.88
846.373	4570.88
846.621	4544.88
846.869	4555.88
847.117	4515.88
847.365	4539.88
847.613	4494.88
847.861	4556.88
848.108	4531.88
848.356	4468.88
848.604	4459.88
848.851	4492.88
849.099	4531.88
849.346	4542.88
849.594	4645.88
849.841	4617.88
850.089	4634.88
850.336	4637.88
850.583	4726.88
850.831	4763.88
851.078	4745.88
851.325	4735.88
851.572	4845.88
851.819	4798.88
852.066	4533.88
852.313	4439.88
852.56	4277.88
852.807	4299.88
853.054	4253.88
853.301	4346.88
853.548	4414.88
853.794	4499.88
854.041	4453.88
854.288	4423.88
854.534	4558.88
854.781	4460.88
855.028	4416.88
855.274	4422.88
855.52	4477.88
855.767	4389.88
856.013	4399.88
856.26	4693.88
856.506	4402.88
856.752	4393.88
856.998	4418.88
857.244	4367.88
857.49	4465.88
857.736	4484.88
857.982	4451.88
858.228	4404.88
858.474	4341.88
858.72	4375.88
858.966	4311.88
859.212	4232.88
859.458	4181.88
859.703	4142.88
859.949	4082.88
860.195	4111.88
860.44	4113.88
860.686	4083.88
860.931	4159.88
861.177	4012.88
861.422	4040.88
861.667	3998.88
861.913	4013.88
862.158	4052.88
862.403	4101.88
862.648	4041.88
862.893	4142.88
863.138	4062.88
863.384	4040.88
863.629	4071.88
863.873	4033.88
864.118	4041.88
864.363	4000.88
864.608	4061.88
864.853	4049.88
865.098	3976.88
865.342	3955.88
865.587	3940.88
865.832	3988.88
866.076	3987.88
866.321	3934.88
866.565	3975.88
866.81	3864.88
867.054	3916.88
867.298	3915.88
867.543	3873.88
867.787	4006.88
868.031	3934.88
868.275	3930.88
868.519	3891.88
868.764	3916.88
869.008	3909.88
869.252	3979.88
869.496	3884.88
869.739	3932.88
869.983	3943.88
870.227	3970.88
870.471	4017.88
870.715	4024.88
870.958	4067.88
871.202	3992.88
871.446	4046.88
871.689	4000.88
871.933	4032.88
872.176	4012.88
872.42	3974.88
872.663	4002.88
872.906	4027.88
873.15	3989.88
873.393	3955.88
873.636	4050.88
873.879	3969.88
874.122	3987.88
874.366	3864.88
874.609	3866.88
874.852	3838.88
875.095	3808.88
875.337	3745.88
875.58	3691.88
875.823	3732.88
876.066	3717.88
876.309	3784.88
876.551	3728.88
876.794	3615.88
877.037	3705.88
877.279	3608.88
877.522	3686.88
877.764	3667.88
878.007	3609.88
878.249	3659.88
878.491	3641.88
878.734	3657.88
878.976	3637.88
879.218	3563.88
879.46	3601.88
879.702	3553.88
879.945	3522.88
880.187	3476.88
880.429	3430.88
880.671	3464.88
880.912	3467.88
881.154	3429.88
881.396	3361.88
881.638	3450.88
881.88	3419.88
882.121	3394.88
882.363	3452.88
882.605	3500.88
882.846	3479.88
883.088	3460.88
883.329	3393.88
883.571	3444.88
883.812	3526.88
884.053	3664.88
884.295	3791.88
884.536	3917.88
884.777	3885.88
885.018	3855.88
885.259	3846.88
885.5	3755.88
885.742	3960.88
885.982	3794.88
886.223	3675.88
886.464	3664.88
886.705	3532.88
886.946	3545.88
887.187	3416.88
887.428	3468.88
887.668	3370.88
887.909	3234.88
888.15	3184.88
888.39	3230.88
888.631	3237.88
888.871	3207.88
889.111	3192.88
889.352	3133.88
889.592	3105.88
889.833	3088.88
890.073	3074.88
890.313	3095.88
890.553	2978.88
890.793	2995.88
891.033	2958.88
891.273	2951.88
891.513	2989.88
891.753	3021.88
891.993	2983.88
892.233	3017.88
892.473	3087.88
892.713	3017.88
892.952	2989.88
893.192	3072.88
893.432	3017.88
893.671	3083.88
893.911	3015.88
894.15	2995.88
894.39	2927.88
894.629	2999.88
894.869	2993.88
895.108	2943.88
895.347	2954.88
895.587	2957.88
895.826	2947.88
896.065	2927.88
896.304	2966.88
896.543	3010.88
896.782	2944.88
897.021	2990.88
897.26	2994.88
897.499	3017.88
897.738	3058.88
897.977	2983.88
898.216	2972.88
898.454	2961.88
898.693	2882.88
898.932	2921.88
899.17	2934.88
899.409	2945.88
899.647	2932.88
899.886	2880.88
900.124	2964.88
900.363	2938.88
900.601	2963.88
900.839	2974.88
901.078	2982.88
901.316	3013.88
901.554	3058.88
901.792	3120.88
902.03	3121.88
902.268	3121.88
902.506	3168.88
902.744	3117.88
902.982	3090.88
903.22	2962.88
903.458	2923.88
903.695	2870.88
903.933	2788.88
904.171	2751.88
904.409	2664.88
904.646	2714.88
904.884	2572.88
905.121	2620.88
905.359	2575.88
905.596	2526.88
905.833	2482.88
906.071	2484.88
906.308	2487.88
906.545	2491.88
906.783	2400.88
907.02	2452.88
907.257	2378.88
907.494	2411.88
907.731	2420.88
907.968	2443.88
908.205	2385.88
908.442	2382.88
908.679	2374.88
908.915	2378.88
909.152	2317.88
909.389	2266.88
909.626	2256.88
909.862	2298.88
910.099	2274.88
910.335	2313.88
910.572	2217.88
910.808	2259.88
911.045	2216.88
911.281	2196.88
911.518	2270.88
911.754	2207.88
911.99	2211.88
912.226	2180.88
912.463	2149.88
912.699	2172.88
912.935	2149.88
913.171	2117.88
913.407	2095.88
913.643	2131.88
913.879	2102.88
914.114	2084.88
914.35	2064.88
914.586	2040.88
914.822	2013.88
915.057	2103.88
915.293	1973.88
915.529	1994.88
915.764	2045.88
916	2042.88
916.235	2046.88
916.471	2020.88
916.706	1928.88
916.941	1976.88
917.177	1979.88
917.412	2040.88
917.647	2011.88
917.882	1953.88
918.117	2044.88
918.352	2005.88
918.588	2052.88
918.823	1985.88
919.057	1975.88
919.292	1852.88
919.527	1962.88
919.762	1906.88
919.997	1947.88
920.232	1880.88
920.466	1937.88
920.701	1793.88
920.935	1831.88
921.17	1842.88
921.405	1789.88
921.639	1843.88
921.873	1819.88
922.108	1829.88
922.342	1858.88
922.576	1802.88
922.811	1785.88
923.045	1815.88
923.279	1867.88
923.513	1724.88
923.747	1835.88
923.981	1790.88
924.215	1744.88
924.449	1777.88
924.683	1711.88
924.917	1719.88
925.151	1727.88
925.385	1786.88
925.618	1773.88
925.852	1746.88
926.086	1685.88
926.319	1739.88
926.553	1737.88
926.786	1746.88
927.02	1745.88
927.253	1762.88
927.486	1790.88
927.72	1679.88
927.953	1796.88
928.186	1711.88
928.42	1745.88
928.653	1685.88
928.886	1659.88
929.119	1716.88
929.352	1699.88
929.585	1686.88
929.818	1677.88
930.051	1729.88
930.284	1694.88
930.516	1607.88
930.749	1641.88
930.982	1682.88
931.215	1674.88
931.447	1602.88
931.68	1626.88
931.912	1616.88
932.145	1601.88
932.377	1651.88
932.61	1793.88
932.842	1554.88
933.074	1624.88
933.307	1620.88
933.539	1716.88
933.771	1688.88
934.003	1634.88
934.236	1714.88
934.468	1732.88
934.7	1641.88
934.932	1693.88
935.164	1603.88
935.395	1616.88
935.627	1659.88
935.859	1617.88
936.091	1558.88
936.323	1637.88
936.554	1677.88
936.786	1625.88
937.017	1576.88
937.249	1633.88
937.481	1576.88
937.712	1623.88
937.943	1590.88
938.175	1602.88
938.406	1582.88
938.637	1641.88
938.869	1570.88
939.1	1615.88
939.331	1580.88
939.562	1592.88
939.793	1593.88
940.024	1618.88
940.255	1628.88
940.486	1588.88
940.717	1578.88
940.948	1579.88
941.179	1547.88
941.409	1568.88
941.64	1578.88
941.871	1573.88
942.102	1553.88
942.332	1543.88
942.563	1581.88
942.793	1564.88
943.024	1528.88
943.254	1569.88
943.484	1602.88
943.715	1601.88
943.945	1582.88
944.175	1518.88
944.405	1518.88
944.636	1510.88
944.866	1541.88
945.096	1597.88
945.326	1493.88
945.556	1584.88
945.786	1587.88
946.016	1543.88
946.245	1515.88
946.475	1511.88
946.705	1500.88
946.935	1515.88
947.164	1530.88
947.394	1468.88
947.624	1523.88
947.853	1507.88
948.083	1508.88
948.312	1471.88
948.542	1429.88
948.771	1401.88
949	1444.88
949.23	1470.88
949.459	1454.88
949.688	1531.88
949.917	1464.88
950.146	1462.88
950.375	1522.88
950.604	1434.88
950.833	1519.88
951.062	1543.88
951.291	1452.88
951.52	1446.88
951.749	1461.88
951.978	1414.88
952.206	1437.88
952.435	1437.88
952.664	1483.88
952.892	1469.88
953.121	1447.88
953.349	1475.88
953.578	1477.88
953.806	1405.88
954.035	1371.88
954.263	1417.88
954.491	1371.88
954.719	1437.88
954.948	1419.88
955.176	1395.88
955.404	1348.88
955.632	1389.88
955.86	1424.88
956.088	1411.88
956.316	1412.88
956.544	1450.88
956.772	1381.88
956.999	1338.88
957.227	1446.88
957.455	1362.88
957.683	1372.88
957.91	1362.88
958.138	1333.88
958.365	1370.88
958.593	1351.88
958.82	1295.88
959.048	1374.88
959.275	1347.88
959.502	1342.88
959.73	1317.88
959.957	1341.88
960.184	1412.88
960.411	1340.88
960.638	1428.88
960.865	1365.88
961.092	1370.88
961.319	1288.88
961.546	1361.88
961.773	1386.88
962	1336.88
962.227	1399.88
962.454	1354.88
962.68	1320.88
962.907	1336.88
963.134	1313.88
963.36	1316.88
963.587	1360.88
963.813	1302.88
964.04	1312.88
964.266	1280.88
964.493	1365.88
964.719	1351.88
964.945	1353.88
965.171	1262.88
965.398	1299.88
965.624	1325.88
965.85	1263.88
966.076	1272.88
966.302	1309.88
966.528	1264.88
966.754	1323.88
966.98	1320.88
967.206	1278.88
967.431	1238.88
967.657	1295.88
967.883	1286.88
968.109	1292.88
968.334	1230.88
968.56	1243.88
968.785	1258.88
969.011	1212.88
969.236	1298.88
969.462	1228.88
969.687	1227.88
969.912	1285.88
970.138	1297.88
970.363	1228.88
970.588	1260.88
970.813	1258.88
971.038	1193.88
971.263	1243.88
971.488	1273.88
971.713	1286.88
971.938	1262.88
972.163	1183.88
972.388	1195.88
972.613	1205.88
972.838	1211.88
973.062	1212.88
973.287	1208.88
973.512	1136.88
973.736	1181.88
973.961	1208.88
974.185	1170.88
974.41	1203.88
974.634	1108.88
974.858	1137.88
975.083	1165.88
975.307	1221.88
975.531	1154.88
975.755	1091.88
975.98	1124.88
976.204	1075.88
976.428	1073.88
976.652	1103.88
976.876	1076.88
977.1	1134.88
977.324	1085.88
977.547	1105.88
977.771	1136.88
977.995	1100.88
978.219	1045.88
978.442	1155.88
978.666	1131.88
978.89	1118.88
979.113	1118.88
979.337	1095.88
979.56	1075.88
979.783	1166.88
980.007	1063.88
980.23	1104.88
980.453	1062.88
980.677	1112.88
980.9	1093.88
981.123	1008.88
981.346	1095.88
981.569	1102.88
981.792	1110.88
982.015	1083.88
982.238	1060.88
982.461	1091.88
982.684	1051.88
982.907	1036.88
983.129	1028.88
983.352	1092.88
983.575	1055.88
983.797	1073.88
984.02	1053.88
984.242	1049.88
984.465	1039.88
984.687	1085.88
984.91	1102.88
985.132	1070.88
985.354	1110.88
985.577	1065.88
985.799	1062.88
986.021	964.88
986.243	1026.88
986.465	1074.88
986.687	1087.88
986.909	1118.88
987.131	1065.88
987.353	1065.88
987.575	1076.88
987.797	1015.88
988.019	980.88
988.241	1054.88
988.462	1025.88
988.684	1079.88
988.906	1078.88
989.127	1115.88
989.349	987.88
989.57	1049.88
989.792	1077.88
990.013	1094.88
990.234	1086.88
990.456	1130.88
990.677	1116.88
990.898	1027.88
991.119	1058.88
991.341	1095.88
991.562	1031.88
991.783	1071.88
992.004	991.88
992.225	991.88
992.446	1053.88
992.667	941.88
992.887	1056.88
993.108	951.88
993.329	1085.88
993.55	1050.88
993.77	986.88
993.991	995.88
994.212	1051.88
994.432	1040.88
994.653	1042.88
994.873	1034.88
995.093	921.88
995.314	971.88
995.534	1081.88
995.754	1074.88
995.975	1097.88
996.195	970.88
996.415	1036.88
996.635	1018.88
996.855	1028.88
997.075	1015.88
997.295	990.88
997.515	983.88
997.735	1047.88
997.955	1028.88
998.174	1005.88
998.394	987.88
998.614	1040.88
998.834	992.88
999.053	1075.88
999.273	1032.88
999.492	1071.88
999.712	1024.88
999.931	994.88
1000.151	1055.88
1000.37	1021.88
1000.589	1082.88
1000.809	1015.88
1001.028	1123.88
1001.247	1084.88
1001.466	968.88
1001.685	1123.88
1001.904	1065.88
1002.123	1043.88
1002.342	1072.88
1002.561	1019.88
1002.78	1029.88
1002.999	1096.88
1003.218	1050.88
1003.436	1039.88
1003.655	1071.88
1003.874	1019.88
1004.092	1052.88
1004.311	1113.88
1004.53	1079.88
1004.748	1147.88
1004.966	1066.88
1005.185	1116.88
1005.403	1119.88
1005.622	1084.88
1005.84	1170.88
1006.058	1067.88
1006.276	1096.88
1006.494	1587.88
1006.712	1080.88
1006.931	1156.88
1007.149	1088.88
1007.367	1077.88
1007.584	1112.88
1007.802	1118.88
1008.02	1114.88
1008.238	1179.88
1008.456	1197.88
1008.673	1059.88
1008.891	1176.88
1009.109	1131.88
1009.326	1157.88
1009.544	1264.88
1009.761	1167.88
1009.979	1260.88
1010.196	1257.88
1010.413	1372.88
1010.631	1389.88
1010.848	1437.88
1011.065	1452.88
1011.282	1379.88
1011.5	1337.88
1011.717	1459.88
1011.934	1410.88
1012.151	1431.88
1012.368	1429.88
1012.585	1378.88
1012.801	1419.88
1013.018	1416.88
1013.235	1369.88
1013.452	1392.88
1013.669	1408.88
1013.885	1356.88
1014.102	1418.88
1014.318	1392.88
1014.535	1353.88
1014.751	1401.88
1014.968	1396.88
1015.184	1445.88
1015.401	1349.88
1015.617	1392.88
1015.833	1343.88
1016.049	1340.88
1016.266	1339.88
1016.482	1340.88
1016.698	1307.88
1016.914	1317.88
1017.13	1287.88
1017.346	1280.88
1017.562	1341.88
1017.778	1277.88
1017.993	1293.88
1018.209	1348.88
1018.425	1336.88
1018.641	1274.88
1018.856	1263.88
1019.072	1305.88
1019.288	1345.88
1019.503	1313.88
1019.719	1219.88
1019.934	1243.88
1020.149	1300.88
1020.365	1270.88
1020.58	1189.88
1020.795	1226.88
1021.011	1208.88
1021.226	1185.88
1021.441	1205.88
1021.656	1127.88
1021.871	1071.88
1022.086	1049.88
1022.301	1052.88
1022.516	1066.88
1022.731	1096.88
1022.946	1025.88
1023.16	1011.88
1023.375	982.88
1023.59	959.88
1023.804	911.88
1024.019	1021.88
1024.234	897.88
1024.448	961.88
1024.663	879.88
1024.877	890.88
1025.092	919.88
1025.306	920.88
1025.52	825.88
1025.734	912.88
1025.949	829.88
1026.163	817.88
1026.377	756.88
1026.591	816.88
1026.805	731.88
1027.019	739.88
1027.233	706.88
1027.447	640.88
1027.661	770.88
1027.875	698.88
1028.088	702.88
1028.302	638.88
1028.516	632.88
1028.73	633.88
1028.943	637.88
1029.157	580.88
1029.37	558.88
1029.584	-4.12
1029.797	-1.12
1030.011	-2.12
1030.224	-3.12
