Data from QEP037381__314__11-12-56-591.txt Node

Date: Wed Dec 21 11:12:56 EST 2022
User: dcclab
Spectrometer: QEP03738
Trigger mode: 4
Integration Time (sec): 1.000000E1
Scans to average: 1
Electric dark correction enabled: true
Nonlinearity correction enabled: false
Boxcar width: 0
XAxis mode: Wavelengths
Number of Pixels in Spectrum: 1044
>>>>>Begin Spectral Data<<<<<
784.041	14.25
784.3	2.25
784.558	-2.75
784.817	-7.75
785.075	97293.25
785.334	16308.25
785.592	7421.25
785.851	5083.25
786.109	3811.25
786.368	2917.25
786.626	2357.25
786.884	1957.25
787.143	1658.25
787.401	1339.25
787.659	1240.25
787.917	1035.25
788.175	972.25
788.433	856.25
788.691	754.25
788.949	682.25
789.207	679.25
789.465	582.25
789.723	558.25
789.98	520.25
790.238	562.25
790.496	515.25
790.753	514.25
791.011	556.25
791.268	482.25
791.526	471.25
791.783	511.25
792.041	476.25
792.298	409.25
792.556	459.25
792.813	449.25
793.07	410.25
793.327	405.25
793.584	496.25
793.841	408.25
794.099	418.25
794.356	483.25
794.613	377.25
794.869	423.25
795.126	383.25
795.383	368.25
795.64	373.25
795.897	344.25
796.153	396.25
796.41	385.25
796.667	374.25
796.923	382.25
797.18	357.25
797.436	394.25
797.693	345.25
797.949	398.25
798.206	447.25
798.462	349.25
798.718	405.25
798.974	364.25
799.231	406.25
799.487	404.25
799.743	405.25
799.999	405.25
800.255	413.25
800.511	366.25
800.767	423.25
801.023	404.25
801.279	404.25
801.534	420.25
801.79	442.25
802.046	403.25
802.302	463.25
802.557	489.25
802.813	541.25
803.068	536.25
803.324	683.25
803.579	795.25
803.835	992.25
804.09	1336.25
804.345	1618.25
804.601	2020.25
804.856	2450.25
805.111	2803.25
805.366	3005.25
805.621	3270.25
805.876	3305.25
806.131	3342.25
806.386	3404.25
806.641	3415.25
806.896	3484.25
807.151	3605.25
807.406	3625.25
807.661	3721.25
807.915	3745.25
808.17	3846.25
808.425	3861.25
808.679	3864.25
808.934	4034.25
809.188	4005.25
809.443	4075.25
809.697	4152.25
809.951	4141.25
810.206	4202.25
810.46	4216.25
810.714	4240.25
810.968	4317.25
811.223	4265.25
811.477	4344.25
811.731	4411.25
811.985	4372.25
812.239	4366.25
812.493	4442.25
812.747	4456.25
813	4483.25
813.254	4528.25
813.508	4532.25
813.762	4568.25
814.015	4524.25
814.269	4617.25
814.522	4695.25
814.776	4731.25
815.03	4775.25
815.283	4864.25
815.536	4947.25
815.79	5022.25
816.043	5099.25
816.296	5148.25
816.55	5170.25
816.803	5269.25
817.056	5377.25
817.309	5385.25
817.562	5363.25
817.815	5577.25
818.068	5523.25
818.321	5616.25
818.574	5677.25
818.827	5837.25
819.079	5809.25
819.332	6085.25
819.585	6075.25
819.838	6214.25
820.09	6134.25
820.343	6239.25
820.595	6205.25
820.848	6290.25
821.1	6366.25
821.353	6313.25
821.605	6344.25
821.857	6388.25
822.11	6228.25
822.362	6258.25
822.614	6230.25
822.866	6297.25
823.118	6280.25
823.37	6423.25
823.622	6401.25
823.874	6440.25
824.126	6492.25
824.378	6444.25
824.63	6523.25
824.882	6511.25
825.134	6514.25
825.385	6474.25
825.637	6420.25
825.888	6412.25
826.14	6367.25
826.392	6384.25
826.643	6287.25
826.895	6401.25
827.146	6274.25
827.397	6196.25
827.649	6269.25
827.9	6256.25
828.151	6246.25
828.402	6270.25
828.653	6294.25
828.905	6353.25
829.156	6352.25
829.407	6260.25
829.658	6269.25
829.909	6363.25
830.159	6422.25
830.41	6372.25
830.661	6341.25
830.912	6260.25
831.162	6298.25
831.413	6287.25
831.664	6336.25
831.914	6359.25
832.165	6256.25
832.415	6321.25
832.666	6293.25
832.916	6349.25
833.167	6374.25
833.417	6328.25
833.667	6279.25
833.917	6281.25
834.168	6281.25
834.418	6302.25
834.668	6220.25
834.918	6255.25
835.168	6230.25
835.418	6154.25
835.668	6230.25
835.918	6225.25
836.167	6148.25
836.417	6121.25
836.667	6114.25
836.917	6197.25
837.166	6139.25
837.416	6190.25
837.666	6159.25
837.915	6084.25
838.165	6048.25
838.414	6097.25
838.663	6079.25
838.913	6079.25
839.162	6047.25
839.411	6125.25
839.661	6027.25
839.91	6064.25
840.159	6096.25
840.408	6097.25
840.657	6100.25
840.906	6123.25
841.155	6140.25
841.404	6106.25
841.653	6096.25
841.902	6055.25
842.15	6140.25
842.399	6170.25
842.648	6075.25
842.897	6135.25
843.145	6042.25
843.394	6076.25
843.642	5934.25
843.891	5988.25
844.139	5969.25
844.388	5843.25
844.636	5800.25
844.884	5807.25
845.133	5834.25
845.381	5848.25
845.629	5873.25
845.877	5844.25
846.125	5886.25
846.373	5896.25
846.621	5850.25
846.869	5816.25
847.117	5781.25
847.365	5770.25
847.613	5773.25
847.861	5803.25
848.108	5819.25
848.356	5761.25
848.604	5741.25
848.851	5804.25
849.099	5788.25
849.346	5798.25
849.594	5864.25
849.841	5938.25
850.089	5963.25
850.336	5982.25
850.583	6047.25
850.831	6047.25
851.078	6048.25
851.325	6100.25
851.572	6150.25
851.819	6048.25
852.066	5793.25
852.313	5640.25
852.56	5556.25
852.807	5486.25
853.054	5570.25
853.301	5569.25
853.548	5595.25
853.794	5745.25
854.041	5660.25
854.288	5624.25
854.534	5825.25
854.781	5737.25
855.028	5735.25
855.274	5797.25
855.52	5670.25
855.767	5556.25
856.013	5641.25
856.26	5925.25
856.506	5599.25
856.752	5655.25
856.998	5656.25
857.244	5593.25
857.49	5640.25
857.736	5699.25
857.982	5674.25
858.228	5628.25
858.474	5605.25
858.72	5595.25
858.966	5515.25
859.212	5446.25
859.458	5360.25
859.703	5389.25
859.949	5246.25
860.195	5307.25
860.44	5233.25
860.686	5253.25
860.931	5292.25
861.177	5214.25
861.422	5230.25
861.667	5166.25
861.913	5157.25
862.158	5193.25
862.403	5217.25
862.648	5249.25
862.893	5291.25
863.138	5258.25
863.384	5194.25
863.629	5192.25
863.873	5213.25
864.118	5204.25
864.363	5115.25
864.608	5202.25
864.853	5214.25
865.098	5116.25
865.342	5133.25
865.587	5109.25
865.832	5110.25
866.076	5101.25
866.321	5087.25
866.565	5046.25
866.81	5015.25
867.054	5015.25
867.298	5053.25
867.543	5031.25
867.787	5076.25
868.031	4996.25
868.275	5037.25
868.519	5047.25
868.764	4996.25
869.008	5064.25
869.252	5028.25
869.496	5015.25
869.739	5026.25
869.983	5104.25
870.227	5125.25
870.471	5043.25
870.715	5082.25
870.958	5130.25
871.202	5048.25
871.446	5115.25
871.689	5064.25
871.933	5064.25
872.176	5137.25
872.42	5086.25
872.663	5077.25
872.906	5101.25
873.15	5059.25
873.393	5037.25
873.636	5104.25
873.879	5085.25
874.122	5039.25
874.366	4900.25
874.609	4906.25
874.852	4825.25
875.095	4861.25
875.337	4786.25
875.58	4721.25
875.823	4782.25
876.066	4758.25
876.309	4809.25
876.551	4744.25
876.794	4704.25
877.037	4743.25
877.279	4650.25
877.522	4657.25
877.764	4740.25
878.007	4673.25
878.249	4678.25
878.491	4624.25
878.734	4700.25
878.976	4658.25
879.218	4599.25
879.46	4608.25
879.702	4571.25
879.945	4528.25
880.187	4449.25
880.429	4418.25
880.671	4419.25
880.912	4446.25
881.154	4427.25
881.396	4341.25
881.638	4389.25
881.88	4422.25
882.121	4402.25
882.363	4424.25
882.605	4462.25
882.846	4426.25
883.088	4457.25
883.329	4423.25
883.571	4440.25
883.812	4488.25
884.053	4600.25
884.295	4710.25
884.536	4860.25
884.777	4820.25
885.018	4818.25
885.259	4783.25
885.5	4704.25
885.742	4922.25
885.982	4718.25
886.223	4616.25
886.464	4561.25
886.705	4480.25
886.946	4516.25
887.187	4357.25
887.428	4349.25
887.668	4321.25
887.909	4170.25
888.15	4112.25
888.39	4137.25
888.631	4167.25
888.871	4080.25
889.111	4082.25
889.352	4007.25
889.592	3950.25
889.833	3959.25
890.073	3958.25
890.313	3970.25
890.553	3835.25
890.793	3885.25
891.033	3807.25
891.273	3885.25
891.513	3841.25
891.753	3899.25
891.993	3802.25
892.233	3849.25
892.473	3919.25
892.713	3876.25
892.952	3859.25
893.192	3903.25
893.432	3842.25
893.671	3956.25
893.911	3919.25
894.15	3847.25
894.39	3755.25
894.629	3834.25
894.869	3837.25
895.108	3810.25
895.347	3757.25
895.587	3785.25
895.826	3732.25
896.065	3721.25
896.304	3820.25
896.543	3774.25
896.782	3724.25
897.021	3747.25
897.26	3783.25
897.499	3875.25
897.738	3816.25
897.977	3750.25
898.216	3709.25
898.454	3726.25
898.693	3711.25
898.932	3704.25
899.17	3683.25
899.409	3678.25
899.647	3717.25
899.886	3649.25
900.124	3728.25
900.363	3670.25
900.601	3714.25
900.839	3709.25
901.078	3736.25
901.316	3781.25
901.554	3828.25
901.792	3841.25
902.03	3862.25
902.268	3851.25
902.506	3898.25
902.744	3792.25
902.982	3765.25
903.22	3660.25
903.458	3641.25
903.695	3602.25
903.933	3506.25
904.171	3427.25
904.409	3374.25
904.646	3441.25
904.884	3282.25
905.121	3333.25
905.359	3251.25
905.596	3203.25
905.833	3135.25
906.071	3170.25
906.308	3221.25
906.545	3158.25
906.783	3088.25
907.02	3126.25
907.257	3073.25
907.494	3067.25
907.731	3106.25
907.968	3102.25
908.205	3042.25
908.442	3057.25
908.679	3052.25
908.915	2993.25
909.152	2996.25
909.389	2952.25
909.626	2934.25
909.862	2910.25
910.099	2898.25
910.335	2924.25
910.572	2855.25
910.808	2886.25
911.045	2849.25
911.281	2866.25
911.518	2874.25
911.754	2795.25
911.99	2826.25
912.226	2825.25
912.463	2770.25
912.699	2804.25
912.935	2748.25
913.171	2732.25
913.407	2661.25
913.643	2728.25
913.879	2685.25
914.114	2697.25
914.35	2647.25
914.586	2651.25
914.822	2565.25
915.057	2649.25
915.293	2538.25
915.529	2497.25
915.764	2623.25
916	2625.25
916.235	2581.25
916.471	2594.25
916.706	2501.25
916.941	2535.25
917.177	2542.25
917.412	2537.25
917.647	2588.25
917.882	2515.25
918.117	2585.25
918.352	2552.25
918.588	2605.25
918.823	2495.25
919.057	2512.25
919.292	2419.25
919.527	2538.25
919.762	2402.25
919.997	2456.25
920.232	2400.25
920.466	2439.25
920.701	2271.25
920.935	2349.25
921.17	2334.25
921.405	2275.25
921.639	2354.25
921.873	2289.25
922.108	2332.25
922.342	2355.25
922.576	2259.25
922.811	2279.25
923.045	2328.25
923.279	2351.25
923.513	2224.25
923.747	2281.25
923.981	2276.25
924.215	2258.25
924.449	2276.25
924.683	2167.25
924.917	2193.25
925.151	2193.25
925.385	2266.25
925.618	2212.25
925.852	2200.25
926.086	2171.25
926.319	2194.25
926.553	2178.25
926.786	2224.25
927.02	2209.25
927.253	2233.25
927.486	2217.25
927.72	2155.25
927.953	2204.25
928.186	2188.25
928.42	2200.25
928.653	2130.25
928.886	2137.25
929.119	2187.25
929.352	2154.25
929.585	2124.25
929.818	2122.25
930.051	2114.25
930.284	2140.25
930.516	2056.25
930.749	2080.25
930.982	2140.25
931.215	2133.25
931.447	2032.25
931.68	2043.25
931.912	2075.25
932.145	2025.25
932.377	2028.25
932.61	2200.25
932.842	1986.25
933.074	2050.25
933.307	2002.25
933.539	2097.25
933.771	2121.25
934.003	2036.25
934.236	2088.25
934.468	2132.25
934.7	2038.25
934.932	2063.25
935.164	2022.25
935.395	2007.25
935.627	2081.25
935.859	2028.25
936.091	1999.25
936.323	2012.25
936.554	2070.25
936.786	2046.25
937.017	1987.25
937.249	2022.25
937.481	1940.25
937.712	2037.25
937.943	2032.25
938.175	1967.25
938.406	2002.25
938.637	2052.25
938.869	1949.25
939.1	2021.25
939.331	1980.25
939.562	2005.25
939.793	1997.25
940.024	2009.25
940.255	2038.25
940.486	1963.25
940.717	1961.25
940.948	1951.25
941.179	1893.25
941.409	1937.25
941.64	1968.25
941.871	1924.25
942.102	1930.25
942.332	1941.25
942.563	1957.25
942.793	1959.25
943.024	1926.25
943.254	1944.25
943.484	1989.25
943.715	2006.25
943.945	1957.25
944.175	1882.25
944.405	1921.25
944.636	1890.25
944.866	1933.25
945.096	1975.25
945.326	1862.25
945.556	1928.25
945.786	1979.25
946.016	1925.25
946.245	1868.25
946.475	1864.25
946.705	1861.25
946.935	1850.25
947.164	1890.25
947.394	1841.25
947.624	1857.25
947.853	1872.25
948.083	1856.25
948.312	1814.25
948.542	1790.25
948.771	1774.25
949	1808.25
949.23	1804.25
949.459	1787.25
949.688	1871.25
949.917	1805.25
950.146	1844.25
950.375	1907.25
950.604	1798.25
950.833	1867.25
951.062	1875.25
951.291	1815.25
951.52	1796.25
951.749	1818.25
951.978	1767.25
952.206	1771.25
952.435	1741.25
952.664	1810.25
952.892	1816.25
953.121	1762.25
953.349	1812.25
953.578	1806.25
953.806	1790.25
954.035	1706.25
954.263	1755.25
954.491	1718.25
954.719	1754.25
954.948	1725.25
955.176	1699.25
955.404	1668.25
955.632	1762.25
955.86	1712.25
956.088	1725.25
956.316	1719.25
956.544	1802.25
956.772	1699.25
956.999	1672.25
957.227	1761.25
957.455	1671.25
957.683	1669.25
957.91	1649.25
958.138	1648.25
958.365	1663.25
958.593	1645.25
958.82	1586.25
959.048	1676.25
959.275	1654.25
959.502	1646.25
959.73	1624.25
959.957	1648.25
960.184	1692.25
960.411	1637.25
960.638	1726.25
960.865	1638.25
961.092	1691.25
961.319	1589.25
961.546	1663.25
961.773	1667.25
962	1621.25
962.227	1696.25
962.454	1654.25
962.68	1620.25
962.907	1662.25
963.134	1589.25
963.36	1608.25
963.587	1627.25
963.813	1607.25
964.04	1638.25
964.266	1558.25
964.493	1653.25
964.719	1632.25
964.945	1630.25
965.171	1523.25
965.398	1582.25
965.624	1611.25
965.85	1511.25
966.076	1548.25
966.302	1561.25
966.528	1555.25
966.754	1591.25
966.98	1580.25
967.206	1560.25
967.431	1503.25
967.657	1565.25
967.883	1590.25
968.109	1572.25
968.334	1488.25
968.56	1505.25
968.785	1510.25
969.011	1481.25
969.236	1532.25
969.462	1474.25
969.687	1497.25
969.912	1539.25
970.138	1580.25
970.363	1467.25
970.588	1505.25
970.813	1494.25
971.038	1435.25
971.263	1515.25
971.488	1513.25
971.713	1535.25
971.938	1549.25
972.163	1392.25
972.388	1487.25
972.613	1439.25
972.838	1449.25
973.062	1434.25
973.287	1451.25
973.512	1393.25
973.736	1418.25
973.961	1424.25
974.185	1382.25
974.41	1423.25
974.634	1367.25
974.858	1406.25
975.083	1404.25
975.307	1434.25
975.531	1368.25
975.755	1308.25
975.98	1372.25
976.204	1298.25
976.428	1309.25
976.652	1308.25
976.876	1306.25
977.1	1334.25
977.324	1323.25
977.547	1343.25
977.771	1370.25
977.995	1338.25
978.219	1289.25
978.442	1413.25
978.666	1336.25
978.89	1320.25
979.113	1345.25
979.337	1313.25
979.56	1278.25
979.783	1391.25
980.007	1285.25
980.23	1311.25
980.453	1299.25
980.677	1303.25
980.9	1287.25
981.123	1219.25
981.346	1296.25
981.569	1299.25
981.792	1316.25
982.015	1273.25
982.238	1250.25
982.461	1272.25
982.684	1265.25
982.907	1218.25
983.129	1222.25
983.352	1283.25
983.575	1293.25
983.797	1302.25
984.02	1229.25
984.242	1234.25
984.465	1239.25
984.687	1279.25
984.91	1279.25
985.132	1281.25
985.354	1284.25
985.577	1245.25
985.799	1240.25
986.021	1199.25
986.243	1194.25
986.465	1228.25
986.687	1280.25
986.909	1297.25
987.131	1226.25
987.353	1203.25
987.575	1242.25
987.797	1228.25
988.019	1165.25
988.241	1232.25
988.462	1189.25
988.684	1216.25
988.906	1237.25
989.127	1305.25
989.349	1171.25
989.57	1209.25
989.792	1236.25
990.013	1275.25
990.234	1255.25
990.456	1297.25
990.677	1233.25
990.898	1215.25
991.119	1221.25
991.341	1247.25
991.562	1194.25
991.783	1226.25
992.004	1156.25
992.225	1152.25
992.446	1237.25
992.667	1139.25
992.887	1222.25
993.108	1138.25
993.329	1251.25
993.55	1180.25
993.77	1129.25
993.991	1163.25
994.212	1198.25
994.432	1192.25
994.653	1209.25
994.873	1192.25
995.093	1061.25
995.314	1121.25
995.534	1179.25
995.754	1210.25
995.975	1233.25
996.195	1124.25
996.415	1180.25
996.635	1168.25
996.855	1177.25
997.075	1150.25
997.295	1146.25
997.515	1138.25
997.735	1203.25
997.955	1141.25
998.174	1150.25
998.394	1129.25
998.614	1171.25
998.834	1124.25
999.053	1205.25
999.273	1173.25
999.492	1240.25
999.712	1185.25
999.931	1132.25
1000.151	1184.25
1000.37	1160.25
1000.589	1209.25
1000.809	1145.25
1001.028	1276.25
1001.247	1204.25
1001.466	1086.25
1001.685	1236.25
1001.904	1190.25
1002.123	1157.25
1002.342	1174.25
1002.561	1136.25
1002.78	1172.25
1002.999	1233.25
1003.218	1179.25
1003.436	1150.25
1003.655	1203.25
1003.874	1145.25
1004.092	1153.25
1004.311	1228.25
1004.53	1179.25
1004.748	1272.25
1004.966	1148.25
1005.185	1231.25
1005.403	1200.25
1005.622	1210.25
1005.84	1265.25
1006.058	1178.25
1006.276	1190.25
1006.494	1676.25
1006.712	1191.25
1006.931	1257.25
1007.149	1181.25
1007.367	1185.25
1007.584	1239.25
1007.802	1255.25
1008.02	1200.25
1008.238	1316.25
1008.456	1308.25
1008.673	1139.25
1008.891	1278.25
1009.109	1218.25
1009.326	1267.25
1009.544	1359.25
1009.761	1272.25
1009.979	1379.25
1010.196	1392.25
1010.413	1466.25
1010.631	1533.25
1010.848	1585.25
1011.065	1571.25
1011.282	1509.25
1011.5	1461.25
1011.717	1592.25
1011.934	1519.25
1012.151	1539.25
1012.368	1515.25
1012.585	1469.25
1012.801	1544.25
1013.018	1502.25
1013.235	1497.25
1013.452	1500.25
1013.669	1548.25
1013.885	1504.25
1014.102	1561.25
1014.318	1505.25
1014.535	1461.25
1014.751	1495.25
1014.968	1536.25
1015.184	1558.25
1015.401	1470.25
1015.617	1500.25
1015.833	1434.25
1016.049	1446.25
1016.266	1423.25
1016.482	1428.25
1016.698	1363.25
1016.914	1447.25
1017.13	1367.25
1017.346	1380.25
1017.562	1454.25
1017.778	1383.25
1017.993	1356.25
1018.209	1408.25
1018.425	1403.25
1018.641	1364.25
1018.856	1339.25
1019.072	1373.25
1019.288	1434.25
1019.503	1383.25
1019.719	1283.25
1019.934	1312.25
1020.149	1414.25
1020.365	1354.25
1020.58	1281.25
1020.795	1293.25
1021.011	1258.25
1021.226	1245.25
1021.441	1261.25
1021.656	1178.25
1021.871	1136.25
1022.086	1135.25
1022.301	1117.25
1022.516	1102.25
1022.731	1168.25
1022.946	1067.25
1023.16	1051.25
1023.375	1060.25
1023.59	1019.25
1023.804	989.25
1024.019	1089.25
1024.234	960.25
1024.448	975.25
1024.663	913.25
1024.877	947.25
1025.092	952.25
1025.306	980.25
1025.52	843.25
1025.734	966.25
1025.949	867.25
1026.163	853.25
1026.377	787.25
1026.591	851.25
1026.805	791.25
1027.019	767.25
1027.233	754.25
1027.447	691.25
1027.661	793.25
1027.875	719.25
1028.088	763.25
1028.302	684.25
1028.516	675.25
1028.73	678.25
1028.943	657.25
1029.157	610.25
1029.37	577.25
1029.584	2.25
1029.797	-5.75
1030.011	2.25
1030.224	-4.75
