Data from QEP037381__311__11-12-26-591.txt Node

Date: Wed Dec 21 11:12:26 EST 2022
User: dcclab
Spectrometer: QEP03738
Trigger mode: 4
Integration Time (sec): 1.000000E1
Scans to average: 1
Electric dark correction enabled: true
Nonlinearity correction enabled: false
Boxcar width: 0
XAxis mode: Wavelengths
Number of Pixels in Spectrum: 1044
>>>>>Begin Spectral Data<<<<<
784.041	17.88
784.3	-3.12
784.558	-2.12
784.817	-4.12
785.075	90301.88
785.334	16268.88
785.592	7815.88
785.851	5388.88
786.109	4062.88
786.368	3146.88
786.626	2539.88
786.884	2140.88
787.143	1767.88
787.401	1475.88
787.659	1343.88
787.917	1125.88
788.175	1037.88
788.433	901.88
788.691	803.88
788.949	758.88
789.207	712.88
789.465	620.88
789.723	589.88
789.98	539.88
790.238	578.88
790.496	532.88
790.753	519.88
791.011	567.88
791.268	491.88
791.526	487.88
791.783	494.88
792.041	494.88
792.298	426.88
792.556	468.88
792.813	453.88
793.07	428.88
793.327	403.88
793.584	481.88
793.841	414.88
794.099	428.88
794.356	484.88
794.613	392.88
794.869	424.88
795.126	398.88
795.383	377.88
795.64	396.88
795.897	348.88
796.153	410.88
796.41	379.88
796.667	378.88
796.923	385.88
797.18	371.88
797.436	402.88
797.693	366.88
797.949	414.88
798.206	426.88
798.462	346.88
798.718	398.88
798.974	369.88
799.231	413.88
799.487	395.88
799.743	391.88
799.999	418.88
800.255	399.88
800.511	381.88
800.767	424.88
801.023	397.88
801.279	422.88
801.534	428.88
801.79	439.88
802.046	416.88
802.302	504.88
802.557	485.88
802.813	546.88
803.068	581.88
803.324	728.88
803.579	852.88
803.835	1082.88
804.09	1461.88
804.345	1852.88
804.601	2324.88
804.856	2874.88
805.111	3325.88
805.366	3658.88
805.621	3855.88
805.876	3989.88
806.131	4039.88
806.386	4114.88
806.641	4177.88
806.896	4253.88
807.151	4391.88
807.406	4377.88
807.661	4515.88
807.915	4588.88
808.17	4687.88
808.425	4762.88
808.679	4767.88
808.934	4919.88
809.188	4922.88
809.443	4994.88
809.697	5065.88
809.951	5115.88
810.206	5090.88
810.46	5248.88
810.714	5263.88
810.968	5314.88
811.223	5306.88
811.477	5421.88
811.731	5464.88
811.985	5462.88
812.239	5415.88
812.493	5481.88
812.747	5566.88
813	5514.88
813.254	5611.88
813.508	5682.88
813.762	5684.88
814.015	5697.88
814.269	5789.88
814.522	5847.88
814.776	5897.88
815.03	6009.88
815.283	6079.88
815.536	6254.88
815.79	6328.88
816.043	6417.88
816.296	6473.88
816.55	6584.88
816.803	6616.88
817.056	6819.88
817.309	6799.88
817.562	6925.88
817.815	7051.88
818.068	7041.88
818.321	7149.88
818.574	7211.88
818.827	7377.88
819.079	7489.88
819.332	7770.88
819.585	7733.88
819.838	7885.88
820.09	7863.88
820.343	7988.88
820.595	7976.88
820.848	8017.88
821.1	8168.88
821.353	8073.88
821.605	7946.88
821.857	8133.88
822.11	8071.88
822.362	8144.88
822.614	7978.88
822.866	8116.88
823.118	8010.88
823.37	8171.88
823.622	8155.88
823.874	8233.88
824.126	8371.88
824.378	8253.88
824.63	8261.88
824.882	8365.88
825.134	8323.88
825.385	8341.88
825.637	8312.88
825.888	8307.88
826.14	8319.88
826.392	8163.88
826.643	8129.88
826.895	8233.88
827.146	8112.88
827.397	8027.88
827.649	8147.88
827.9	8015.88
828.151	8015.88
828.402	8107.88
828.653	8180.88
828.905	8142.88
829.156	8219.88
829.407	8095.88
829.658	8295.88
829.909	8367.88
830.159	8280.88
830.41	8246.88
830.661	8176.88
830.912	8202.88
831.162	8204.88
831.413	8168.88
831.664	8211.88
831.914	8251.88
832.165	8150.88
832.415	8216.88
832.666	8243.88
832.916	8249.88
833.167	8200.88
833.417	8231.88
833.667	8158.88
833.917	8145.88
834.168	8217.88
834.418	8252.88
834.668	8127.88
834.918	8086.88
835.168	8054.88
835.418	8029.88
835.668	8105.88
835.918	8108.88
836.167	8039.88
836.417	8041.88
836.667	8050.88
836.917	8084.88
837.166	8019.88
837.416	8009.88
837.666	8017.88
837.915	7947.88
838.165	8009.88
838.414	7911.88
838.663	7917.88
838.913	7990.88
839.162	7895.88
839.411	7953.88
839.661	7981.88
839.91	7934.88
840.159	7926.88
840.408	8001.88
840.657	8042.88
840.906	8069.88
841.155	8063.88
841.404	8028.88
841.653	8092.88
841.902	8049.88
842.15	8130.88
842.399	8157.88
842.648	8129.88
842.897	8104.88
843.145	7960.88
843.394	7894.88
843.642	7934.88
843.891	7902.88
844.139	7889.88
844.388	7759.88
844.636	7766.88
844.884	7779.88
845.133	7781.88
845.381	7776.88
845.629	7823.88
845.877	7791.88
846.125	7799.88
846.373	7832.88
846.621	7719.88
846.869	7800.88
847.117	7715.88
847.365	7648.88
847.613	7686.88
847.861	7681.88
848.108	7741.88
848.356	7716.88
848.604	7593.88
848.851	7732.88
849.099	7733.88
849.346	7721.88
849.594	7806.88
849.841	7849.88
850.089	7872.88
850.336	7890.88
850.583	7980.88
850.831	8010.88
851.078	8023.88
851.325	7959.88
851.572	8075.88
851.819	7906.88
852.066	7704.88
852.313	7419.88
852.56	7430.88
852.807	7380.88
853.054	7359.88
853.301	7430.88
853.548	7458.88
853.794	7606.88
854.041	7587.88
854.288	7548.88
854.534	7708.88
854.781	7592.88
855.028	7648.88
855.274	7673.88
855.52	7547.88
855.767	7490.88
856.013	7529.88
856.26	7890.88
856.506	7416.88
856.752	7525.88
856.998	7506.88
857.244	7505.88
857.49	7602.88
857.736	7684.88
857.982	7581.88
858.228	7558.88
858.474	7507.88
858.72	7527.88
858.966	7402.88
859.212	7367.88
859.458	7251.88
859.703	7259.88
859.949	7137.88
860.195	7059.88
860.44	7055.88
860.686	7004.88
860.931	7130.88
861.177	6939.88
861.422	6968.88
861.667	6941.88
861.913	6886.88
862.158	7000.88
862.403	7035.88
862.648	7051.88
862.893	7113.88
863.138	7107.88
863.384	7075.88
863.629	7043.88
863.873	7047.88
864.118	7034.88
864.363	6994.88
864.608	7027.88
864.853	7041.88
865.098	6945.88
865.342	6971.88
865.587	6936.88
865.832	6942.88
866.076	6938.88
866.321	6896.88
866.565	6873.88
866.81	6816.88
867.054	6905.88
867.298	6843.88
867.543	6813.88
867.787	6879.88
868.031	6872.88
868.275	6885.88
868.519	6845.88
868.764	6887.88
869.008	6882.88
869.252	6873.88
869.496	6899.88
869.739	6781.88
869.983	6915.88
870.227	6853.88
870.471	6895.88
870.715	6964.88
870.958	6956.88
871.202	6923.88
871.446	6981.88
871.689	6916.88
871.933	6959.88
872.176	6911.88
872.42	6948.88
872.663	6938.88
872.906	6940.88
873.15	6899.88
873.393	6865.88
873.636	6927.88
873.879	6841.88
874.122	6807.88
874.366	6675.88
874.609	6691.88
874.852	6658.88
875.095	6925.88
875.337	6943.88
875.58	6552.88
875.823	6500.88
876.066	6568.88
876.309	6527.88
876.551	6407.88
876.794	6416.88
877.037	6462.88
877.279	6391.88
877.522	6411.88
877.764	6475.88
878.007	6439.88
878.249	6400.88
878.491	6409.88
878.734	6432.88
878.976	6394.88
879.218	6294.88
879.46	6361.88
879.702	6346.88
879.945	6240.88
880.187	6182.88
880.429	6183.88
880.671	6140.88
880.912	6168.88
881.154	6078.88
881.396	5964.88
881.638	6139.88
881.88	6064.88
882.121	6011.88
882.363	6083.88
882.605	6109.88
882.846	6106.88
883.088	6179.88
883.329	6081.88
883.571	6083.88
883.812	6170.88
884.053	6268.88
884.295	6461.88
884.536	6576.88
884.777	6549.88
885.018	6586.88
885.259	6505.88
885.5	6491.88
885.742	6649.88
885.982	6469.88
886.223	6350.88
886.464	6309.88
886.705	6240.88
886.946	6219.88
887.187	6040.88
887.428	6066.88
887.668	5849.88
887.909	5839.88
888.15	5713.88
888.39	5759.88
888.631	5750.88
888.871	5705.88
889.111	5688.88
889.352	5601.88
889.592	5555.88
889.833	5513.88
890.073	5495.88
890.313	5516.88
890.553	5360.88
890.793	5393.88
891.033	5386.88
891.273	5370.88
891.513	5378.88
891.753	5439.88
891.993	5392.88
892.233	5372.88
892.473	5428.88
892.713	5459.88
892.952	5379.88
893.192	5393.88
893.432	5407.88
893.671	5468.88
893.911	5468.88
894.15	5409.88
894.39	5295.88
894.629	5364.88
894.869	5365.88
895.108	5305.88
895.347	5273.88
895.587	5301.88
895.826	5250.88
896.065	5226.88
896.304	5328.88
896.543	5285.88
896.782	5213.88
897.021	5286.88
897.26	5267.88
897.499	5346.88
897.738	5358.88
897.977	5271.88
898.216	5239.88
898.454	5130.88
898.693	5148.88
898.932	5236.88
899.17	5165.88
899.409	5179.88
899.647	5133.88
899.886	5124.88
900.124	5178.88
900.363	5145.88
900.601	5221.88
900.839	5217.88
901.078	5238.88
901.316	5242.88
901.554	5328.88
901.792	5433.88
902.03	5371.88
902.268	5410.88
902.506	5483.88
902.744	5387.88
902.982	5346.88
903.22	5164.88
903.458	5074.88
903.695	5011.88
903.933	4991.88
904.171	4838.88
904.409	4776.88
904.646	4775.88
904.884	4635.88
905.121	4669.88
905.359	4609.88
905.596	4536.88
905.833	4473.88
906.071	4478.88
906.308	4469.88
906.545	4434.88
906.783	4387.88
907.02	4422.88
907.257	4341.88
907.494	4380.88
907.731	4438.88
907.968	4308.88
908.205	4330.88
908.442	4310.88
908.679	4264.88
908.915	4277.88
909.152	4236.88
909.389	4146.88
909.626	4144.88
909.862	4130.88
910.099	4127.88
910.335	4112.88
910.572	4019.88
910.808	4106.88
911.045	4109.88
911.281	4033.88
911.518	4119.88
911.754	4020.88
911.99	4024.88
912.226	3999.88
912.463	3957.88
912.699	3899.88
912.935	3921.88
913.171	3912.88
913.407	3835.88
913.643	3908.88
913.879	3844.88
914.114	3794.88
914.35	3716.88
914.586	3717.88
914.822	3659.88
915.057	3768.88
915.293	3578.88
915.529	3566.88
915.764	3668.88
916	3584.88
916.235	3611.88
916.471	3666.88
916.706	3590.88
916.941	3613.88
917.177	3612.88
917.412	3657.88
917.647	3651.88
917.882	3561.88
918.117	3647.88
918.352	3577.88
918.588	3600.88
918.823	3561.88
919.057	3557.88
919.292	3447.88
919.527	3469.88
919.762	3446.88
919.997	3475.88
920.232	3396.88
920.466	3399.88
920.701	3291.88
920.935	3337.88
921.17	3276.88
921.405	3270.88
921.639	3299.88
921.873	3284.88
922.108	3282.88
922.342	3292.88
922.576	3188.88
922.811	3195.88
923.045	3282.88
923.279	3322.88
923.513	3141.88
923.747	3245.88
923.981	3226.88
924.215	3173.88
924.449	3162.88
924.683	3080.88
924.917	3110.88
925.151	3079.88
925.385	3147.88
925.618	3134.88
925.852	3143.88
926.086	3070.88
926.319	3133.88
926.553	3105.88
926.786	3076.88
927.02	3090.88
927.253	3138.88
927.486	3152.88
927.72	3105.88
927.953	3125.88
928.186	3109.88
928.42	3090.88
928.653	3055.88
928.886	3075.88
929.119	3085.88
929.352	3042.88
929.585	3086.88
929.818	3005.88
930.051	3064.88
930.284	3023.88
930.516	2971.88
930.749	2902.88
930.982	2986.88
931.215	2976.88
931.447	2892.88
931.68	2931.88
931.912	2858.88
932.145	2890.88
932.377	2915.88
932.61	3008.88
932.842	2846.88
933.074	2926.88
933.307	2874.88
933.539	2963.88
933.771	2943.88
934.003	2866.88
934.236	2985.88
934.468	2997.88
934.7	2914.88
934.932	2944.88
935.164	2893.88
935.395	2864.88
935.627	2864.88
935.859	2884.88
936.091	2864.88
936.323	2881.88
936.554	2900.88
936.786	2858.88
937.017	2808.88
937.249	2872.88
937.481	2784.88
937.712	2908.88
937.943	2840.88
938.175	2838.88
938.406	2828.88
938.637	2866.88
938.869	2829.88
939.1	2843.88
939.331	2800.88
939.562	2889.88
939.793	2872.88
940.024	2818.88
940.255	2826.88
940.486	2784.88
940.717	2813.88
940.948	2802.88
941.179	2719.88
941.409	2771.88
941.64	2774.88
941.871	2771.88
942.102	2763.88
942.332	2791.88
942.563	2776.88
942.793	2794.88
943.024	2720.88
943.254	2742.88
943.484	2808.88
943.715	2823.88
943.945	2757.88
944.175	2732.88
944.405	2695.88
944.636	2732.88
944.866	2750.88
945.096	2794.88
945.326	2705.88
945.556	2766.88
945.786	2771.88
946.016	2720.88
946.245	2690.88
946.475	2695.88
946.705	2665.88
946.935	2661.88
947.164	2669.88
947.394	2659.88
947.624	2653.88
947.853	2656.88
948.083	2634.88
948.312	2606.88
948.542	2610.88
948.771	2578.88
949	2622.88
949.23	2570.88
949.459	2633.88
949.688	2636.88
949.917	2632.88
950.146	2585.88
950.375	2684.88
950.604	2541.88
950.833	2686.88
951.062	2656.88
951.291	2608.88
951.52	2599.88
951.749	2565.88
951.978	2577.88
952.206	2569.88
952.435	2575.88
952.664	2579.88
952.892	2604.88
953.121	2544.88
953.349	2596.88
953.578	2591.88
953.806	2528.88
954.035	2490.88
954.263	2479.88
954.491	2485.88
954.719	2521.88
954.948	2501.88
955.176	2462.88
955.404	2401.88
955.632	2480.88
955.86	2473.88
956.088	2464.88
956.316	2492.88
956.544	2519.88
956.772	2437.88
956.999	2421.88
957.227	2431.88
957.455	2360.88
957.683	2418.88
957.91	2363.88
958.138	2353.88
958.365	2384.88
958.593	2348.88
958.82	2314.88
959.048	2363.88
959.275	2334.88
959.502	2331.88
959.73	2309.88
959.957	2378.88
960.184	2400.88
960.411	2305.88
960.638	2412.88
960.865	2369.88
961.092	2367.88
961.319	2311.88
961.546	2365.88
961.773	2403.88
962	2320.88
962.227	2393.88
962.454	2357.88
962.68	2330.88
962.907	2349.88
963.134	2275.88
963.36	2330.88
963.587	2308.88
963.813	2257.88
964.04	2266.88
964.266	2202.88
964.493	2305.88
964.719	2272.88
964.945	2326.88
965.171	2186.88
965.398	2227.88
965.624	2256.88
965.85	2183.88
966.076	2210.88
966.302	2228.88
966.528	2205.88
966.754	2208.88
966.98	2191.88
967.206	2190.88
967.431	2132.88
967.657	2214.88
967.883	2168.88
968.109	2199.88
968.334	2104.88
968.56	2095.88
968.785	2148.88
969.011	2105.88
969.236	2165.88
969.462	2125.88
969.687	2111.88
969.912	2157.88
970.138	2159.88
970.363	2099.88
970.588	2098.88
970.813	2103.88
971.038	2022.88
971.263	2117.88
971.488	2124.88
971.713	2141.88
971.938	2126.88
972.163	2033.88
972.388	2038.88
972.613	2033.88
972.838	2055.88
973.062	2034.88
973.287	2053.88
973.512	1954.88
973.736	2019.88
973.961	1982.88
974.185	1967.88
974.41	2030.88
974.634	1908.88
974.858	1937.88
975.083	2001.88
975.307	2004.88
975.531	1922.88
975.755	1895.88
975.98	1931.88
976.204	1853.88
976.428	1878.88
976.652	1843.88
976.876	1841.88
977.1	1873.88
977.324	1820.88
977.547	1899.88
977.771	1901.88
977.995	1858.88
978.219	1804.88
978.442	1924.88
978.666	1858.88
978.89	1839.88
979.113	1876.88
979.337	1870.88
979.56	1793.88
979.783	1896.88
980.007	1790.88
980.23	1819.88
980.453	1797.88
980.677	1823.88
980.9	1818.88
981.123	1713.88
981.346	1826.88
981.569	1804.88
981.792	1812.88
982.015	1772.88
982.238	1756.88
982.461	1756.88
982.684	1746.88
982.907	1718.88
983.129	1705.88
983.352	1725.88
983.575	1736.88
983.797	1727.88
984.02	1685.88
984.242	1698.88
984.465	1701.88
984.687	1751.88
984.91	1731.88
985.132	1723.88
985.354	1752.88
985.577	1722.88
985.799	1692.88
986.021	1621.88
986.243	1662.88
986.465	1677.88
986.687	1701.88
986.909	1771.88
987.131	1699.88
987.353	1677.88
987.575	1693.88
987.797	1680.88
988.019	1608.88
988.241	1680.88
988.462	1625.88
988.684	1703.88
988.906	1715.88
989.127	1710.88
989.349	1599.88
989.57	1630.88
989.792	1679.88
990.013	1707.88
990.234	1694.88
990.456	1688.88
990.677	1679.88
990.898	1621.88
991.119	1638.88
991.341	1672.88
991.562	1595.88
991.783	1636.88
992.004	1570.88
992.225	1569.88
992.446	1606.88
992.667	1549.88
992.887	1620.88
993.108	1526.88
993.329	1615.88
993.55	1587.88
993.77	1554.88
993.991	1556.88
994.212	1576.88
994.432	1553.88
994.653	1564.88
994.873	1563.88
995.093	1447.88
995.314	1459.88
995.534	1569.88
995.754	1565.88
995.975	1592.88
996.195	1490.88
996.415	1539.88
996.635	1547.88
996.855	1515.88
997.075	1508.88
997.295	1512.88
997.515	1507.88
997.735	1563.88
997.955	1515.88
998.174	1506.88
998.394	1510.88
998.614	1540.88
998.834	1486.88
999.053	1556.88
999.273	1537.88
999.492	1584.88
999.712	1510.88
999.931	1475.88
1000.151	1531.88
1000.37	1492.88
1000.589	1565.88
1000.809	1477.88
1001.028	1580.88
1001.247	1529.88
1001.466	1447.88
1001.685	1560.88
1001.904	1518.88
1002.123	1466.88
1002.342	1489.88
1002.561	1440.88
1002.78	1476.88
1002.999	1558.88
1003.218	1484.88
1003.436	1456.88
1003.655	1517.88
1003.874	1451.88
1004.092	1491.88
1004.311	1503.88
1004.53	1469.88
1004.748	1553.88
1004.966	1481.88
1005.185	1529.88
1005.403	1510.88
1005.622	1482.88
1005.84	1564.88
1006.058	1475.88
1006.276	1509.88
1006.494	1984.88
1006.712	1495.88
1006.931	1597.88
1007.149	1476.88
1007.367	1467.88
1007.584	1527.88
1007.802	1542.88
1008.02	1490.88
1008.238	1600.88
1008.456	1565.88
1008.673	1466.88
1008.891	1561.88
1009.109	1523.88
1009.326	1556.88
1009.544	1680.88
1009.761	1595.88
1009.979	1692.88
1010.196	1699.88
1010.413	1817.88
1010.631	1826.88
1010.848	1907.88
1011.065	1879.88
1011.282	1851.88
1011.5	1806.88
1011.717	1914.88
1011.934	1863.88
1012.151	1843.88
1012.368	1904.88
1012.585	1833.88
1012.801	1898.88
1013.018	1827.88
1013.235	1813.88
1013.452	1862.88
1013.669	1875.88
1013.885	1822.88
1014.102	1859.88
1014.318	1875.88
1014.535	1775.88
1014.751	1846.88
1014.968	1857.88
1015.184	1851.88
1015.401	1797.88
1015.617	1823.88
1015.833	1792.88
1016.049	1763.88
1016.266	1745.88
1016.482	1793.88
1016.698	1710.88
1016.914	1748.88
1017.13	1694.88
1017.346	1713.88
1017.562	1787.88
1017.778	1719.88
1017.993	1699.88
1018.209	1748.88
1018.425	1719.88
1018.641	1684.88
1018.856	1693.88
1019.072	1730.88
1019.288	1719.88
1019.503	1710.88
1019.719	1651.88
1019.934	1661.88
1020.149	1725.88
1020.365	1641.88
1020.58	1558.88
1020.795	1659.88
1021.011	1559.88
1021.226	1544.88
1021.441	1581.88
1021.656	1499.88
1021.871	1429.88
1022.086	1434.88
1022.301	1380.88
1022.516	1404.88
1022.731	1434.88
1022.946	1346.88
1023.16	1316.88
1023.375	1290.88
1023.59	1273.88
1023.804	1219.88
1024.019	1341.88
1024.234	1187.88
1024.448	1203.88
1024.663	1144.88
1024.877	1169.88
1025.092	1189.88
1025.306	1187.88
1025.52	1082.88
1025.734	1141.88
1025.949	1074.88
1026.163	1048.88
1026.377	984.88
1026.591	1032.88
1026.805	944.88
1027.019	953.88
1027.233	920.88
1027.447	848.88
1027.661	945.88
1027.875	886.88
1028.088	905.88
1028.302	828.88
1028.516	798.88
1028.73	807.88
1028.943	803.88
1029.157	739.88
1029.37	691.88
1029.584	-3.12
1029.797	-2.12
1030.011	-2.12
1030.224	-1.12
