Data from QEP037381__303__11-11-06-590.txt Node

Date: Wed Dec 21 11:11:06 EST 2022
User: dcclab
Spectrometer: QEP03738
Trigger mode: 4
Integration Time (sec): 1.000000E1
Scans to average: 1
Electric dark correction enabled: true
Nonlinearity correction enabled: false
Boxcar width: 0
XAxis mode: Wavelengths
Number of Pixels in Spectrum: 1044
>>>>>Begin Spectral Data<<<<<
784.041	11.12
784.3	2.12
784.558	-2.88
784.817	-4.88
785.075	98568.12
785.334	17035.12
785.592	7963.12
785.851	5475.12
786.109	4137.12
786.368	3210.12
786.626	2616.12
786.884	2162.12
787.143	1812.12
787.401	1512.12
787.659	1377.12
787.917	1183.12
788.175	1046.12
788.433	933.12
788.691	827.12
788.949	764.12
789.207	755.12
789.465	633.12
789.723	620.12
789.98	576.12
790.238	598.12
790.496	553.12
790.753	541.12
791.011	589.12
791.268	512.12
791.526	491.12
791.783	511.12
792.041	494.12
792.298	408.12
792.556	477.12
792.813	452.12
793.07	435.12
793.327	434.12
793.584	501.12
793.841	422.12
794.099	436.12
794.356	488.12
794.613	405.12
794.869	426.12
795.126	394.12
795.383	382.12
795.64	416.12
795.897	345.12
796.153	409.12
796.41	386.12
796.667	373.12
796.923	380.12
797.18	386.12
797.436	395.12
797.693	356.12
797.949	418.12
798.206	431.12
798.462	356.12
798.718	412.12
798.974	367.12
799.231	423.12
799.487	420.12
799.743	416.12
799.999	428.12
800.255	418.12
800.511	406.12
800.767	430.12
801.023	400.12
801.279	430.12
801.534	436.12
801.79	439.12
802.046	449.12
802.302	498.12
802.557	512.12
802.813	578.12
803.068	594.12
803.324	783.12
803.579	959.12
803.835	1204.12
804.09	1656.12
804.345	2120.12
804.601	2666.12
804.856	3216.12
805.111	3687.12
805.366	3970.12
805.621	4194.12
805.876	4301.12
806.131	4464.12
806.386	4523.12
806.641	4573.12
806.896	4674.12
807.151	4795.12
807.406	4830.12
807.661	4902.12
807.915	4984.12
808.17	5084.12
808.425	5240.12
808.679	5190.12
808.934	5349.12
809.188	5364.12
809.443	5456.12
809.697	5545.12
809.951	5564.12
810.206	5618.12
810.46	5717.12
810.714	5786.12
810.968	5836.12
811.223	5866.12
811.477	5920.12
811.731	5985.12
811.985	5976.12
812.239	6002.12
812.493	6037.12
812.747	6122.12
813	6101.12
813.254	6150.12
813.508	6262.12
813.762	6256.12
814.015	6267.12
814.269	6303.12
814.522	6413.12
814.776	6523.12
815.03	6603.12
815.283	6636.12
815.536	6734.12
815.79	6910.12
816.043	7010.12
816.296	7130.12
816.55	7125.12
816.803	7262.12
817.056	7452.12
817.309	7547.12
817.562	7543.12
817.815	7698.12
818.068	7733.12
818.321	7825.12
818.574	7920.12
818.827	8087.12
819.079	8188.12
819.332	8441.12
819.585	8555.12
819.838	8675.12
820.09	8605.12
820.343	8809.12
820.595	8770.12
820.848	8824.12
821.1	8975.12
821.353	8942.12
821.605	8894.12
821.857	8963.12
822.11	8856.12
822.362	8853.12
822.614	8858.12
822.866	8958.12
823.118	8869.12
823.37	8999.12
823.622	9013.12
823.874	9104.12
824.126	9172.12
824.378	9044.12
824.63	9147.12
824.882	9220.12
825.134	9171.12
825.385	9171.12
825.637	9169.12
825.888	9104.12
826.14	9088.12
826.392	9066.12
826.643	8981.12
826.895	9001.12
827.146	8985.12
827.397	8839.12
827.649	9018.12
827.9	8891.12
828.151	8862.12
828.402	8970.12
828.653	8942.12
828.905	9021.12
829.156	9116.12
829.407	9029.12
829.658	9019.12
829.909	9100.12
830.159	9136.12
830.41	9078.12
830.661	9132.12
830.912	9026.12
831.162	9025.12
831.413	8963.12
831.664	9005.12
831.914	9028.12
832.165	9009.12
832.415	8988.12
832.666	9034.12
832.916	9073.12
833.167	9016.12
833.417	9096.12
833.667	9045.12
833.917	8954.12
834.168	8993.12
834.418	8975.12
834.668	9001.12
834.918	8989.12
835.168	8968.12
835.418	8910.12
835.668	8939.12
835.918	8833.12
836.167	8898.12
836.417	8862.12
836.667	8902.12
836.917	8890.12
837.166	8805.12
837.416	8895.12
837.666	8810.12
837.915	8804.12
838.165	8784.12
838.414	8791.12
838.663	8707.12
838.913	8818.12
839.162	8737.12
839.411	8891.12
839.661	8774.12
839.91	8821.12
840.159	8846.12
840.408	8783.12
840.657	8921.12
840.906	8879.12
841.155	8923.12
841.404	8860.12
841.653	8837.12
841.902	8876.12
842.15	8913.12
842.399	8903.12
842.648	8972.12
842.897	8892.12
843.145	8766.12
843.394	8741.12
843.642	8785.12
843.891	8706.12
844.139	8611.12
844.388	8544.12
844.636	8529.12
844.884	8636.12
845.133	8533.12
845.381	8581.12
845.629	8536.12
845.877	8575.12
846.125	8539.12
846.373	8624.12
846.621	8595.12
846.869	8582.12
847.117	8549.12
847.365	8469.12
847.613	8426.12
847.861	8430.12
848.108	8486.12
848.356	8486.12
848.604	8482.12
848.851	8463.12
849.099	8492.12
849.346	8556.12
849.594	8636.12
849.841	8716.12
850.089	8700.12
850.336	8769.12
850.583	8889.12
850.831	8891.12
851.078	8842.12
851.325	8776.12
851.572	8867.12
851.819	8695.12
852.066	8459.12
852.313	8276.12
852.56	8220.12
852.807	8200.12
853.054	8134.12
853.301	8173.12
853.548	8186.12
853.794	8333.12
854.041	8307.12
854.288	8329.12
854.534	8563.12
854.781	8456.12
855.028	8381.12
855.274	8365.12
855.52	8402.12
855.767	8366.12
856.013	8422.12
856.26	8674.12
856.506	8299.12
856.752	8309.12
856.998	8342.12
857.244	8294.12
857.49	8380.12
857.736	8462.12
857.982	8448.12
858.228	8368.12
858.474	8298.12
858.72	8247.12
858.966	8239.12
859.212	8097.12
859.458	8076.12
859.703	8029.12
859.949	7859.12
860.195	7837.12
860.44	7894.12
860.686	7763.12
860.931	7888.12
861.177	7755.12
861.422	7742.12
861.667	7659.12
861.913	7686.12
862.158	7733.12
862.403	7784.12
862.648	7804.12
862.893	7840.12
863.138	7847.12
863.384	7779.12
863.629	7800.12
863.873	7803.12
864.118	7740.12
864.363	7729.12
864.608	7782.12
864.853	7747.12
865.098	7662.12
865.342	7639.12
865.587	7633.12
865.832	7690.12
866.076	7583.12
866.321	7585.12
866.565	7594.12
866.81	7518.12
867.054	7570.12
867.298	7564.12
867.543	7535.12
867.787	7583.12
868.031	7573.12
868.275	7559.12
868.519	7521.12
868.764	7563.12
869.008	7576.12
869.252	7621.12
869.496	7549.12
869.739	7525.12
869.983	7578.12
870.227	7640.12
870.471	7549.12
870.715	7643.12
870.958	7688.12
871.202	7703.12
871.446	7689.12
871.689	7684.12
871.933	7656.12
872.176	7651.12
872.42	7600.12
872.663	7682.12
872.906	7742.12
873.15	7735.12
873.393	7578.12
873.636	7714.12
873.879	7594.12
874.122	7546.12
874.366	7430.12
874.609	7360.12
874.852	7303.12
875.095	7285.12
875.337	7318.12
875.58	7120.12
875.823	7166.12
876.066	7211.12
876.309	7164.12
876.551	7092.12
876.794	7073.12
877.037	7122.12
877.279	7080.12
877.522	7031.12
877.764	7125.12
878.007	7022.12
878.249	7042.12
878.491	7050.12
878.734	7142.12
878.976	7068.12
879.218	6994.12
879.46	7074.12
879.702	6960.12
879.945	6900.12
880.187	6788.12
880.429	6807.12
880.671	6720.12
880.912	6726.12
881.154	6774.12
881.396	6589.12
881.638	6767.12
881.88	6695.12
882.121	6747.12
882.363	6683.12
882.605	6747.12
882.846	6745.12
883.088	6724.12
883.329	6714.12
883.571	6719.12
883.812	6856.12
884.053	6978.12
884.295	7176.12
884.536	7369.12
884.777	7325.12
885.018	7256.12
885.259	7229.12
885.5	7147.12
885.742	7340.12
885.982	7146.12
886.223	7073.12
886.464	7033.12
886.705	6859.12
886.946	6833.12
887.187	6703.12
887.428	6623.12
887.668	6479.12
887.909	6405.12
888.15	6384.12
888.39	6286.12
888.631	6390.12
888.871	6265.12
889.111	6216.12
889.352	6229.12
889.592	6157.12
889.833	6095.12
890.073	6059.12
890.313	6048.12
890.553	5937.12
890.793	5929.12
891.033	5892.12
891.273	5905.12
891.513	5845.12
891.753	5931.12
891.993	5832.12
892.233	5923.12
892.473	5986.12
892.713	6018.12
892.952	5903.12
893.192	5951.12
893.432	5962.12
893.671	6044.12
893.911	5967.12
894.15	5957.12
894.39	5846.12
894.629	5890.12
894.869	5901.12
895.108	5845.12
895.347	5798.12
895.587	5830.12
895.826	5773.12
896.065	5699.12
896.304	5780.12
896.543	5765.12
896.782	5697.12
897.021	5791.12
897.26	5784.12
897.499	5859.12
897.738	5901.12
897.977	5765.12
898.216	5711.12
898.454	5669.12
898.693	5657.12
898.932	5651.12
899.17	5632.12
899.409	5590.12
899.647	5650.12
899.886	5657.12
900.124	5653.12
900.363	5678.12
900.601	5705.12
900.839	5746.12
901.078	5739.12
901.316	5784.12
901.554	5812.12
901.792	5837.12
902.03	5841.12
902.268	5936.12
902.506	5950.12
902.744	5836.12
902.982	5853.12
903.22	5658.12
903.458	5587.12
903.695	5541.12
903.933	5444.12
904.171	5316.12
904.409	5219.12
904.646	5217.12
904.884	5067.12
905.121	5095.12
905.359	4969.12
905.596	5000.12
905.833	4889.12
906.071	4881.12
906.308	4917.12
906.545	4842.12
906.783	4862.12
907.02	4828.12
907.257	4774.12
907.494	4796.12
907.731	4838.12
907.968	4801.12
908.205	4692.12
908.442	4732.12
908.679	4693.12
908.915	4670.12
909.152	4693.12
909.389	4559.12
909.626	4542.12
909.862	4535.12
910.099	4490.12
910.335	4519.12
910.572	4397.12
910.808	4455.12
911.045	4429.12
911.281	4396.12
911.518	4439.12
911.754	4421.12
911.99	4387.12
912.226	4306.12
912.463	4309.12
912.699	4318.12
912.935	4258.12
913.171	4191.12
913.407	4180.12
913.643	4231.12
913.879	4149.12
914.114	4142.12
914.35	4109.12
914.586	4059.12
914.822	4008.12
915.057	4029.12
915.293	3950.12
915.529	3930.12
915.764	4023.12
916	4021.12
916.235	3920.12
916.471	4009.12
916.706	3874.12
916.941	3941.12
917.177	3972.12
917.412	3974.12
917.647	3972.12
917.882	3918.12
918.117	3989.12
918.352	3957.12
918.588	3970.12
918.823	3910.12
919.057	3884.12
919.292	3779.12
919.527	3842.12
919.762	3742.12
919.997	3780.12
920.232	3740.12
920.466	3739.12
920.701	3607.12
920.935	3635.12
921.17	3596.12
921.405	3601.12
921.639	3670.12
921.873	3605.12
922.108	3574.12
922.342	3592.12
922.576	3553.12
922.811	3568.12
923.045	3589.12
923.279	3622.12
923.513	3470.12
923.747	3553.12
923.981	3520.12
924.215	3471.12
924.449	3458.12
924.683	3423.12
924.917	3374.12
925.151	3399.12
925.385	3439.12
925.618	3393.12
925.852	3419.12
926.086	3348.12
926.319	3386.12
926.553	3392.12
926.786	3426.12
927.02	3345.12
927.253	3405.12
927.486	3446.12
927.72	3352.12
927.953	3443.12
928.186	3371.12
928.42	3413.12
928.653	3359.12
928.886	3300.12
929.119	3351.12
929.352	3323.12
929.585	3324.12
929.818	3271.12
930.051	3261.12
930.284	3270.12
930.516	3179.12
930.749	3198.12
930.982	3222.12
931.215	3216.12
931.447	3131.12
931.68	3128.12
931.912	3129.12
932.145	3167.12
932.377	3200.12
932.61	3261.12
932.842	3137.12
933.074	3168.12
933.307	3130.12
933.539	3202.12
933.771	3216.12
934.003	3162.12
934.236	3264.12
934.468	3258.12
934.7	3160.12
934.932	3249.12
935.164	3127.12
935.395	3101.12
935.627	3178.12
935.859	3150.12
936.091	3134.12
936.323	3156.12
936.554	3172.12
936.786	3131.12
937.017	3096.12
937.249	3166.12
937.481	3026.12
937.712	3135.12
937.943	3053.12
938.175	3107.12
938.406	3046.12
938.637	3127.12
938.869	3067.12
939.1	3045.12
939.331	3038.12
939.562	3097.12
939.793	3080.12
940.024	3080.12
940.255	3077.12
940.486	3037.12
940.717	3029.12
940.948	3028.12
941.179	2965.12
941.409	3000.12
941.64	2992.12
941.871	3020.12
942.102	2992.12
942.332	3013.12
942.563	3025.12
942.793	3012.12
943.024	2965.12
943.254	3020.12
943.484	3050.12
943.715	3085.12
943.945	3045.12
944.175	2965.12
944.405	2944.12
944.636	2956.12
944.866	3002.12
945.096	2989.12
945.326	2912.12
945.556	3013.12
945.786	3002.12
946.016	2979.12
946.245	2941.12
946.475	2919.12
946.705	2918.12
946.935	2894.12
947.164	2896.12
947.394	2855.12
947.624	2834.12
947.853	2918.12
948.083	2865.12
948.312	2813.12
948.542	2766.12
948.771	2746.12
949	2815.12
949.23	2789.12
949.459	2797.12
949.688	2866.12
949.917	2838.12
950.146	2828.12
950.375	2899.12
950.604	2755.12
950.833	2874.12
951.062	2865.12
951.291	2824.12
951.52	2791.12
951.749	2795.12
951.978	2764.12
952.206	2751.12
952.435	2722.12
952.664	2795.12
952.892	2794.12
953.121	2764.12
953.349	2771.12
953.578	2737.12
953.806	2734.12
954.035	2675.12
954.263	2741.12
954.491	2661.12
954.719	2718.12
954.948	2649.12
955.176	2656.12
955.404	2607.12
955.632	2717.12
955.86	2660.12
956.088	2654.12
956.316	2632.12
956.544	2665.12
956.772	2639.12
956.999	2595.12
957.227	2678.12
957.455	2575.12
957.683	2599.12
957.91	2566.12
958.138	2557.12
958.365	2537.12
958.593	2525.12
958.82	2500.12
959.048	2560.12
959.275	2535.12
959.502	2538.12
959.73	2522.12
959.957	2539.12
960.184	2543.12
960.411	2547.12
960.638	2587.12
960.865	2498.12
961.092	2567.12
961.319	2463.12
961.546	2548.12
961.773	2556.12
962	2534.12
962.227	2549.12
962.454	2496.12
962.68	2490.12
962.907	2504.12
963.134	2426.12
963.36	2461.12
963.587	2507.12
963.813	2406.12
964.04	2419.12
964.266	2398.12
964.493	2488.12
964.719	2450.12
964.945	2460.12
965.171	2339.12
965.398	2403.12
965.624	2455.12
965.85	2364.12
966.076	2360.12
966.302	2363.12
966.528	2336.12
966.754	2383.12
966.98	2339.12
967.206	2371.12
967.431	2304.12
967.657	2353.12
967.883	2360.12
968.109	2351.12
968.334	2292.12
968.56	2249.12
968.785	2296.12
969.011	2235.12
969.236	2320.12
969.462	2243.12
969.687	2300.12
969.912	2311.12
970.138	2268.12
970.363	2246.12
970.588	2278.12
970.813	2219.12
971.038	2235.12
971.263	2252.12
971.488	2232.12
971.713	2269.12
971.938	2288.12
972.163	2178.12
972.388	2207.12
972.613	2176.12
972.838	2191.12
973.062	2210.12
973.287	2188.12
973.512	2097.12
973.736	2189.12
973.961	2168.12
974.185	2111.12
974.41	2152.12
974.634	2065.12
974.858	2098.12
975.083	2107.12
975.307	2132.12
975.531	2042.12
975.755	2014.12
975.98	2025.12
976.204	1978.12
976.428	2003.12
976.652	2002.12
976.876	1968.12
977.1	1994.12
977.324	1955.12
977.547	2017.12
977.771	2005.12
977.995	1983.12
978.219	1937.12
978.442	2030.12
978.666	1999.12
978.89	2002.12
979.113	1982.12
979.337	1958.12
979.56	1930.12
979.783	2018.12
980.007	1921.12
980.23	1987.12
980.453	1900.12
980.677	1977.12
980.9	1923.12
981.123	1837.12
981.346	1967.12
981.569	1920.12
981.792	1941.12
982.015	1919.12
982.238	1874.12
982.461	1890.12
982.684	1845.12
982.907	1843.12
983.129	1840.12
983.352	1876.12
983.575	1867.12
983.797	1830.12
984.02	1823.12
984.242	1810.12
984.465	1862.12
984.687	1836.12
984.91	1881.12
985.132	1856.12
985.354	1836.12
985.577	1843.12
985.799	1816.12
986.021	1758.12
986.243	1774.12
986.465	1786.12
986.687	1833.12
986.909	1907.12
987.131	1803.12
987.353	1753.12
987.575	1766.12
987.797	1783.12
988.019	1683.12
988.241	1771.12
988.462	1737.12
988.684	1800.12
988.906	1817.12
989.127	1835.12
989.349	1693.12
989.57	1770.12
989.792	1785.12
990.013	1801.12
990.234	1810.12
990.456	1830.12
990.677	1812.12
990.898	1755.12
991.119	1738.12
991.341	1806.12
991.562	1726.12
991.783	1765.12
992.004	1671.12
992.225	1649.12
992.446	1707.12
992.667	1621.12
992.887	1731.12
993.108	1625.12
993.329	1733.12
993.55	1683.12
993.77	1647.12
993.991	1619.12
994.212	1650.12
994.432	1671.12
994.653	1650.12
994.873	1664.12
995.093	1566.12
995.314	1575.12
995.534	1646.12
995.754	1687.12
995.975	1691.12
996.195	1579.12
996.415	1652.12
996.635	1593.12
996.855	1626.12
997.075	1593.12
997.295	1594.12
997.515	1572.12
997.735	1631.12
997.955	1624.12
998.174	1622.12
998.394	1598.12
998.614	1618.12
998.834	1593.12
999.053	1662.12
999.273	1616.12
999.492	1675.12
999.712	1597.12
999.931	1550.12
1000.151	1593.12
1000.37	1594.12
1000.589	1627.12
1000.809	1560.12
1001.028	1655.12
1001.247	1610.12
1001.466	1488.12
1001.685	1644.12
1001.904	1566.12
1002.123	1537.12
1002.342	1576.12
1002.561	1526.12
1002.78	1577.12
1002.999	1641.12
1003.218	1549.12
1003.436	1538.12
1003.655	1582.12
1003.874	1519.12
1004.092	1563.12
1004.311	1593.12
1004.53	1573.12
1004.748	1609.12
1004.966	1536.12
1005.185	1589.12
1005.403	1592.12
1005.622	1554.12
1005.84	1651.12
1006.058	1564.12
1006.276	1581.12
1006.494	2051.12
1006.712	1578.12
1006.931	1637.12
1007.149	1547.12
1007.367	1557.12
1007.584	1617.12
1007.802	1615.12
1008.02	1584.12
1008.238	1702.12
1008.456	1690.12
1008.673	1569.12
1008.891	1668.12
1009.109	1649.12
1009.326	1718.12
1009.544	1809.12
1009.761	1706.12
1009.979	1832.12
1010.196	1854.12
1010.413	1957.12
1010.631	2019.12
1010.848	2097.12
1011.065	2101.12
1011.282	2054.12
1011.5	2026.12
1011.717	2116.12
1011.934	2047.12
1012.151	2089.12
1012.368	2057.12
1012.585	2011.12
1012.801	2068.12
1013.018	2063.12
1013.235	2026.12
1013.452	2023.12
1013.669	2076.12
1013.885	2028.12
1014.102	2090.12
1014.318	2069.12
1014.535	2037.12
1014.751	2053.12
1014.968	2057.12
1015.184	2072.12
1015.401	1992.12
1015.617	2008.12
1015.833	1954.12
1016.049	1986.12
1016.266	1949.12
1016.482	1940.12
1016.698	1884.12
1016.914	1900.12
1017.13	1869.12
1017.346	1860.12
1017.562	1958.12
1017.778	1847.12
1017.993	1843.12
1018.209	1882.12
1018.425	1860.12
1018.641	1817.12
1018.856	1813.12
1019.072	1837.12
1019.288	1873.12
1019.503	1843.12
1019.719	1767.12
1019.934	1788.12
1020.149	1849.12
1020.365	1794.12
1020.58	1723.12
1020.795	1758.12
1021.011	1673.12
1021.226	1668.12
1021.441	1680.12
1021.656	1584.12
1021.871	1507.12
1022.086	1492.12
1022.301	1528.12
1022.516	1462.12
1022.731	1515.12
1022.946	1441.12
1023.16	1418.12
1023.375	1362.12
1023.59	1351.12
1023.804	1307.12
1024.019	1402.12
1024.234	1273.12
1024.448	1291.12
1024.663	1198.12
1024.877	1213.12
1025.092	1241.12
1025.306	1217.12
1025.52	1117.12
1025.734	1207.12
1025.949	1112.12
1026.163	1075.12
1026.377	1017.12
1026.591	1054.12
1026.805	989.12
1027.019	987.12
1027.233	956.12
1027.447	909.12
1027.661	1007.12
1027.875	940.12
1028.088	942.12
1028.302	869.12
1028.516	861.12
1028.73	848.12
1028.943	825.12
1029.157	770.12
1029.37	721.12
1029.584	-1.88
1029.797	0.12
1030.011	-0.88
1030.224	-2.88
