Data from QEP037381__243__11-01-06-587.txt Node

Date: Wed Dec 21 11:01:06 EST 2022
User: dcclab
Spectrometer: QEP03738
Trigger mode: 4
Integration Time (sec): 1.000000E1
Scans to average: 1
Electric dark correction enabled: true
Nonlinearity correction enabled: false
Boxcar width: 0
XAxis mode: Wavelengths
Number of Pixels in Spectrum: 1044
>>>>>Begin Spectral Data<<<<<
784.041	12.88
784.3	2.88
784.558	-1.12
784.817	-4.12
785.075	91936.88
785.334	15602.88
785.592	7252.88
785.851	4973.88
786.109	3820.88
786.368	2961.88
786.626	2366.88
786.884	2014.88
787.143	1679.88
787.401	1391.88
787.659	1274.88
787.917	1063.88
788.175	996.88
788.433	868.88
788.691	797.88
788.949	698.88
789.207	693.88
789.465	611.88
789.723	571.88
789.98	521.88
790.238	557.88
790.496	530.88
790.753	505.88
791.011	533.88
791.268	487.88
791.526	480.88
791.783	487.88
792.041	464.88
792.298	383.88
792.556	450.88
792.813	441.88
793.07	412.88
793.327	406.88
793.584	485.88
793.841	394.88
794.099	422.88
794.356	479.88
794.613	390.88
794.869	417.88
795.126	387.88
795.383	359.88
795.64	379.88
795.897	338.88
796.153	401.88
796.41	367.88
796.667	354.88
796.923	354.88
797.18	362.88
797.436	393.88
797.693	357.88
797.949	395.88
798.206	436.88
798.462	329.88
798.718	396.88
798.974	387.88
799.231	411.88
799.487	389.88
799.743	392.88
799.999	411.88
800.255	393.88
800.511	376.88
800.767	403.88
801.023	384.88
801.279	393.88
801.534	407.88
801.79	417.88
802.046	422.88
802.302	468.88
802.557	482.88
802.813	522.88
803.068	534.88
803.324	675.88
803.579	759.88
803.835	940.88
804.09	1258.88
804.345	1530.88
804.601	1886.88
804.856	2246.88
805.111	2588.88
805.366	2801.88
805.621	2953.88
805.876	3077.88
806.131	3143.88
806.386	3145.88
806.641	3189.88
806.896	3298.88
807.151	3400.88
807.406	3382.88
807.661	3446.88
807.915	3511.88
808.17	3572.88
808.425	3614.88
808.679	3605.88
808.934	3718.88
809.188	3668.88
809.443	3754.88
809.697	3805.88
809.951	3782.88
810.206	3787.88
810.46	3866.88
810.714	3934.88
810.968	4007.88
811.223	3936.88
811.477	3994.88
811.731	3994.88
811.985	4020.88
812.239	3993.88
812.493	4061.88
812.747	4161.88
813	4045.88
813.254	4133.88
813.508	4193.88
813.762	4177.88
814.015	4166.88
814.269	4235.88
814.522	4299.88
814.776	4351.88
815.03	4351.88
815.283	4409.88
815.536	4490.88
815.79	4591.88
816.043	4616.88
816.296	4698.88
816.55	4752.88
816.803	4795.88
817.056	4920.88
817.309	4898.88
817.562	4898.88
817.815	5063.88
818.068	4988.88
818.321	5038.88
818.574	5108.88
818.827	5242.88
819.079	5240.88
819.332	5440.88
819.585	5472.88
819.838	5599.88
820.09	5509.88
820.343	5609.88
820.595	5635.88
820.848	5653.88
821.1	5627.88
821.353	5657.88
821.605	5659.88
821.857	5728.88
822.11	5591.88
822.362	5577.88
822.614	5584.88
822.866	5666.88
823.118	5631.88
823.37	5778.88
823.622	5714.88
823.874	5734.88
824.126	5807.88
824.378	5745.88
824.63	5766.88
824.882	5827.88
825.134	5784.88
825.385	5757.88
825.637	5751.88
825.888	5704.88
826.14	5688.88
826.392	5667.88
826.643	5611.88
826.895	5646.88
827.146	5616.88
827.397	5523.88
827.649	5637.88
827.9	5509.88
828.151	5563.88
828.402	5544.88
828.653	5603.88
828.905	5615.88
829.156	5641.88
829.407	5595.88
829.658	5610.88
829.909	5671.88
830.159	5628.88
830.41	5608.88
830.661	5594.88
830.912	5532.88
831.162	5549.88
831.413	5518.88
831.664	5550.88
831.914	5535.88
832.165	5540.88
832.415	5529.88
832.666	5539.88
832.916	5552.88
833.167	5518.88
833.417	5622.88
833.667	5493.88
833.917	5511.88
834.168	5537.88
834.418	5478.88
834.668	5479.88
834.918	5506.88
835.168	5435.88
835.418	5411.88
835.668	5506.88
835.918	5406.88
836.167	5454.88
836.417	5374.88
836.667	5435.88
836.917	5468.88
837.166	5310.88
837.416	5435.88
837.666	5383.88
837.915	5327.88
838.165	5324.88
838.414	5315.88
838.663	5243.88
838.913	5297.88
839.162	5224.88
839.411	5299.88
839.661	5260.88
839.91	5236.88
840.159	5249.88
840.408	5279.88
840.657	5295.88
840.906	5293.88
841.155	5280.88
841.404	5273.88
841.653	5306.88
841.902	5207.88
842.15	5318.88
842.399	5272.88
842.648	5270.88
842.897	5285.88
843.145	5179.88
843.394	5149.88
843.642	5198.88
843.891	5177.88
844.139	5108.88
844.388	5032.88
844.636	5003.88
844.884	5035.88
845.133	5041.88
845.381	5056.88
845.629	5016.88
845.877	5040.88
846.125	5024.88
846.373	5074.88
846.621	5011.88
846.869	5017.88
847.117	4968.88
847.365	4940.88
847.613	4956.88
847.861	4928.88
848.108	4933.88
848.356	4937.88
848.604	4912.88
848.851	4933.88
849.099	4931.88
849.346	4940.88
849.594	5048.88
849.841	5044.88
850.089	5082.88
850.336	5068.88
850.583	5098.88
850.831	5090.88
851.078	5134.88
851.325	5198.88
851.572	5269.88
851.819	5115.88
852.066	4941.88
852.313	4801.88
852.56	4757.88
852.807	4694.88
853.054	4724.88
853.301	4679.88
853.548	4770.88
853.794	4872.88
854.041	4817.88
854.288	4763.88
854.534	4970.88
854.781	4865.88
855.028	4802.88
855.274	4851.88
855.52	4752.88
855.767	4756.88
856.013	4787.88
856.26	5093.88
856.506	4682.88
856.752	4759.88
856.998	4743.88
857.244	4701.88
857.49	4784.88
857.736	4804.88
857.982	4746.88
858.228	4765.88
858.474	4689.88
858.72	4697.88
858.966	4653.88
859.212	4623.88
859.458	4538.88
859.703	4545.88
859.949	4437.88
860.195	4459.88
860.44	4416.88
860.686	4375.88
860.931	4428.88
861.177	4360.88
861.422	4384.88
861.667	4317.88
861.913	4379.88
862.158	4396.88
862.403	4452.88
862.648	4419.88
862.893	4411.88
863.138	4403.88
863.384	4343.88
863.629	4444.88
863.873	4386.88
864.118	4354.88
864.363	4319.88
864.608	4415.88
864.853	4365.88
865.098	4322.88
865.342	4358.88
865.587	4273.88
865.832	4320.88
866.076	4273.88
866.321	4222.88
866.565	4237.88
866.81	4192.88
867.054	4208.88
867.298	4198.88
867.543	4165.88
867.787	4246.88
868.031	4186.88
868.275	4205.88
868.519	4177.88
868.764	4201.88
869.008	4131.88
869.252	4242.88
869.496	4188.88
869.739	4171.88
869.983	4228.88
870.227	4195.88
870.471	4161.88
870.715	4196.88
870.958	4252.88
871.202	4176.88
871.446	4171.88
871.689	4217.88
871.933	4207.88
872.176	4224.88
872.42	4160.88
872.663	4176.88
872.906	4218.88
873.15	4169.88
873.393	4097.88
873.636	4255.88
873.879	4104.88
874.122	4117.88
874.366	4022.88
874.609	4043.88
874.852	3969.88
875.095	3962.88
875.337	3920.88
875.58	3873.88
875.823	3926.88
876.066	3970.88
876.309	3963.88
876.551	3869.88
876.794	3830.88
877.037	3907.88
877.279	3800.88
877.522	3856.88
877.764	3853.88
878.007	3853.88
878.249	3864.88
878.491	3822.88
878.734	3817.88
878.976	3826.88
879.218	3764.88
879.46	3800.88
879.702	3779.88
879.945	3727.88
880.187	3676.88
880.429	3684.88
880.671	3686.88
880.912	3638.88
881.154	3620.88
881.396	3554.88
881.638	3608.88
881.88	3614.88
882.121	3568.88
882.363	3575.88
882.605	3632.88
882.846	3609.88
883.088	3618.88
883.329	3593.88
883.571	3574.88
883.812	3648.88
884.053	3697.88
884.295	3740.88
884.536	3863.88
884.777	3862.88
885.018	3857.88
885.259	3834.88
885.5	3751.88
885.742	3964.88
885.982	3764.88
886.223	3668.88
886.464	3709.88
886.705	3603.88
886.946	3583.88
887.187	3470.88
887.428	3545.88
887.668	3462.88
887.909	3407.88
888.15	3381.88
888.39	3376.88
888.631	3405.88
888.871	3353.88
889.111	3334.88
889.352	3284.88
889.592	3269.88
889.833	3230.88
890.073	3226.88
890.313	3319.88
890.553	3132.88
890.793	3181.88
891.033	3145.88
891.273	3122.88
891.513	3138.88
891.753	3203.88
891.993	3155.88
892.233	3174.88
892.473	3205.88
892.713	3181.88
892.952	3101.88
893.192	3178.88
893.432	3173.88
893.671	3248.88
893.911	3191.88
894.15	3165.88
894.39	3057.88
894.629	3116.88
894.869	3126.88
895.108	3091.88
895.347	3028.88
895.587	3081.88
895.826	3057.88
896.065	3031.88
896.304	3098.88
896.543	3093.88
896.782	2988.88
897.021	3036.88
897.26	3048.88
897.499	3138.88
897.738	3126.88
897.977	3066.88
898.216	3025.88
898.454	2999.88
898.693	2983.88
898.932	3031.88
899.17	2964.88
899.409	2970.88
899.647	2922.88
899.886	2957.88
900.124	2976.88
900.363	2946.88
900.601	3009.88
900.839	2992.88
901.078	2993.88
901.316	3002.88
901.554	3013.88
901.792	3019.88
902.03	2961.88
902.268	2998.88
902.506	3039.88
902.744	2967.88
902.982	3013.88
903.22	2907.88
903.458	2857.88
903.695	2889.88
903.933	2845.88
904.171	2734.88
904.409	2742.88
904.646	2713.88
904.884	2655.88
905.121	2717.88
905.359	2614.88
905.596	2614.88
905.833	2522.88
906.071	2556.88
906.308	2575.88
906.545	2561.88
906.783	2513.88
907.02	2531.88
907.257	2456.88
907.494	2489.88
907.731	2516.88
907.968	2497.88
908.205	2459.88
908.442	2444.88
908.679	2490.88
908.915	2416.88
909.152	2426.88
909.389	2367.88
909.626	2349.88
909.862	2344.88
910.099	2368.88
910.335	2389.88
910.572	2291.88
910.808	2372.88
911.045	2279.88
911.281	2280.88
911.518	2383.88
911.754	2268.88
911.99	2310.88
912.226	2262.88
912.463	2245.88
912.699	2221.88
912.935	2227.88
913.171	2188.88
913.407	2125.88
913.643	2236.88
913.879	2197.88
914.114	2145.88
914.35	2127.88
914.586	2140.88
914.822	2119.88
915.057	2161.88
915.293	2042.88
915.529	2044.88
915.764	2112.88
916	2064.88
916.235	2035.88
916.471	2095.88
916.706	2007.88
916.941	2054.88
917.177	2061.88
917.412	2117.88
917.647	2078.88
917.882	2004.88
918.117	2068.88
918.352	2044.88
918.588	2131.88
918.823	1991.88
919.057	2013.88
919.292	1890.88
919.527	2040.88
919.762	1965.88
919.997	2017.88
920.232	1927.88
920.466	1951.88
920.701	1854.88
920.935	1905.88
921.17	1925.88
921.405	1854.88
921.639	1911.88
921.873	1871.88
922.108	1886.88
922.342	1911.88
922.576	1837.88
922.811	1828.88
923.045	1852.88
923.279	1893.88
923.513	1761.88
923.747	1878.88
923.981	1831.88
924.215	1787.88
924.449	1816.88
924.683	1763.88
924.917	1790.88
925.151	1763.88
925.385	1836.88
925.618	1787.88
925.852	1791.88
926.086	1705.88
926.319	1783.88
926.553	1766.88
926.786	1754.88
927.02	1759.88
927.253	1817.88
927.486	1801.88
927.72	1731.88
927.953	1793.88
928.186	1722.88
928.42	1758.88
928.653	1710.88
928.886	1717.88
929.119	1763.88
929.352	1721.88
929.585	1734.88
929.818	1676.88
930.051	1703.88
930.284	1736.88
930.516	1625.88
930.749	1647.88
930.982	1705.88
931.215	1690.88
931.447	1600.88
931.68	1637.88
931.912	1609.88
932.145	1644.88
932.377	1662.88
932.61	1784.88
932.842	1559.88
933.074	1659.88
933.307	1589.88
933.539	1688.88
933.771	1687.88
934.003	1617.88
934.236	1696.88
934.468	1712.88
934.7	1639.88
934.932	1676.88
935.164	1600.88
935.395	1584.88
935.627	1608.88
935.859	1674.88
936.091	1576.88
936.323	1639.88
936.554	1672.88
936.786	1590.88
937.017	1560.88
937.249	1626.88
937.481	1551.88
937.712	1640.88
937.943	1582.88
938.175	1577.88
938.406	1584.88
938.637	1632.88
938.869	1538.88
939.1	1599.88
939.331	1559.88
939.562	1599.88
939.793	1589.88
940.024	1615.88
940.255	1608.88
940.486	1572.88
940.717	1562.88
940.948	1569.88
941.179	1508.88
941.409	1569.88
941.64	1540.88
941.871	1569.88
942.102	1526.88
942.332	1528.88
942.563	1553.88
942.793	1540.88
943.024	1476.88
943.254	1529.88
943.484	1605.88
943.715	1599.88
943.945	1561.88
944.175	1471.88
944.405	1475.88
944.636	1491.88
944.866	1554.88
945.096	1556.88
945.326	1471.88
945.556	1553.88
945.786	1532.88
946.016	1514.88
946.245	1480.88
946.475	1479.88
946.705	1458.88
946.935	1474.88
947.164	1487.88
947.394	1450.88
947.624	1466.88
947.853	1510.88
948.083	1478.88
948.312	1461.88
948.542	1406.88
948.771	1378.88
949	1400.88
949.23	1422.88
949.459	1437.88
949.688	1511.88
949.917	1451.88
950.146	1447.88
950.375	1499.88
950.604	1405.88
950.833	1495.88
951.062	1485.88
951.291	1452.88
951.52	1393.88
951.749	1425.88
951.978	1378.88
952.206	1402.88
952.435	1398.88
952.664	1435.88
952.892	1430.88
953.121	1409.88
953.349	1452.88
953.578	1454.88
953.806	1435.88
954.035	1353.88
954.263	1410.88
954.491	1343.88
954.719	1402.88
954.948	1378.88
955.176	1340.88
955.404	1274.88
955.632	1357.88
955.86	1377.88
956.088	1356.88
956.316	1395.88
956.544	1390.88
956.772	1360.88
956.999	1315.88
957.227	1446.88
957.455	1316.88
957.683	1348.88
957.91	1312.88
958.138	1309.88
958.365	1307.88
958.593	1281.88
958.82	1281.88
959.048	1312.88
959.275	1323.88
959.502	1311.88
959.73	1275.88
959.957	1334.88
960.184	1352.88
960.411	1306.88
960.638	1384.88
960.865	1319.88
961.092	1313.88
961.319	1260.88
961.546	1366.88
961.773	1349.88
962	1283.88
962.227	1357.88
962.454	1326.88
962.68	1294.88
962.907	1308.88
963.134	1257.88
963.36	1282.88
963.587	1328.88
963.813	1234.88
964.04	1295.88
964.266	1253.88
964.493	1340.88
964.719	1278.88
964.945	1280.88
965.171	1199.88
965.398	1256.88
965.624	1270.88
965.85	1223.88
966.076	1235.88
966.302	1281.88
966.528	1232.88
966.754	1261.88
966.98	1256.88
967.206	1252.88
967.431	1208.88
967.657	1268.88
967.883	1262.88
968.109	1235.88
968.334	1207.88
968.56	1176.88
968.785	1208.88
969.011	1159.88
969.236	1243.88
969.462	1187.88
969.687	1177.88
969.912	1231.88
970.138	1246.88
970.363	1178.88
970.588	1206.88
970.813	1172.88
971.038	1184.88
971.263	1225.88
971.488	1184.88
971.713	1231.88
971.938	1215.88
972.163	1143.88
972.388	1155.88
972.613	1157.88
972.838	1190.88
973.062	1152.88
973.287	1141.88
973.512	1110.88
973.736	1156.88
973.961	1117.88
974.185	1104.88
974.41	1159.88
974.634	1076.88
974.858	1099.88
975.083	1138.88
975.307	1140.88
975.531	1115.88
975.755	1063.88
975.98	1083.88
976.204	1037.88
976.428	1027.88
976.652	1041.88
976.876	1045.88
977.1	1063.88
977.324	1035.88
977.547	1090.88
977.771	1085.88
977.995	1078.88
978.219	1002.88
978.442	1119.88
978.666	1056.88
978.89	1052.88
979.113	1065.88
979.337	1069.88
979.56	1025.88
979.783	1127.88
980.007	999.88
980.23	1055.88
980.453	1024.88
980.677	1076.88
980.9	1024.88
981.123	980.88
981.346	1068.88
981.569	1042.88
981.792	1060.88
982.015	1032.88
982.238	996.88
982.461	1028.88
982.684	1002.88
982.907	989.88
983.129	965.88
983.352	1053.88
983.575	1017.88
983.797	1033.88
984.02	969.88
984.242	1003.88
984.465	997.88
984.687	1031.88
984.91	1055.88
985.132	1015.88
985.354	1051.88
985.577	1009.88
985.799	1019.88
986.021	941.88
986.243	969.88
986.465	992.88
986.687	1045.88
986.909	1070.88
987.131	1011.88
987.353	982.88
987.575	1019.88
987.797	990.88
988.019	926.88
988.241	997.88
988.462	959.88
988.684	1016.88
988.906	1038.88
989.127	1062.88
989.349	931.88
989.57	993.88
989.792	1034.88
990.013	1049.88
990.234	1039.88
990.456	1070.88
990.677	1043.88
990.898	1000.88
991.119	978.88
991.341	1043.88
991.562	958.88
991.783	989.88
992.004	934.88
992.225	923.88
992.446	1018.88
992.667	904.88
992.887	987.88
993.108	898.88
993.329	1018.88
993.55	984.88
993.77	910.88
993.991	934.88
994.212	974.88
994.432	946.88
994.653	987.88
994.873	1001.88
995.093	869.88
995.314	927.88
995.534	997.88
995.754	1015.88
995.975	1030.88
996.195	913.88
996.415	989.88
996.635	957.88
996.855	964.88
997.075	942.88
997.295	961.88
997.515	913.88
997.735	978.88
997.955	952.88
998.174	968.88
998.394	924.88
998.614	986.88
998.834	951.88
999.053	1002.88
999.273	967.88
999.492	1036.88
999.712	972.88
999.931	941.88
1000.151	978.88
1000.37	985.88
1000.589	1026.88
1000.809	947.88
1001.028	1064.88
1001.247	993.88
1001.466	921.88
1001.685	1068.88
1001.904	1000.88
1002.123	977.88
1002.342	993.88
1002.561	955.88
1002.78	971.88
1002.999	1036.88
1003.218	985.88
1003.436	962.88
1003.655	1035.88
1003.874	971.88
1004.092	979.88
1004.311	1022.88
1004.53	992.88
1004.748	1069.88
1004.966	980.88
1005.185	1047.88
1005.403	1033.88
1005.622	1032.88
1005.84	1107.88
1006.058	985.88
1006.276	1029.88
1006.494	1499.88
1006.712	1026.88
1006.931	1090.88
1007.149	980.88
1007.367	996.88
1007.584	1029.88
1007.802	1065.88
1008.02	1025.88
1008.238	1108.88
1008.456	1099.88
1008.673	944.88
1008.891	1060.88
1009.109	1005.88
1009.326	1069.88
1009.544	1163.88
1009.761	1039.88
1009.979	1118.88
1010.196	1119.88
1010.413	1179.88
1010.631	1214.88
1010.848	1224.88
1011.065	1224.88
1011.282	1176.88
1011.5	1132.88
1011.717	1236.88
1011.934	1168.88
1012.151	1207.88
1012.368	1186.88
1012.585	1134.88
1012.801	1178.88
1013.018	1148.88
1013.235	1148.88
1013.452	1160.88
1013.669	1153.88
1013.885	1139.88
1014.102	1149.88
1014.318	1139.88
1014.535	1122.88
1014.751	1142.88
1014.968	1147.88
1015.184	1177.88
1015.401	1070.88
1015.617	1101.88
1015.833	1066.88
1016.049	1104.88
1016.266	1049.88
1016.482	1095.88
1016.698	1012.88
1016.914	1095.88
1017.13	1037.88
1017.346	1044.88
1017.562	1100.88
1017.778	1039.88
1017.993	1002.88
1018.209	1083.88
1018.425	1071.88
1018.641	1025.88
1018.856	999.88
1019.072	1022.88
1019.288	1074.88
1019.503	1020.88
1019.719	960.88
1019.934	981.88
1020.149	1074.88
1020.365	995.88
1020.58	952.88
1020.795	1005.88
1021.011	956.88
1021.226	960.88
1021.441	985.88
1021.656	913.88
1021.871	850.88
1022.086	857.88
1022.301	863.88
1022.516	872.88
1022.731	927.88
1022.946	836.88
1023.16	827.88
1023.375	785.88
1023.59	799.88
1023.804	755.88
1024.019	873.88
1024.234	748.88
1024.448	789.88
1024.663	744.88
1024.877	754.88
1025.092	790.88
1025.306	780.88
1025.52	682.88
1025.734	795.88
1025.949	704.88
1026.163	709.88
1026.377	647.88
1026.591	708.88
1026.805	632.88
1027.019	639.88
1027.233	610.88
1027.447	565.88
1027.661	656.88
1027.875	605.88
1028.088	621.88
1028.302	544.88
1028.516	547.88
1028.73	563.88
1028.943	550.88
1029.157	505.88
1029.37	463.88
1029.584	-3.12
1029.797	0.88
1030.011	-3.12
1030.224	-5.12
