Data from QEP037381__308__11-11-56-589.txt Node

Date: Wed Dec 21 11:11:56 EST 2022
User: dcclab
Spectrometer: QEP03738
Trigger mode: 4
Integration Time (sec): 1.000000E1
Scans to average: 1
Electric dark correction enabled: true
Nonlinearity correction enabled: false
Boxcar width: 0
XAxis mode: Wavelengths
Number of Pixels in Spectrum: 1044
>>>>>Begin Spectral Data<<<<<
784.041	9.38
784.3	2.38
784.558	-1.62
784.817	-2.62
785.075	101729.38
785.334	17328.38
785.592	8073.38
785.851	5486.38
786.109	4175.38
786.368	3244.38
786.626	2607.38
786.884	2190.38
787.143	1805.38
787.401	1486.38
787.659	1319.38
787.917	1155.38
788.175	1071.38
788.433	907.38
788.691	829.38
788.949	760.38
789.207	721.38
789.465	636.38
789.723	607.38
789.98	549.38
790.238	588.38
790.496	563.38
790.753	527.38
791.011	588.38
791.268	508.38
791.526	505.38
791.783	514.38
792.041	493.38
792.298	404.38
792.556	490.38
792.813	460.38
793.07	423.38
793.327	418.38
793.584	488.38
793.841	425.38
794.099	427.38
794.356	495.38
794.613	398.38
794.869	430.38
795.126	382.38
795.383	367.38
795.64	396.38
795.897	348.38
796.153	413.38
796.41	384.38
796.667	371.38
796.923	386.38
797.18	369.38
797.436	402.38
797.693	363.38
797.949	407.38
798.206	439.38
798.462	343.38
798.718	411.38
798.974	378.38
799.231	407.38
799.487	397.38
799.743	409.38
799.999	438.38
800.255	403.38
800.511	384.38
800.767	430.38
801.023	397.38
801.279	422.38
801.534	429.38
801.79	459.38
802.046	420.38
802.302	490.38
802.557	483.38
802.813	532.38
803.068	557.38
803.324	701.38
803.579	826.38
803.835	1032.38
804.09	1374.38
804.345	1711.38
804.601	2150.38
804.856	2604.38
805.111	3029.38
805.366	3272.38
805.621	3448.38
805.876	3608.38
806.131	3745.38
806.386	3771.38
806.641	3768.38
806.896	3827.38
807.151	4032.38
807.406	4017.38
807.661	4114.38
807.915	4253.38
808.17	4254.38
808.425	4344.38
808.679	4356.38
808.934	4434.38
809.188	4437.38
809.443	4519.38
809.697	4604.38
809.951	4600.38
810.206	4652.38
810.46	4721.38
810.714	4750.38
810.968	4809.38
811.223	4825.38
811.477	4869.38
811.731	4961.38
811.985	4829.38
812.239	4932.38
812.493	4983.38
812.747	5015.38
813	5010.38
813.254	5015.38
813.508	5083.38
813.762	5096.38
814.015	5108.38
814.269	5194.38
814.522	5221.38
814.776	5329.38
815.03	5396.38
815.283	5421.38
815.536	5543.38
815.79	5611.38
816.043	5765.38
816.296	5823.38
816.55	5824.38
816.803	5942.38
817.056	6113.38
817.309	6119.38
817.562	6163.38
817.815	6225.38
818.068	6211.38
818.321	6299.38
818.574	6407.38
818.827	6574.38
819.079	6627.38
819.332	6858.38
819.585	6896.38
819.838	7095.38
820.09	6978.38
820.343	7018.38
820.595	6988.38
820.848	7084.38
821.1	7169.38
821.353	7104.38
821.605	7151.38
821.857	7154.38
822.11	7055.38
822.362	7043.38
822.614	7097.38
822.866	7189.38
823.118	7086.38
823.37	7236.38
823.622	7219.38
823.874	7223.38
824.126	7309.38
824.378	7228.38
824.63	7313.38
824.882	7410.38
825.134	7291.38
825.385	7257.38
825.637	7237.38
825.888	7247.38
826.14	7182.38
826.392	7193.38
826.643	7134.38
826.895	7178.38
827.146	7020.38
827.397	7043.38
827.649	7149.38
827.9	7039.38
828.151	7048.38
828.402	7076.38
828.653	7137.38
828.905	7137.38
829.156	7172.38
829.407	7151.38
829.658	7190.38
829.909	7311.38
830.159	7295.38
830.41	7206.38
830.661	7269.38
830.912	7152.38
831.162	7147.38
831.413	7116.38
831.664	7189.38
831.914	7163.38
832.165	7176.38
832.415	7108.38
832.666	7170.38
832.916	7221.38
833.167	7165.38
833.417	7182.38
833.667	7155.38
833.917	7129.38
834.168	7174.38
834.418	7138.38
834.668	7154.38
834.918	7061.38
835.168	7086.38
835.418	6998.38
835.668	7049.38
835.918	6993.38
836.167	6984.38
836.417	6978.38
836.667	7038.38
836.917	7008.38
837.166	6940.38
837.416	7027.38
837.666	6988.38
837.915	6972.38
838.165	6980.38
838.414	6822.38
838.663	6855.38
838.913	6898.38
839.162	6946.38
839.411	6997.38
839.661	6919.38
839.91	6929.38
840.159	6996.38
840.408	6977.38
840.657	6988.38
840.906	6976.38
841.155	7068.38
841.404	7028.38
841.653	7064.38
841.902	7024.38
842.15	7106.38
842.399	7071.38
842.648	7138.38
842.897	7098.38
843.145	6991.38
843.394	6916.38
843.642	6887.38
843.891	6911.38
844.139	6774.38
844.388	6788.38
844.636	6706.38
844.884	6795.38
845.133	6679.38
845.381	6719.38
845.629	6811.38
845.877	6782.38
846.125	6820.38
846.373	6778.38
846.621	6719.38
846.869	6773.38
847.117	6739.38
847.365	6704.38
847.613	6696.38
847.861	6684.38
848.108	6724.38
848.356	6665.38
848.604	6658.38
848.851	6707.38
849.099	6761.38
849.346	6714.38
849.594	6794.38
849.841	6887.38
850.089	6918.38
850.336	6975.38
850.583	7045.38
850.831	7056.38
851.078	7000.38
851.325	6912.38
851.572	7058.38
851.819	6959.38
852.066	6691.38
852.313	6556.38
852.56	6473.38
852.807	6425.38
853.054	6395.38
853.301	6509.38
853.548	6523.38
853.794	6668.38
854.041	6595.38
854.288	6596.38
854.534	6738.38
854.781	6656.38
855.028	6699.38
855.274	6659.38
855.52	6658.38
855.767	6670.38
856.013	6698.38
856.26	6988.38
856.506	6624.38
856.752	6612.38
856.998	6587.38
857.244	6576.38
857.49	6648.38
857.736	6686.38
857.982	6689.38
858.228	6669.38
858.474	6570.38
858.72	6555.38
858.966	6489.38
859.212	6399.38
859.458	6313.38
859.703	6276.38
859.949	6171.38
860.195	6244.38
860.44	6212.38
860.686	6200.38
860.931	6236.38
861.177	6106.38
861.422	6094.38
861.667	5953.38
861.913	6063.38
862.158	6050.38
862.403	6073.38
862.648	6121.38
862.893	6114.38
863.138	6205.38
863.384	6053.38
863.629	6096.38
863.873	6133.38
864.118	6087.38
864.363	5988.38
864.608	6161.38
864.853	6065.38
865.098	6008.38
865.342	6004.38
865.587	5945.38
865.832	6027.38
866.076	6073.38
866.321	5954.38
866.565	6019.38
866.81	5864.38
867.054	5897.38
867.298	5973.38
867.543	5855.38
867.787	5940.38
868.031	5933.38
868.275	5936.38
868.519	5960.38
868.764	5925.38
869.008	5919.38
869.252	6024.38
869.496	5999.38
869.739	5966.38
869.983	5978.38
870.227	6043.38
870.471	6026.38
870.715	6051.38
870.958	6143.38
871.202	6103.38
871.446	6139.38
871.689	6133.38
871.933	6165.38
872.176	6140.38
872.42	6059.38
872.663	6126.38
872.906	6155.38
873.15	6123.38
873.393	6109.38
873.636	6178.38
873.879	6111.38
874.122	6056.38
874.366	5980.38
874.609	5900.38
874.852	5786.38
875.095	5833.38
875.337	5787.38
875.58	5621.38
875.823	5764.38
876.066	5755.38
876.309	5745.38
876.551	5639.38
876.794	5596.38
877.037	5697.38
877.279	5573.38
877.522	5599.38
877.764	5656.38
878.007	5530.38
878.249	5525.38
878.491	5489.38
878.734	5585.38
878.976	5542.38
879.218	5458.38
879.46	5511.38
879.702	5489.38
879.945	5399.38
880.187	5319.38
880.429	5330.38
880.671	5306.38
880.912	5280.38
881.154	5297.38
881.396	5166.38
881.638	5233.38
881.88	5277.38
882.121	5223.38
882.363	5249.38
882.605	5355.38
882.846	5335.38
883.088	5375.38
883.329	5309.38
883.571	5364.38
883.812	5461.38
884.053	5642.38
884.295	5811.38
884.536	5991.38
884.777	5959.38
885.018	5936.38
885.259	5871.38
885.5	5856.38
885.742	6056.38
885.982	5746.38
886.223	5696.38
886.464	5640.38
886.705	5513.38
886.946	5497.38
887.187	5312.38
887.428	5314.38
887.668	5147.38
887.909	5009.38
888.15	4977.38
888.39	5001.38
888.631	4981.38
888.871	4849.38
889.111	4871.38
889.352	4878.38
889.592	4794.38
889.833	4735.38
890.073	4724.38
890.313	4739.38
890.553	4621.38
890.793	4657.38
891.033	4634.38
891.273	4554.38
891.513	4599.38
891.753	4640.38
891.993	4573.38
892.233	4664.38
892.473	4651.38
892.713	4627.38
892.952	4641.38
893.192	4652.38
893.432	4630.38
893.671	4700.38
893.911	4639.38
894.15	4636.38
894.39	4542.38
894.629	4606.38
894.869	4562.38
895.108	4542.38
895.347	4542.38
895.587	4566.38
895.826	4524.38
896.065	4490.38
896.304	4549.38
896.543	4571.38
896.782	4533.38
897.021	4544.38
897.26	4556.38
897.499	4645.38
897.738	4663.38
897.977	4584.38
898.216	4560.38
898.454	4499.38
898.693	4476.38
898.932	4544.38
899.17	4467.38
899.409	4473.38
899.647	4465.38
899.886	4483.38
900.124	4540.38
900.363	4501.38
900.601	4584.38
900.839	4599.38
901.078	4614.38
901.316	4693.38
901.554	4700.38
901.792	4791.38
902.03	4756.38
902.268	4787.38
902.506	4845.38
902.744	4685.38
902.982	4722.38
903.22	4579.38
903.458	4501.38
903.695	4440.38
903.933	4360.38
904.171	4233.38
904.409	4122.38
904.646	4126.38
904.884	4016.38
905.121	4054.38
905.359	3940.38
905.596	3871.38
905.833	3814.38
906.071	3837.38
906.308	3869.38
906.545	3833.38
906.783	3783.38
907.02	3761.38
907.257	3733.38
907.494	3747.38
907.731	3729.38
907.968	3751.38
908.205	3654.38
908.442	3686.38
908.679	3652.38
908.915	3660.38
909.152	3618.38
909.389	3540.38
909.626	3553.38
909.862	3506.38
910.099	3526.38
910.335	3544.38
910.572	3441.38
910.808	3509.38
911.045	3464.38
911.281	3434.38
911.518	3489.38
911.754	3388.38
911.99	3403.38
912.226	3381.38
912.463	3318.38
912.699	3312.38
912.935	3310.38
913.171	3311.38
913.407	3254.38
913.643	3265.38
913.879	3278.38
914.114	3232.38
914.35	3168.38
914.586	3120.38
914.822	3138.38
915.057	3191.38
915.293	3028.38
915.529	3043.38
915.764	3132.38
916	3118.38
916.235	3056.38
916.471	3124.38
916.706	3042.38
916.941	3042.38
917.177	3041.38
917.412	3082.38
917.647	3133.38
917.882	3044.38
918.117	3113.38
918.352	3067.38
918.588	3102.38
918.823	3047.38
919.057	3000.38
919.292	2920.38
919.527	3030.38
919.762	2942.38
919.997	2945.38
920.232	2932.38
920.466	2898.38
920.701	2797.38
920.935	2833.38
921.17	2823.38
921.405	2795.38
921.639	2839.38
921.873	2768.38
922.108	2836.38
922.342	2837.38
922.576	2775.38
922.811	2742.38
923.045	2828.38
923.279	2844.38
923.513	2688.38
923.747	2754.38
923.981	2758.38
924.215	2714.38
924.449	2696.38
924.683	2671.38
924.917	2666.38
925.151	2632.38
925.385	2716.38
925.618	2684.38
925.852	2647.38
926.086	2619.38
926.319	2663.38
926.553	2647.38
926.786	2652.38
927.02	2637.38
927.253	2689.38
927.486	2715.38
927.72	2624.38
927.953	2668.38
928.186	2670.38
928.42	2683.38
928.653	2603.38
928.886	2615.38
929.119	2621.38
929.352	2600.38
929.585	2633.38
929.818	2541.38
930.051	2578.38
930.284	2550.38
930.516	2510.38
930.749	2512.38
930.982	2544.38
931.215	2561.38
931.447	2435.38
931.68	2517.38
931.912	2482.38
932.145	2476.38
932.377	2515.38
932.61	2634.38
932.842	2428.38
933.074	2541.38
933.307	2455.38
933.539	2552.38
933.771	2547.38
934.003	2489.38
934.236	2586.38
934.468	2552.38
934.7	2491.38
934.932	2537.38
935.164	2496.38
935.395	2520.38
935.627	2483.38
935.859	2513.38
936.091	2454.38
936.323	2488.38
936.554	2520.38
936.786	2433.38
937.017	2422.38
937.249	2461.38
937.481	2386.38
937.712	2483.38
937.943	2485.38
938.175	2395.38
938.406	2406.38
938.637	2487.38
938.869	2407.38
939.1	2434.38
939.331	2395.38
939.562	2473.38
939.793	2454.38
940.024	2451.38
940.255	2452.38
940.486	2417.38
940.717	2389.38
940.948	2389.38
941.179	2365.38
941.409	2378.38
941.64	2372.38
941.871	2417.38
942.102	2363.38
942.332	2360.38
942.563	2405.38
942.793	2398.38
943.024	2323.38
943.254	2379.38
943.484	2398.38
943.715	2419.38
943.945	2418.38
944.175	2328.38
944.405	2314.38
944.636	2371.38
944.866	2400.38
945.096	2394.38
945.326	2312.38
945.556	2369.38
945.786	2408.38
946.016	2345.38
946.245	2313.38
946.475	2317.38
946.705	2302.38
946.935	2317.38
947.164	2309.38
947.394	2238.38
947.624	2276.38
947.853	2328.38
948.083	2275.38
948.312	2277.38
948.542	2196.38
948.771	2230.38
949	2191.38
949.23	2207.38
949.459	2220.38
949.688	2318.38
949.917	2214.38
950.146	2233.38
950.375	2293.38
950.604	2191.38
950.833	2282.38
951.062	2288.38
951.291	2240.38
951.52	2207.38
951.749	2217.38
951.978	2178.38
952.206	2187.38
952.435	2178.38
952.664	2223.38
952.892	2215.38
953.121	2189.38
953.349	2193.38
953.578	2195.38
953.806	2165.38
954.035	2157.38
954.263	2163.38
954.491	2143.38
954.719	2150.38
954.948	2113.38
955.176	2105.38
955.404	2041.38
955.632	2144.38
955.86	2099.38
956.088	2082.38
956.316	2121.38
956.544	2155.38
956.772	2091.38
956.999	2074.38
957.227	2150.38
957.455	2032.38
957.683	2063.38
957.91	2034.38
958.138	2017.38
958.365	2009.38
958.593	2021.38
958.82	1963.38
959.048	2051.38
959.275	1990.38
959.502	2003.38
959.73	1954.38
959.957	2022.38
960.184	2082.38
960.411	2015.38
960.638	2067.38
960.865	2018.38
961.092	2040.38
961.319	1953.38
961.546	2038.38
961.773	2050.38
962	1982.38
962.227	2039.38
962.454	2028.38
962.68	1966.38
962.907	1991.38
963.134	1968.38
963.36	1974.38
963.587	1987.38
963.813	1939.38
964.04	1987.38
964.266	1900.38
964.493	1967.38
964.719	1973.38
964.945	1957.38
965.171	1868.38
965.398	1935.38
965.624	1924.38
965.85	1873.38
966.076	1895.38
966.302	1907.38
966.528	1912.38
966.754	1928.38
966.98	1892.38
967.206	1880.38
967.431	1854.38
967.657	1903.38
967.883	1894.38
968.109	1905.38
968.334	1849.38
968.56	1805.38
968.785	1833.38
969.011	1778.38
969.236	1880.38
969.462	1783.38
969.687	1825.38
969.912	1843.38
970.138	1889.38
970.363	1793.38
970.588	1831.38
970.813	1825.38
971.038	1806.38
971.263	1834.38
971.488	1808.38
971.713	1841.38
971.938	1825.38
972.163	1744.38
972.388	1772.38
972.613	1757.38
972.838	1796.38
973.062	1743.38
973.287	1758.38
973.512	1684.38
973.736	1734.38
973.961	1738.38
974.185	1697.38
974.41	1760.38
974.634	1660.38
974.858	1681.38
975.083	1709.38
975.307	1745.38
975.531	1666.38
975.755	1626.38
975.98	1675.38
976.204	1616.38
976.428	1596.38
976.652	1608.38
976.876	1573.38
977.1	1619.38
977.324	1577.38
977.547	1644.38
977.771	1626.38
977.995	1619.38
978.219	1555.38
978.442	1688.38
978.666	1592.38
978.89	1618.38
979.113	1595.38
979.337	1566.38
979.56	1549.38
979.783	1652.38
980.007	1555.38
980.23	1599.38
980.453	1543.38
980.677	1595.38
980.9	1567.38
981.123	1497.38
981.346	1590.38
981.569	1560.38
981.792	1602.38
982.015	1555.38
982.238	1528.38
982.461	1551.38
982.684	1523.38
982.907	1481.38
983.129	1496.38
983.352	1542.38
983.575	1525.38
983.797	1545.38
984.02	1500.38
984.242	1508.38
984.465	1489.38
984.687	1526.38
984.91	1534.38
985.132	1522.38
985.354	1533.38
985.577	1522.38
985.799	1506.38
986.021	1423.38
986.243	1437.38
986.465	1483.38
986.687	1500.38
986.909	1541.38
987.131	1471.38
987.353	1455.38
987.575	1495.38
987.797	1451.38
988.019	1399.38
988.241	1452.38
988.462	1431.38
988.684	1474.38
988.906	1504.38
989.127	1534.38
989.349	1414.38
989.57	1443.38
989.792	1509.38
990.013	1455.38
990.234	1485.38
990.456	1526.38
990.677	1500.38
990.898	1453.38
991.119	1444.38
991.341	1476.38
991.562	1438.38
991.783	1471.38
992.004	1396.38
992.225	1373.38
992.446	1438.38
992.667	1358.38
992.887	1444.38
993.108	1327.38
993.329	1469.38
993.55	1400.38
993.77	1359.38
993.991	1388.38
994.212	1412.38
994.432	1385.38
994.653	1392.38
994.873	1404.38
995.093	1298.38
995.314	1347.38
995.534	1401.38
995.754	1434.38
995.975	1446.38
996.195	1351.38
996.415	1400.38
996.635	1371.38
996.855	1387.38
997.075	1387.38
997.295	1382.38
997.515	1331.38
997.735	1417.38
997.955	1357.38
998.174	1358.38
998.394	1372.38
998.614	1412.38
998.834	1361.38
999.053	1410.38
999.273	1395.38
999.492	1452.38
999.712	1388.38
999.931	1333.38
1000.151	1346.38
1000.37	1377.38
1000.589	1430.38
1000.809	1348.38
1001.028	1474.38
1001.247	1403.38
1001.466	1286.38
1001.685	1431.38
1001.904	1385.38
1002.123	1392.38
1002.342	1348.38
1002.561	1320.38
1002.78	1350.38
1002.999	1429.38
1003.218	1361.38
1003.436	1355.38
1003.655	1410.38
1003.874	1324.38
1004.092	1368.38
1004.311	1383.38
1004.53	1372.38
1004.748	1460.38
1004.966	1371.38
1005.185	1415.38
1005.403	1426.38
1005.622	1396.38
1005.84	1428.38
1006.058	1369.38
1006.276	1371.38
1006.494	1874.38
1006.712	1405.38
1006.931	1448.38
1007.149	1355.38
1007.367	1382.38
1007.584	1410.38
1007.802	1479.38
1008.02	1426.38
1008.238	1492.38
1008.456	1508.38
1008.673	1413.38
1008.891	1501.38
1009.109	1505.38
1009.326	1552.38
1009.544	1634.38
1009.761	1575.38
1009.979	1711.38
1010.196	1740.38
1010.413	1852.38
1010.631	1951.38
1010.848	2010.38
1011.065	2014.38
1011.282	1983.38
1011.5	1905.38
1011.717	1986.38
1011.934	1955.38
1012.151	1994.38
1012.368	1972.38
1012.585	1929.38
1012.801	1979.38
1013.018	1951.38
1013.235	1952.38
1013.452	1973.38
1013.669	1984.38
1013.885	1957.38
1014.102	2013.38
1014.318	1994.38
1014.535	1935.38
1014.751	1982.38
1014.968	1968.38
1015.184	2017.38
1015.401	1910.38
1015.617	1953.38
1015.833	1903.38
1016.049	1908.38
1016.266	1886.38
1016.482	1881.38
1016.698	1821.38
1016.914	1858.38
1017.13	1801.38
1017.346	1789.38
1017.562	1872.38
1017.778	1799.38
1017.993	1766.38
1018.209	1845.38
1018.425	1804.38
1018.641	1790.38
1018.856	1743.38
1019.072	1812.38
1019.288	1861.38
1019.503	1785.38
1019.719	1706.38
1019.934	1751.38
1020.149	1803.38
1020.365	1721.38
1020.58	1665.38
1020.795	1707.38
1021.011	1620.38
1021.226	1609.38
1021.441	1579.38
1021.656	1506.38
1021.871	1447.38
1022.086	1420.38
1022.301	1426.38
1022.516	1420.38
1022.731	1460.38
1022.946	1354.38
1023.16	1336.38
1023.375	1284.38
1023.59	1276.38
1023.804	1230.38
1024.019	1321.38
1024.234	1207.38
1024.448	1217.38
1024.663	1139.38
1024.877	1159.38
1025.092	1151.38
1025.306	1176.38
1025.52	1063.38
1025.734	1165.38
1025.949	1064.38
1026.163	1028.38
1026.377	958.38
1026.591	1007.38
1026.805	931.38
1027.019	920.38
1027.233	906.38
1027.447	878.38
1027.661	937.38
1027.875	896.38
1028.088	876.38
1028.302	812.38
1028.516	793.38
1028.73	796.38
1028.943	784.38
1029.157	727.38
1029.37	674.38
1029.584	-0.62
1029.797	-2.62
1030.011	-2.62
1030.224	-1.62
