Data from QEP037381__321__11-14-06-591.txt Node

Date: Wed Dec 21 11:14:06 EST 2022
User: dcclab
Spectrometer: QEP03738
Trigger mode: 4
Integration Time (sec): 1.000000E1
Scans to average: 1
Electric dark correction enabled: true
Nonlinearity correction enabled: false
Boxcar width: 0
XAxis mode: Wavelengths
Number of Pixels in Spectrum: 1044
>>>>>Begin Spectral Data<<<<<
784.041	16.12
784.3	-0.88
784.558	-5.88
784.817	-2.88
785.075	98881.12
785.334	16720.12
785.592	7664.12
785.851	5249.12
786.109	3968.12
786.368	3077.12
786.626	2499.12
786.884	2044.12
787.143	1722.12
787.401	1449.12
787.659	1286.12
787.917	1126.12
788.175	1034.12
788.433	891.12
788.691	794.12
788.949	749.12
789.207	709.12
789.465	617.12
789.723	583.12
789.98	549.12
790.238	579.12
790.496	553.12
790.753	534.12
791.011	568.12
791.268	506.12
791.526	478.12
791.783	510.12
792.041	498.12
792.298	412.12
792.556	468.12
792.813	449.12
793.07	421.12
793.327	412.12
793.584	502.12
793.841	411.12
794.099	420.12
794.356	491.12
794.613	387.12
794.869	416.12
795.126	414.12
795.383	383.12
795.64	408.12
795.897	351.12
796.153	401.12
796.41	394.12
796.667	372.12
796.923	387.12
797.18	378.12
797.436	403.12
797.693	367.12
797.949	419.12
798.206	444.12
798.462	354.12
798.718	417.12
798.974	377.12
799.231	420.12
799.487	403.12
799.743	405.12
799.999	429.12
800.255	422.12
800.511	408.12
800.767	429.12
801.023	403.12
801.279	415.12
801.534	439.12
801.79	443.12
802.046	436.12
802.302	496.12
802.557	510.12
802.813	578.12
803.068	581.12
803.324	757.12
803.579	892.12
803.835	1121.12
804.09	1545.12
804.345	1952.12
804.601	2419.12
804.856	2991.12
805.111	3391.12
805.366	3701.12
805.621	3925.12
805.876	4099.12
806.131	4187.12
806.386	4214.12
806.641	4346.12
806.896	4424.12
807.151	4518.12
807.406	4528.12
807.661	4603.12
807.915	4719.12
808.17	4832.12
808.425	4890.12
808.679	4934.12
808.934	5022.12
809.188	5079.12
809.443	5151.12
809.697	5224.12
809.951	5200.12
810.206	5309.12
810.46	5353.12
810.714	5396.12
810.968	5508.12
811.223	5449.12
811.477	5539.12
811.731	5607.12
811.985	5572.12
812.239	5573.12
812.493	5646.12
812.747	5733.12
813	5653.12
813.254	5754.12
813.508	5781.12
813.762	5802.12
814.015	5827.12
814.269	5865.12
814.522	5973.12
814.776	6021.12
815.03	6071.12
815.283	6181.12
815.536	6308.12
815.79	6393.12
816.043	6469.12
816.296	6588.12
816.55	6658.12
816.803	6753.12
817.056	6907.12
817.309	6956.12
817.562	7034.12
817.815	7172.12
818.068	7139.12
818.321	7232.12
818.574	7373.12
818.827	7521.12
819.079	7516.12
819.332	7772.12
819.585	7803.12
819.838	8010.12
820.09	7956.12
820.343	8090.12
820.595	8005.12
820.848	8160.12
821.1	8213.12
821.353	8143.12
821.605	8192.12
821.857	8268.12
822.11	8151.12
822.362	8077.12
822.614	8083.12
822.866	8193.12
823.118	8167.12
823.37	8283.12
823.622	8305.12
823.874	8352.12
824.126	8372.12
824.378	8327.12
824.63	8419.12
824.882	8438.12
825.134	8436.12
825.385	8390.12
825.637	8387.12
825.888	8300.12
826.14	8312.12
826.392	8256.12
826.643	8180.12
826.895	8297.12
827.146	8152.12
827.397	8153.12
827.649	8232.12
827.9	8186.12
828.151	8137.12
828.402	8170.12
828.653	8223.12
828.905	8262.12
829.156	8334.12
829.407	8271.12
829.658	8278.12
829.909	8422.12
830.159	8394.12
830.41	8388.12
830.661	8308.12
830.912	8302.12
831.162	8347.12
831.413	8248.12
831.664	8274.12
831.914	8335.12
832.165	8247.12
832.415	8273.12
832.666	8292.12
832.916	8334.12
833.167	8272.12
833.417	8346.12
833.667	8261.12
833.917	8207.12
834.168	8301.12
834.418	8256.12
834.668	8291.12
834.918	8189.12
835.168	8166.12
835.418	8132.12
835.668	8132.12
835.918	8175.12
836.167	8185.12
836.417	8062.12
836.667	8161.12
836.917	8160.12
837.166	8095.12
837.416	8193.12
837.666	8170.12
837.915	8065.12
838.165	8102.12
838.414	8041.12
838.663	8050.12
838.913	8073.12
839.162	8121.12
839.411	8125.12
839.661	8117.12
839.91	8121.12
840.159	8131.12
840.408	8159.12
840.657	8158.12
840.906	8245.12
841.155	8217.12
841.404	8196.12
841.653	8204.12
841.902	8162.12
842.15	8318.12
842.399	8221.12
842.648	8290.12
842.897	8251.12
843.145	8153.12
843.394	8092.12
843.642	8063.12
843.891	8139.12
844.139	8060.12
844.388	7875.12
844.636	7834.12
844.884	7888.12
845.133	7954.12
845.381	7938.12
845.629	7957.12
845.877	7974.12
846.125	7917.12
846.373	7928.12
846.621	7857.12
846.869	7868.12
847.117	7813.12
847.365	7788.12
847.613	7783.12
847.861	7805.12
848.108	7852.12
848.356	7867.12
848.604	7821.12
848.851	7847.12
849.099	7860.12
849.346	7885.12
849.594	7944.12
849.841	8039.12
850.089	8076.12
850.336	8143.12
850.583	8217.12
850.831	8225.12
851.078	8124.12
851.325	8128.12
851.572	8258.12
851.819	8087.12
852.066	7814.12
852.313	7652.12
852.56	7629.12
852.807	7516.12
853.054	7533.12
853.301	7617.12
853.548	7632.12
853.794	7779.12
854.041	7757.12
854.288	7751.12
854.534	7944.12
854.781	7818.12
855.028	7775.12
855.274	7811.12
855.52	7774.12
855.767	7720.12
856.013	7851.12
856.26	8127.12
856.506	7702.12
856.752	7731.12
856.998	7733.12
857.244	7714.12
857.49	7854.12
857.736	7852.12
857.982	7801.12
858.228	7890.12
858.474	7745.12
858.72	7725.12
858.966	7652.12
859.212	7589.12
859.458	7438.12
859.703	7357.12
859.949	7256.12
860.195	7363.12
860.44	7295.12
860.686	7215.12
860.931	7319.12
861.177	7168.12
861.422	7150.12
861.667	7079.12
861.913	7077.12
862.158	7094.12
862.403	7184.12
862.648	7168.12
862.893	7246.12
863.138	7208.12
863.384	7163.12
863.629	7164.12
863.873	7190.12
864.118	7232.12
864.363	7133.12
864.608	7153.12
864.853	7136.12
865.098	7083.12
865.342	7106.12
865.587	7064.12
865.832	7082.12
866.076	7081.12
866.321	6983.12
866.565	7045.12
866.81	6987.12
867.054	7041.12
867.298	6963.12
867.543	6943.12
867.787	7012.12
868.031	7003.12
868.275	6995.12
868.519	6988.12
868.764	6968.12
869.008	7045.12
869.252	7082.12
869.496	7056.12
869.739	7063.12
869.983	7066.12
870.227	7129.12
870.471	7085.12
870.715	7184.12
870.958	7250.12
871.202	7231.12
871.446	7235.12
871.689	7205.12
871.933	7236.12
872.176	7212.12
872.42	7205.12
872.663	7180.12
872.906	7239.12
873.15	7204.12
873.393	7237.12
873.636	7322.12
873.879	7170.12
874.122	7110.12
874.366	7030.12
874.609	6907.12
874.852	6889.12
875.095	6851.12
875.337	6872.12
875.58	6743.12
875.823	6776.12
876.066	6760.12
876.309	6820.12
876.551	6718.12
876.794	6627.12
877.037	6712.12
877.279	6535.12
877.522	6575.12
877.764	6595.12
878.007	6566.12
878.249	6567.12
878.491	6540.12
878.734	6586.12
878.976	6542.12
879.218	6508.12
879.46	6498.12
879.702	6490.12
879.945	6349.12
880.187	6310.12
880.429	6336.12
880.671	6296.12
880.912	6295.12
881.154	6305.12
881.396	6242.12
881.638	6331.12
881.88	6310.12
882.121	6220.12
882.363	6236.12
882.605	6318.12
882.846	6314.12
883.088	6294.12
883.329	6287.12
883.571	6373.12
883.812	6476.12
884.053	6684.12
884.295	6889.12
884.536	7094.12
884.777	7045.12
885.018	7032.12
885.259	6954.12
885.5	6874.12
885.742	7154.12
885.982	6885.12
886.223	6733.12
886.464	6646.12
886.705	6564.12
886.946	6471.12
887.187	6320.12
887.428	6246.12
887.668	6093.12
887.909	6048.12
888.15	5951.12
888.39	5957.12
888.631	5921.12
888.871	5820.12
889.111	5764.12
889.352	5815.12
889.592	5640.12
889.833	5646.12
890.073	5606.12
890.313	5652.12
890.553	5461.12
890.793	5528.12
891.033	5476.12
891.273	5419.12
891.513	5458.12
891.753	5487.12
891.993	5469.12
892.233	5467.12
892.473	5568.12
892.713	5556.12
892.952	5491.12
893.192	5614.12
893.432	5519.12
893.671	5623.12
893.911	5559.12
894.15	5561.12
894.39	5437.12
894.629	5461.12
894.869	5432.12
895.108	5408.12
895.347	5362.12
895.587	5426.12
895.826	5363.12
896.065	5399.12
896.304	5404.12
896.543	5476.12
896.782	5313.12
897.021	5410.12
897.26	5408.12
897.499	5524.12
897.738	5462.12
897.977	5463.12
898.216	5423.12
898.454	5347.12
898.693	5299.12
898.932	5356.12
899.17	5363.12
899.409	5323.12
899.647	5304.12
899.886	5331.12
900.124	5366.12
900.363	5389.12
900.601	5426.12
900.839	5401.12
901.078	5473.12
901.316	5542.12
901.554	5648.12
901.792	5673.12
902.03	5681.12
902.268	5770.12
902.506	5766.12
902.744	5643.12
902.982	5626.12
903.22	5427.12
903.458	5373.12
903.695	5308.12
903.933	5127.12
904.171	5058.12
904.409	4979.12
904.646	4900.12
904.884	4759.12
905.121	4800.12
905.359	4684.12
905.596	4679.12
905.833	4597.12
906.071	4572.12
906.308	4633.12
906.545	4524.12
906.783	4548.12
907.02	4510.12
907.257	4518.12
907.494	4479.12
907.731	4538.12
907.968	4463.12
908.205	4424.12
908.442	4379.12
908.679	4439.12
908.915	4382.12
909.152	4381.12
909.389	4250.12
909.626	4253.12
909.862	4228.12
910.099	4158.12
910.335	4246.12
910.572	4117.12
910.808	4181.12
911.045	4157.12
911.281	4147.12
911.518	4223.12
911.754	4133.12
911.99	4083.12
912.226	4070.12
912.463	4036.12
912.699	4051.12
912.935	4001.12
913.171	3983.12
913.407	3898.12
913.643	3963.12
913.879	3879.12
914.114	3880.12
914.35	3803.12
914.586	3797.12
914.822	3797.12
915.057	3808.12
915.293	3705.12
915.529	3679.12
915.764	3768.12
916	3717.12
916.235	3708.12
916.471	3752.12
916.706	3614.12
916.941	3711.12
917.177	3648.12
917.412	3698.12
917.647	3715.12
917.882	3649.12
918.117	3739.12
918.352	3673.12
918.588	3810.12
918.823	3669.12
919.057	3637.12
919.292	3519.12
919.527	3609.12
919.762	3533.12
919.997	3572.12
920.232	3509.12
920.466	3505.12
920.701	3336.12
920.935	3384.12
921.17	3382.12
921.405	3354.12
921.639	3428.12
921.873	3340.12
922.108	3375.12
922.342	3394.12
922.576	3296.12
922.811	3339.12
923.045	3343.12
923.279	3378.12
923.513	3238.12
923.747	3336.12
923.981	3302.12
924.215	3271.12
924.449	3257.12
924.683	3217.12
924.917	3197.12
925.151	3222.12
925.385	3251.12
925.618	3188.12
925.852	3214.12
926.086	3167.12
926.319	3166.12
926.553	3177.12
926.786	3202.12
927.02	3182.12
927.253	3237.12
927.486	3210.12
927.72	3182.12
927.953	3208.12
928.186	3144.12
928.42	3160.12
928.653	3125.12
928.886	3101.12
929.119	3170.12
929.352	3154.12
929.585	3105.12
929.818	3138.12
930.051	3108.12
930.284	3082.12
930.516	3002.12
930.749	3008.12
930.982	3052.12
931.215	3059.12
931.447	2930.12
931.68	3028.12
931.912	2982.12
932.145	2993.12
932.377	2965.12
932.61	3120.12
932.842	2957.12
933.074	3062.12
933.307	2958.12
933.539	3070.12
933.771	3041.12
934.003	2957.12
934.236	3052.12
934.468	3051.12
934.7	3042.12
934.932	3040.12
935.164	2952.12
935.395	2977.12
935.627	3005.12
935.859	2969.12
936.091	2929.12
936.323	2992.12
936.554	3027.12
936.786	2961.12
937.017	2878.12
937.249	2922.12
937.481	2868.12
937.712	2938.12
937.943	2935.12
938.175	2896.12
938.406	2915.12
938.637	2975.12
938.869	2913.12
939.1	2945.12
939.331	2890.12
939.562	2920.12
939.793	2916.12
940.024	2919.12
940.255	2970.12
940.486	2852.12
940.717	2856.12
940.948	2851.12
941.179	2839.12
941.409	2856.12
941.64	2842.12
941.871	2845.12
942.102	2835.12
942.332	2868.12
942.563	2902.12
942.793	2868.12
943.024	2799.12
943.254	2859.12
943.484	2884.12
943.715	2858.12
943.945	2874.12
944.175	2792.12
944.405	2767.12
944.636	2785.12
944.866	2851.12
945.096	2839.12
945.326	2801.12
945.556	2846.12
945.786	2891.12
946.016	2809.12
946.245	2729.12
946.475	2750.12
946.705	2758.12
946.935	2740.12
947.164	2749.12
947.394	2697.12
947.624	2712.12
947.853	2773.12
948.083	2698.12
948.312	2681.12
948.542	2663.12
948.771	2647.12
949	2668.12
949.23	2644.12
949.459	2660.12
949.688	2764.12
949.917	2699.12
950.146	2683.12
950.375	2728.12
950.604	2600.12
950.833	2728.12
951.062	2725.12
951.291	2659.12
951.52	2604.12
951.749	2663.12
951.978	2639.12
952.206	2609.12
952.435	2653.12
952.664	2645.12
952.892	2659.12
953.121	2632.12
953.349	2656.12
953.578	2637.12
953.806	2612.12
954.035	2562.12
954.263	2606.12
954.491	2554.12
954.719	2632.12
954.948	2538.12
955.176	2525.12
955.404	2468.12
955.632	2562.12
955.86	2545.12
956.088	2552.12
956.316	2565.12
956.544	2557.12
956.772	2475.12
956.999	2465.12
957.227	2553.12
957.455	2459.12
957.683	2463.12
957.91	2416.12
958.138	2391.12
958.365	2424.12
958.593	2432.12
958.82	2367.12
959.048	2452.12
959.275	2429.12
959.502	2376.12
959.73	2370.12
959.957	2407.12
960.184	2441.12
960.411	2400.12
960.638	2481.12
960.865	2374.12
961.092	2418.12
961.319	2300.12
961.546	2419.12
961.773	2443.12
962	2399.12
962.227	2420.12
962.454	2401.12
962.68	2375.12
962.907	2363.12
963.134	2341.12
963.36	2341.12
963.587	2363.12
963.813	2334.12
964.04	2368.12
964.266	2283.12
964.493	2355.12
964.719	2320.12
964.945	2335.12
965.171	2266.12
965.398	2290.12
965.624	2297.12
965.85	2260.12
966.076	2219.12
966.302	2266.12
966.528	2240.12
966.754	2259.12
966.98	2242.12
967.206	2207.12
967.431	2167.12
967.657	2264.12
967.883	2252.12
968.109	2233.12
968.334	2188.12
968.56	2151.12
968.785	2197.12
969.011	2130.12
969.236	2199.12
969.462	2130.12
969.687	2144.12
969.912	2202.12
970.138	2220.12
970.363	2155.12
970.588	2221.12
970.813	2121.12
971.038	2118.12
971.263	2191.12
971.488	2181.12
971.713	2175.12
971.938	2171.12
972.163	2100.12
972.388	2115.12
972.613	2075.12
972.838	2091.12
973.062	2113.12
973.287	2091.12
973.512	2028.12
973.736	2087.12
973.961	2109.12
974.185	2042.12
974.41	2048.12
974.634	1963.12
974.858	1958.12
975.083	2048.12
975.307	2048.12
975.531	1971.12
975.755	1946.12
975.98	1960.12
976.204	1891.12
976.428	1899.12
976.652	1909.12
976.876	1899.12
977.1	1915.12
977.324	1870.12
977.547	1959.12
977.771	1973.12
977.995	1923.12
978.219	1848.12
978.442	1965.12
978.666	1871.12
978.89	1903.12
979.113	1899.12
979.337	1906.12
979.56	1860.12
979.783	1964.12
980.007	1833.12
980.23	1866.12
980.453	1827.12
980.677	1868.12
980.9	1881.12
981.123	1778.12
981.346	1860.12
981.569	1868.12
981.792	1875.12
982.015	1831.12
982.238	1833.12
982.461	1819.12
982.684	1763.12
982.907	1761.12
983.129	1750.12
983.352	1818.12
983.575	1783.12
983.797	1778.12
984.02	1725.12
984.242	1748.12
984.465	1779.12
984.687	1790.12
984.91	1821.12
985.132	1778.12
985.354	1764.12
985.577	1743.12
985.799	1744.12
986.021	1680.12
986.243	1693.12
986.465	1732.12
986.687	1777.12
986.909	1805.12
987.131	1730.12
987.353	1704.12
987.575	1745.12
987.797	1681.12
988.019	1660.12
988.241	1696.12
988.462	1665.12
988.684	1729.12
988.906	1764.12
989.127	1804.12
989.349	1643.12
989.57	1688.12
989.792	1759.12
990.013	1747.12
990.234	1745.12
990.456	1757.12
990.677	1740.12
990.898	1699.12
991.119	1717.12
991.341	1714.12
991.562	1635.12
991.783	1684.12
992.004	1647.12
992.225	1601.12
992.446	1664.12
992.667	1582.12
992.887	1684.12
993.108	1558.12
993.329	1712.12
993.55	1630.12
993.77	1579.12
993.991	1593.12
994.212	1626.12
994.432	1599.12
994.653	1622.12
994.873	1624.12
995.093	1496.12
995.314	1539.12
995.534	1592.12
995.754	1631.12
995.975	1667.12
996.195	1548.12
996.415	1615.12
996.635	1597.12
996.855	1589.12
997.075	1594.12
997.295	1566.12
997.515	1546.12
997.735	1599.12
997.955	1609.12
998.174	1578.12
998.394	1538.12
998.614	1600.12
998.834	1568.12
999.053	1606.12
999.273	1563.12
999.492	1622.12
999.712	1554.12
999.931	1516.12
1000.151	1582.12
1000.37	1560.12
1000.589	1629.12
1000.809	1505.12
1001.028	1629.12
1001.247	1570.12
1001.466	1443.12
1001.685	1603.12
1001.904	1570.12
1002.123	1531.12
1002.342	1567.12
1002.561	1515.12
1002.78	1543.12
1002.999	1756.12
1003.218	1536.12
1003.436	1512.12
1003.655	1544.12
1003.874	1472.12
1004.092	1558.12
1004.311	1579.12
1004.53	1496.12
1004.748	1599.12
1004.966	1512.12
1005.185	1568.12
1005.403	1546.12
1005.622	1564.12
1005.84	1614.12
1006.058	1492.12
1006.276	1547.12
1006.494	2021.12
1006.712	1545.12
1006.931	1603.12
1007.149	1542.12
1007.367	1540.12
1007.584	1616.12
1007.802	1584.12
1008.02	1583.12
1008.238	1684.12
1008.456	1690.12
1008.673	1569.12
1008.891	1670.12
1009.109	1642.12
1009.326	1739.12
1009.544	1836.12
1009.761	1748.12
1009.979	1873.12
1010.196	1901.12
1010.413	2056.12
1010.631	2169.12
1010.848	2218.12
1011.065	2274.12
1011.282	2216.12
1011.5	2120.12
1011.717	2280.12
1011.934	2196.12
1012.151	2226.12
1012.368	2227.12
1012.585	2136.12
1012.801	2207.12
1013.018	2171.12
1013.235	2130.12
1013.452	2181.12
1013.669	2226.12
1013.885	2202.12
1014.102	2252.12
1014.318	2215.12
1014.535	2172.12
1014.751	2200.12
1014.968	2218.12
1015.184	2229.12
1015.401	2118.12
1015.617	2188.12
1015.833	2082.12
1016.049	2102.12
1016.266	2092.12
1016.482	2100.12
1016.698	2059.12
1016.914	2074.12
1017.13	2035.12
1017.346	1995.12
1017.562	2079.12
1017.778	2004.12
1017.993	1979.12
1018.209	1997.12
1018.425	2022.12
1018.641	1982.12
1018.856	1985.12
1019.072	2003.12
1019.288	2048.12
1019.503	1983.12
1019.719	1939.12
1019.934	1920.12
1020.149	1974.12
1020.365	1934.12
1020.58	1843.12
1020.795	1876.12
1021.011	1812.12
1021.226	1785.12
1021.441	1794.12
1021.656	1688.12
1021.871	1625.12
1022.086	1602.12
1022.301	1563.12
1022.516	1566.12
1022.731	1632.12
1022.946	1525.12
1023.16	1484.12
1023.375	1436.12
1023.59	1418.12
1023.804	1388.12
1024.019	1442.12
1024.234	1318.12
1024.448	1342.12
1024.663	1242.12
1024.877	1278.12
1025.092	1280.12
1025.306	1297.12
1025.52	1164.12
1025.734	1261.12
1025.949	1159.12
1026.163	1115.12
1026.377	1057.12
1026.591	1116.12
1026.805	1025.12
1027.019	989.12
1027.233	970.12
1027.447	921.12
1027.661	1031.12
1027.875	979.12
1028.088	969.12
1028.302	884.12
1028.516	873.12
1028.73	856.12
1028.943	836.12
1029.157	796.12
1029.37	729.12
1029.584	-5.88
1029.797	-0.88
1030.011	1.12
1030.224	-0.88
