Data from QEP037381__271__11-05-46-589.txt Node

Date: Wed Dec 21 11:05:46 EST 2022
User: dcclab
Spectrometer: QEP03738
Trigger mode: 4
Integration Time (sec): 1.000000E1
Scans to average: 1
Electric dark correction enabled: true
Nonlinearity correction enabled: false
Boxcar width: 0
XAxis mode: Wavelengths
Number of Pixels in Spectrum: 1044
>>>>>Begin Spectral Data<<<<<
784.041	11.12
784.3	2.12
784.558	-1.88
784.817	-4.88
785.075	104332.12
785.334	18015.12
785.592	8407.12
785.851	5752.12
786.109	4309.12
786.368	3360.12
786.626	2722.12
786.884	2227.12
787.143	1912.12
787.401	1568.12
787.659	1447.12
787.917	1215.12
788.175	1085.12
788.433	972.12
788.691	867.12
788.949	774.12
789.207	741.12
789.465	644.12
789.723	626.12
789.98	558.12
790.238	591.12
790.496	538.12
790.753	525.12
791.011	591.12
791.268	513.12
791.526	487.12
791.783	499.12
792.041	498.12
792.298	412.12
792.556	468.12
792.813	455.12
793.07	426.12
793.327	404.12
793.584	490.12
793.841	421.12
794.099	422.12
794.356	479.12
794.613	398.12
794.869	428.12
795.126	392.12
795.383	361.12
795.64	401.12
795.897	335.12
796.153	399.12
796.41	387.12
796.667	376.12
796.923	392.12
797.18	368.12
797.436	394.12
797.693	354.12
797.949	402.12
798.206	426.12
798.462	346.12
798.718	393.12
798.974	376.12
799.231	416.12
799.487	394.12
799.743	405.12
799.999	419.12
800.255	406.12
800.511	378.12
800.767	418.12
801.023	376.12
801.279	397.12
801.534	391.12
801.79	433.12
802.046	403.12
802.302	466.12
802.557	458.12
802.813	497.12
803.068	494.12
803.324	632.12
803.579	690.12
803.835	869.12
804.09	1123.12
804.345	1325.12
804.601	1623.12
804.856	1968.12
805.111	2260.12
805.366	2394.12
805.621	2544.12
805.876	2614.12
806.131	2680.12
806.386	2717.12
806.641	2718.12
806.896	2793.12
807.151	2913.12
807.406	2867.12
807.661	2920.12
807.915	3006.12
808.17	3059.12
808.425	3076.12
808.679	3062.12
808.934	3187.12
809.188	3172.12
809.443	3227.12
809.697	3302.12
809.951	3257.12
810.206	3278.12
810.46	3363.12
810.714	3359.12
810.968	3422.12
811.223	3408.12
811.477	3452.12
811.731	3467.12
811.985	3466.12
812.239	3430.12
812.493	3498.12
812.747	3468.12
813	3448.12
813.254	3569.12
813.508	3543.12
813.762	3553.12
814.015	3561.12
814.269	3629.12
814.522	3690.12
814.776	3711.12
815.03	3782.12
815.283	3783.12
815.536	3863.12
815.79	3884.12
816.043	3967.12
816.296	4002.12
816.55	4020.12
816.803	4045.12
817.056	4214.12
817.309	4216.12
817.562	4251.12
817.815	4321.12
818.068	4287.12
818.321	4349.12
818.574	4414.12
818.827	4536.12
819.079	4528.12
819.332	4726.12
819.585	4686.12
819.838	4824.12
820.09	4722.12
820.343	4840.12
820.595	4808.12
820.848	4837.12
821.1	4866.12
821.353	4852.12
821.605	4862.12
821.857	4910.12
822.11	4813.12
822.362	4763.12
822.614	4788.12
822.866	4813.12
823.118	4860.12
823.37	4942.12
823.622	4918.12
823.874	4896.12
824.126	5004.12
824.378	4889.12
824.63	4986.12
824.882	4961.12
825.134	4955.12
825.385	4930.12
825.637	4906.12
825.888	4860.12
826.14	4903.12
826.392	4784.12
826.643	4797.12
826.895	4859.12
827.146	4685.12
827.397	4694.12
827.649	4788.12
827.9	4671.12
828.151	4711.12
828.402	4719.12
828.653	4787.12
828.905	4778.12
829.156	4803.12
829.407	4770.12
829.658	4868.12
829.909	4848.12
830.159	4877.12
830.41	4877.12
830.661	4817.12
830.912	4790.12
831.162	4726.12
831.413	4760.12
831.664	4804.12
831.914	4776.12
832.165	4789.12
832.415	4766.12
832.666	4786.12
832.916	4810.12
833.167	4759.12
833.417	4822.12
833.667	4745.12
833.917	4744.12
834.168	4836.12
834.418	4756.12
834.668	4756.12
834.918	4718.12
835.168	4752.12
835.418	4664.12
835.668	4692.12
835.918	4707.12
836.167	4659.12
836.417	4588.12
836.667	4735.12
836.917	4651.12
837.166	4655.12
837.416	4661.12
837.666	4656.12
837.915	4619.12
838.165	4629.12
838.414	4583.12
838.663	4520.12
838.913	4578.12
839.162	4608.12
839.411	4631.12
839.661	4599.12
839.91	4609.12
840.159	4595.12
840.408	4656.12
840.657	4635.12
840.906	4674.12
841.155	4669.12
841.404	4614.12
841.653	4593.12
841.902	4562.12
842.15	4630.12
842.399	4630.12
842.648	4649.12
842.897	4643.12
843.145	4554.12
843.394	4543.12
843.642	4514.12
843.891	4534.12
844.139	4523.12
844.388	4424.12
844.636	4408.12
844.884	4476.12
845.133	4376.12
845.381	4420.12
845.629	4461.12
845.877	4401.12
846.125	4441.12
846.373	4424.12
846.621	4349.12
846.869	4422.12
847.117	4385.12
847.365	4334.12
847.613	4300.12
847.861	4396.12
848.108	4407.12
848.356	4366.12
848.604	4347.12
848.851	4386.12
849.099	4358.12
849.346	4367.12
849.594	4483.12
849.841	4501.12
850.089	4503.12
850.336	4497.12
850.583	4574.12
850.831	4575.12
851.078	4546.12
851.325	4607.12
851.572	4683.12
851.819	4593.12
852.066	4422.12
852.313	4265.12
852.56	4183.12
852.807	4150.12
853.054	4173.12
853.301	4186.12
853.548	4253.12
853.794	4333.12
854.041	4298.12
854.288	4296.12
854.534	4419.12
854.781	4341.12
855.028	4262.12
855.274	4332.12
855.52	4287.12
855.767	4229.12
856.013	4325.12
856.26	4638.12
856.506	4283.12
856.752	4291.12
856.998	4264.12
857.244	4242.12
857.49	4270.12
857.736	4291.12
857.982	4305.12
858.228	4306.12
858.474	4262.12
858.72	4222.12
858.966	4150.12
859.212	4113.12
859.458	4066.12
859.703	4005.12
859.949	3905.12
860.195	3988.12
860.44	3984.12
860.686	3960.12
860.931	3977.12
861.177	3930.12
861.422	3929.12
861.667	3880.12
861.913	3822.12
862.158	3894.12
862.403	3939.12
862.648	3916.12
862.893	3950.12
863.138	3905.12
863.384	3862.12
863.629	3944.12
863.873	3876.12
864.118	3871.12
864.363	3801.12
864.608	3874.12
864.853	3899.12
865.098	3836.12
865.342	3843.12
865.587	3818.12
865.832	3823.12
866.076	3807.12
866.321	3789.12
866.565	3796.12
866.81	3737.12
867.054	3801.12
867.298	3763.12
867.543	3730.12
867.787	3777.12
868.031	3772.12
868.275	3825.12
868.519	3777.12
868.764	3758.12
869.008	3773.12
869.252	3879.12
869.496	3759.12
869.739	3779.12
869.983	3835.12
870.227	3811.12
870.471	3831.12
870.715	3872.12
870.958	3889.12
871.202	3870.12
871.446	3833.12
871.689	3904.12
871.933	3828.12
872.176	3869.12
872.42	3818.12
872.663	3835.12
872.906	3914.12
873.15	3841.12
873.393	3843.12
873.636	3934.12
873.879	3909.12
874.122	3807.12
874.366	3755.12
874.609	3766.12
874.852	3660.12
875.095	3668.12
875.337	3587.12
875.58	3583.12
875.823	3611.12
876.066	3619.12
876.309	3677.12
876.551	3556.12
876.794	3461.12
877.037	3570.12
877.279	3488.12
877.522	3503.12
877.764	3516.12
878.007	3498.12
878.249	3505.12
878.491	3461.12
878.734	3569.12
878.976	3481.12
879.218	3443.12
879.46	3510.12
879.702	3402.12
879.945	3370.12
880.187	3358.12
880.429	3364.12
880.671	3317.12
880.912	3334.12
881.154	3325.12
881.396	3205.12
881.638	3275.12
881.88	3312.12
882.121	3299.12
882.363	3282.12
882.605	3335.12
882.846	3318.12
883.088	3321.12
883.329	3291.12
883.571	3326.12
883.812	3412.12
884.053	3575.12
884.295	3680.12
884.536	3838.12
884.777	3813.12
885.018	3769.12
885.259	3759.12
885.5	3623.12
885.742	3864.12
885.982	3649.12
886.223	3561.12
886.464	3561.12
886.705	3402.12
886.946	3457.12
887.187	3297.12
887.428	3332.12
887.668	3170.12
887.909	3126.12
888.15	3099.12
888.39	3112.12
888.631	3150.12
888.871	3082.12
889.111	3027.12
889.352	3008.12
889.592	2965.12
889.833	2953.12
890.073	2914.12
890.313	2976.12
890.553	2855.12
890.793	2866.12
891.033	2854.12
891.273	2835.12
891.513	2899.12
891.753	2902.12
891.993	2876.12
892.233	2899.12
892.473	2966.12
892.713	2920.12
892.952	2854.12
893.192	2903.12
893.432	2883.12
893.671	2937.12
893.911	2931.12
894.15	2908.12
894.39	2815.12
894.629	2812.12
894.869	2871.12
895.108	2870.12
895.347	2785.12
895.587	2840.12
895.826	2800.12
896.065	2830.12
896.304	2875.12
896.543	2876.12
896.782	2779.12
897.021	2864.12
897.26	2858.12
897.499	2890.12
897.738	2937.12
897.977	2871.12
898.216	2889.12
898.454	2839.12
898.693	2805.12
898.932	2851.12
899.17	2811.12
899.409	2793.12
899.647	2807.12
899.886	2786.12
900.124	2839.12
900.363	2827.12
900.601	2860.12
900.839	2888.12
901.078	2906.12
901.316	2911.12
901.554	2927.12
901.792	3041.12
902.03	2979.12
902.268	3016.12
902.506	3081.12
902.744	2982.12
902.982	2928.12
903.22	2847.12
903.458	2793.12
903.695	2725.12
903.933	2741.12
904.171	2578.12
904.409	2585.12
904.646	2618.12
904.884	2496.12
905.121	2518.12
905.359	2449.12
905.596	2417.12
905.833	2378.12
906.071	2357.12
906.308	2397.12
906.545	2405.12
906.783	2331.12
907.02	2316.12
907.257	2245.12
907.494	2324.12
907.731	2330.12
907.968	2320.12
908.205	2279.12
908.442	2260.12
908.679	2271.12
908.915	2242.12
909.152	2236.12
909.389	2132.12
909.626	2175.12
909.862	2148.12
910.099	2174.12
910.335	2191.12
910.572	2077.12
910.808	2140.12
911.045	2142.12
911.281	2093.12
911.518	2189.12
911.754	2119.12
911.99	2097.12
912.226	2061.12
912.463	2031.12
912.699	2020.12
912.935	2058.12
913.171	2028.12
913.407	1985.12
913.643	2057.12
913.879	2002.12
914.114	1952.12
914.35	1957.12
914.586	1954.12
914.822	1906.12
915.057	1992.12
915.293	1862.12
915.529	1854.12
915.764	1977.12
916	1899.12
916.235	1896.12
916.471	1925.12
916.706	1832.12
916.941	1865.12
917.177	1893.12
917.412	1932.12
917.647	1906.12
917.882	1849.12
918.117	1906.12
918.352	1886.12
918.588	1943.12
918.823	1866.12
919.057	1841.12
919.292	1763.12
919.527	1886.12
919.762	1787.12
919.997	1861.12
920.232	1756.12
920.466	1817.12
920.701	1718.12
920.935	1781.12
921.17	1734.12
921.405	1702.12
921.639	1763.12
921.873	1719.12
922.108	1788.12
922.342	1753.12
922.576	1688.12
922.811	1698.12
923.045	1746.12
923.279	1777.12
923.513	1676.12
923.747	1747.12
923.981	1703.12
924.215	1663.12
924.449	1674.12
924.683	1629.12
924.917	1655.12
925.151	1655.12
925.385	1694.12
925.618	1683.12
925.852	1660.12
926.086	1593.12
926.319	1669.12
926.553	1638.12
926.786	1688.12
927.02	1642.12
927.253	1714.12
927.486	1675.12
927.72	1623.12
927.953	1674.12
928.186	1620.12
928.42	1676.12
928.653	1604.12
928.886	1588.12
929.119	1641.12
929.352	1602.12
929.585	1635.12
929.818	1592.12
930.051	1609.12
930.284	1605.12
930.516	1563.12
930.749	1562.12
930.982	1623.12
931.215	1576.12
931.447	1528.12
931.68	1561.12
931.912	1534.12
932.145	1530.12
932.377	1568.12
932.61	1669.12
932.842	1499.12
933.074	1572.12
933.307	1503.12
933.539	1614.12
933.771	1604.12
934.003	1559.12
934.236	1624.12
934.468	1603.12
934.7	1553.12
934.932	1604.12
935.164	1536.12
935.395	1515.12
935.627	1559.12
935.859	1577.12
936.091	1529.12
936.323	1548.12
936.554	1594.12
936.786	1516.12
937.017	1494.12
937.249	1554.12
937.481	1480.12
937.712	1569.12
937.943	1542.12
938.175	1530.12
938.406	1519.12
938.637	1576.12
938.869	1477.12
939.1	1539.12
939.331	1503.12
939.562	1531.12
939.793	1513.12
940.024	1560.12
940.255	1564.12
940.486	1532.12
940.717	1533.12
940.948	1509.12
941.179	1448.12
941.409	1491.12
941.64	1474.12
941.871	1506.12
942.102	1474.12
942.332	1506.12
942.563	1521.12
942.793	1503.12
943.024	1451.12
943.254	1464.12
943.484	1537.12
943.715	1539.12
943.945	1514.12
944.175	1446.12
944.405	1418.12
944.636	1438.12
944.866	1501.12
945.096	1513.12
945.326	1425.12
945.556	1469.12
945.786	1506.12
946.016	1447.12
946.245	1418.12
946.475	1428.12
946.705	1416.12
946.935	1434.12
947.164	1422.12
947.394	1397.12
947.624	1417.12
947.853	1461.12
948.083	1410.12
948.312	1418.12
948.542	1362.12
948.771	1345.12
949	1335.12
949.23	1391.12
949.459	1397.12
949.688	1443.12
949.917	1402.12
950.146	1411.12
950.375	1440.12
950.604	1358.12
950.833	1447.12
951.062	1457.12
951.291	1391.12
951.52	1384.12
951.749	1405.12
951.978	1357.12
952.206	1358.12
952.435	1384.12
952.664	1387.12
952.892	1403.12
953.121	1356.12
953.349	1434.12
953.578	1395.12
953.806	1367.12
954.035	1321.12
954.263	1383.12
954.491	1300.12
954.719	1369.12
954.948	1316.12
955.176	1352.12
955.404	1260.12
955.632	1322.12
955.86	1353.12
956.088	1345.12
956.316	1325.12
956.544	1361.12
956.772	1322.12
956.999	1311.12
957.227	1390.12
957.455	1313.12
957.683	1323.12
957.91	1257.12
958.138	1286.12
958.365	1288.12
958.593	1276.12
958.82	1227.12
959.048	1303.12
959.275	1283.12
959.502	1264.12
959.73	1254.12
959.957	1300.12
960.184	1326.12
960.411	1258.12
960.638	1350.12
960.865	1303.12
961.092	1295.12
961.319	1195.12
961.546	1310.12
961.773	1311.12
962	1250.12
962.227	1333.12
962.454	1285.12
962.68	1275.12
962.907	1303.12
963.134	1206.12
963.36	1258.12
963.587	1293.12
963.813	1215.12
964.04	1258.12
964.266	1218.12
964.493	1295.12
964.719	1289.12
964.945	1272.12
965.171	1172.12
965.398	1238.12
965.624	1249.12
965.85	1176.12
966.076	1194.12
966.302	1250.12
966.528	1225.12
966.754	1232.12
966.98	1239.12
967.206	1242.12
967.431	1168.12
967.657	1263.12
967.883	1228.12
968.109	1218.12
968.334	1169.12
968.56	1152.12
968.785	1186.12
969.011	1149.12
969.236	1227.12
969.462	1153.12
969.687	1154.12
969.912	1217.12
970.138	1221.12
970.363	1157.12
970.588	1189.12
970.813	1172.12
971.038	1148.12
971.263	1171.12
971.488	1204.12
971.713	1233.12
971.938	1198.12
972.163	1107.12
972.388	1158.12
972.613	1149.12
972.838	1148.12
973.062	1140.12
973.287	1147.12
973.512	1066.12
973.736	1129.12
973.961	1108.12
974.185	1119.12
974.41	1163.12
974.634	1066.12
974.858	1089.12
975.083	1116.12
975.307	1143.12
975.531	1097.12
975.755	1043.12
975.98	1066.12
976.204	1020.12
976.428	1040.12
976.652	1055.12
976.876	1023.12
977.1	1075.12
977.324	1007.12
977.547	1095.12
977.771	1094.12
977.995	1061.12
978.219	1022.12
978.442	1124.12
978.666	1068.12
978.89	1061.12
979.113	1049.12
979.337	1045.12
979.56	1015.12
979.783	1112.12
980.007	1009.12
980.23	1075.12
980.453	1008.12
980.677	1057.12
980.9	1043.12
981.123	958.12
981.346	1053.12
981.569	1063.12
981.792	1044.12
982.015	1011.12
982.238	996.12
982.461	1029.12
982.684	1004.12
982.907	965.12
983.129	1008.12
983.352	1043.12
983.575	1027.12
983.797	1034.12
984.02	988.12
984.242	976.12
984.465	997.12
984.687	1025.12
984.91	1054.12
985.132	1047.12
985.354	1034.12
985.577	1050.12
985.799	1015.12
986.021	935.12
986.243	998.12
986.465	988.12
986.687	1026.12
986.909	1074.12
987.131	1015.12
987.353	986.12
987.575	1044.12
987.797	991.12
988.019	919.12
988.241	991.12
988.462	974.12
988.684	1008.12
988.906	1050.12
989.127	1076.12
989.349	939.12
989.57	1000.12
989.792	1018.12
990.013	1060.12
990.234	1032.12
990.456	1055.12
990.677	1078.12
990.898	1001.12
991.119	1016.12
991.341	1045.12
991.562	977.12
991.783	1020.12
992.004	964.12
992.225	958.12
992.446	1009.12
992.667	933.12
992.887	1010.12
993.108	929.12
993.329	1041.12
993.55	1007.12
993.77	954.12
993.991	949.12
994.212	995.12
994.432	997.12
994.653	1007.12
994.873	1027.12
995.093	896.12
995.314	944.12
995.534	1012.12
995.754	1028.12
995.975	1028.12
996.195	942.12
996.415	988.12
996.635	987.12
996.855	1006.12
997.075	978.12
997.295	973.12
997.515	969.12
997.735	1024.12
997.955	991.12
998.174	999.12
998.394	957.12
998.614	1004.12
998.834	967.12
999.053	1015.12
999.273	1005.12
999.492	1070.12
999.712	1019.12
999.931	980.12
1000.151	996.12
1000.37	1009.12
1000.589	1042.12
1000.809	967.12
1001.028	1096.12
1001.247	1033.12
1001.466	937.12
1001.685	1078.12
1001.904	1031.12
1002.123	1019.12
1002.342	1050.12
1002.561	971.12
1002.78	1000.12
1002.999	1074.12
1003.218	1037.12
1003.436	1010.12
1003.655	1074.12
1003.874	1008.12
1004.092	1057.12
1004.311	1091.12
1004.53	1043.12
1004.748	1120.12
1004.966	1028.12
1005.185	1105.12
1005.403	1077.12
1005.622	1065.12
1005.84	1132.12
1006.058	1051.12
1006.276	1072.12
1006.494	1539.12
1006.712	1065.12
1006.931	1118.12
1007.149	1029.12
1007.367	1041.12
1007.584	1085.12
1007.802	1114.12
1008.02	1061.12
1008.238	1172.12
1008.456	1161.12
1008.673	1025.12
1008.891	1167.12
1009.109	1100.12
1009.326	1173.12
1009.544	1250.12
1009.761	1173.12
1009.979	1258.12
1010.196	1269.12
1010.413	1357.12
1010.631	1401.12
1010.848	1443.12
1011.065	1455.12
1011.282	1397.12
1011.5	1373.12
1011.717	1473.12
1011.934	1444.12
1012.151	1430.12
1012.368	1450.12
1012.585	1380.12
1012.801	1442.12
1013.018	1417.12
1013.235	1370.12
1013.452	1417.12
1013.669	1424.12
1013.885	1390.12
1014.102	1442.12
1014.318	1451.12
1014.535	1366.12
1014.751	1430.12
1014.968	1428.12
1015.184	1452.12
1015.401	1361.12
1015.617	1427.12
1015.833	1358.12
1016.049	1366.12
1016.266	1347.12
1016.482	1361.12
1016.698	1287.12
1016.914	1353.12
1017.13	1307.12
1017.346	1278.12
1017.562	1371.12
1017.778	1313.12
1017.993	1283.12
1018.209	1343.12
1018.425	1310.12
1018.641	1299.12
1018.856	1282.12
1019.072	1318.12
1019.288	1384.12
1019.503	1298.12
1019.719	1246.12
1019.934	1230.12
1020.149	1312.12
1020.365	1277.12
1020.58	1188.12
1020.795	1267.12
1021.011	1218.12
1021.226	1175.12
1021.441	1162.12
1021.656	1098.12
1021.871	1059.12
1022.086	1056.12
1022.301	1066.12
1022.516	1066.12
1022.731	1096.12
1022.946	1024.12
1023.16	1002.12
1023.375	964.12
1023.59	955.12
1023.804	907.12
1024.019	1027.12
1024.234	900.12
1024.448	943.12
1024.663	881.12
1024.877	890.12
1025.092	901.12
1025.306	900.12
1025.52	830.12
1025.734	904.12
1025.949	810.12
1026.163	809.12
1026.377	746.12
1026.591	817.12
1026.805	732.12
1027.019	748.12
1027.233	698.12
1027.447	659.12
1027.661	752.12
1027.875	708.12
1028.088	723.12
1028.302	639.12
1028.516	638.12
1028.73	637.12
1028.943	637.12
1029.157	589.12
1029.37	543.12
1029.584	-3.88
1029.797	0.12
1030.011	-4.88
1030.224	2.12
