Data from QEP037381__251__11-02-26-587.txt Node

Date: Wed Dec 21 11:02:26 EST 2022
User: dcclab
Spectrometer: QEP03738
Trigger mode: 4
Integration Time (sec): 1.000000E1
Scans to average: 1
Electric dark correction enabled: true
Nonlinearity correction enabled: false
Boxcar width: 0
XAxis mode: Wavelengths
Number of Pixels in Spectrum: 1044
>>>>>Begin Spectral Data<<<<<
784.041	11.88
784.3	2.88
784.558	-1.12
784.817	-3.12
785.075	108596.88
785.334	18101.88
785.592	8208.88
785.851	5670.88
786.109	4247.88
786.368	3314.88
786.626	2628.88
786.884	2181.88
787.143	1824.88
787.401	1519.88
787.659	1345.88
787.917	1157.88
788.175	1040.88
788.433	933.88
788.691	829.88
788.949	767.88
789.207	751.88
789.465	645.88
789.723	613.88
789.98	567.88
790.238	589.88
790.496	554.88
790.753	534.88
791.011	580.88
791.268	510.88
791.526	497.88
791.783	525.88
792.041	500.88
792.298	408.88
792.556	472.88
792.813	458.88
793.07	418.88
793.327	405.88
793.584	490.88
793.841	420.88
794.099	430.88
794.356	495.88
794.613	384.88
794.869	430.88
795.126	385.88
795.383	382.88
795.64	389.88
795.897	342.88
796.153	402.88
796.41	389.88
796.667	361.88
796.923	373.88
797.18	381.88
797.436	400.88
797.693	357.88
797.949	401.88
798.206	442.88
798.462	337.88
798.718	398.88
798.974	382.88
799.231	413.88
799.487	385.88
799.743	408.88
799.999	417.88
800.255	408.88
800.511	379.88
800.767	420.88
801.023	377.88
801.279	405.88
801.534	420.88
801.79	427.88
802.046	410.88
802.302	479.88
802.557	470.88
802.813	515.88
803.068	513.88
803.324	651.88
803.579	727.88
803.835	895.88
804.09	1200.88
804.345	1470.88
804.601	1772.88
804.856	2124.88
805.111	2479.88
805.366	2667.88
805.621	2786.88
805.876	2932.88
806.131	2953.88
806.386	2996.88
806.641	3010.88
806.896	3089.88
807.151	3161.88
807.406	3184.88
807.661	3252.88
807.915	3295.88
808.17	3360.88
808.425	3392.88
808.679	3373.88
808.934	3476.88
809.188	3460.88
809.443	3528.88
809.697	3598.88
809.951	3589.88
810.206	3620.88
810.46	3676.88
810.714	3698.88
810.968	3737.88
811.223	3685.88
811.477	3805.88
811.731	3805.88
811.985	3799.88
812.239	3778.88
812.493	3793.88
812.747	3840.88
813	3797.88
813.254	3912.88
813.508	3904.88
813.762	3894.88
814.015	3902.88
814.269	3956.88
814.522	3997.88
814.776	4039.88
815.03	4108.88
815.283	4116.88
815.536	4242.88
815.79	4244.88
816.043	4321.88
816.296	4407.88
816.55	4394.88
816.803	4472.88
817.056	4560.88
817.309	4550.88
817.562	4691.88
817.815	4703.88
818.068	4681.88
818.321	4726.88
818.574	4747.88
818.827	4821.88
819.079	4936.88
819.332	5082.88
819.585	5105.88
819.838	5176.88
820.09	5148.88
820.343	5226.88
820.595	5214.88
820.848	5265.88
821.1	5291.88
821.353	5207.88
821.605	5257.88
821.857	5348.88
822.11	5164.88
822.362	5190.88
822.614	5193.88
822.866	5230.88
823.118	5225.88
823.37	5329.88
823.622	5340.88
823.874	5371.88
824.126	5442.88
824.378	5318.88
824.63	5397.88
824.882	5379.88
825.134	5361.88
825.385	5372.88
825.637	5347.88
825.888	5261.88
826.14	5271.88
826.392	5234.88
826.643	5214.88
826.895	5282.88
827.146	5166.88
827.397	5101.88
827.649	5201.88
827.9	5078.88
828.151	5101.88
828.402	5137.88
828.653	5104.88
828.905	5202.88
829.156	5185.88
829.407	5162.88
829.658	5242.88
829.909	5263.88
830.159	5258.88
830.41	5228.88
830.661	5212.88
830.912	5140.88
831.162	5108.88
831.413	5113.88
831.664	5220.88
831.914	5163.88
832.165	5151.88
832.415	5149.88
832.666	5148.88
832.916	5187.88
833.167	5125.88
833.417	5195.88
833.667	5125.88
833.917	5119.88
834.168	5127.88
834.418	5137.88
834.668	5155.88
834.918	5045.88
835.168	5098.88
835.418	5018.88
835.668	5067.88
835.918	5058.88
836.167	5039.88
836.417	4932.88
836.667	5040.88
836.917	5052.88
837.166	4998.88
837.416	5017.88
837.666	4989.88
837.915	4921.88
838.165	4930.88
838.414	4951.88
838.663	4872.88
838.913	4977.88
839.162	4905.88
839.411	5030.88
839.661	4911.88
839.91	4919.88
840.159	4906.88
840.408	4974.88
840.657	4962.88
840.906	4952.88
841.155	5012.88
841.404	4920.88
841.653	4920.88
841.902	4911.88
842.15	4970.88
842.399	4974.88
842.648	4886.88
842.897	4953.88
843.145	4900.88
843.394	4879.88
843.642	4799.88
843.891	4835.88
844.139	4802.88
844.388	4748.88
844.636	4636.88
844.884	4739.88
845.133	4679.88
845.381	4733.88
845.629	4719.88
845.877	4671.88
846.125	4723.88
846.373	4709.88
846.621	4618.88
846.869	4713.88
847.117	4656.88
847.365	4642.88
847.613	4613.88
847.861	4633.88
848.108	4674.88
848.356	4574.88
848.604	4595.88
848.851	4660.88
849.099	4661.88
849.346	4602.88
849.594	4713.88
849.841	4756.88
850.089	4773.88
850.336	4796.88
850.583	4862.88
850.831	4872.88
851.078	4842.88
851.325	4821.88
851.572	4921.88
851.819	4802.88
852.066	4626.88
852.313	4525.88
852.56	4484.88
852.807	4436.88
853.054	4403.88
853.301	4440.88
853.548	4467.88
853.794	4579.88
854.041	4578.88
854.288	4540.88
854.534	4687.88
854.781	4578.88
855.028	4557.88
855.274	4665.88
855.52	4526.88
855.767	4515.88
856.013	4576.88
856.26	4795.88
856.506	4508.88
856.752	4519.88
856.998	4505.88
857.244	4454.88
857.49	4537.88
857.736	4560.88
857.982	4535.88
858.228	4528.88
858.474	4421.88
858.72	4412.88
858.966	4418.88
859.212	4366.88
859.458	4247.88
859.703	4303.88
859.949	4202.88
860.195	4225.88
860.44	4206.88
860.686	4142.88
860.931	4208.88
861.177	4163.88
861.422	4125.88
861.667	4073.88
861.913	4111.88
862.158	4107.88
862.403	4150.88
862.648	4166.88
862.893	4211.88
863.138	4144.88
863.384	4149.88
863.629	4160.88
863.873	4140.88
864.118	4097.88
864.363	4068.88
864.608	4137.88
864.853	4127.88
865.098	4070.88
865.342	4080.88
865.587	4025.88
865.832	4061.88
866.076	4080.88
866.321	3984.88
866.565	4017.88
866.81	3946.88
867.054	3992.88
867.298	3987.88
867.543	3931.88
867.787	4018.88
868.031	3979.88
868.275	3969.88
868.519	3933.88
868.764	4011.88
869.008	3986.88
869.252	3964.88
869.496	3977.88
869.739	3935.88
869.983	4024.88
870.227	4020.88
870.471	4002.88
870.715	4037.88
870.958	4075.88
871.202	4005.88
871.446	4045.88
871.689	3997.88
871.933	4041.88
872.176	4070.88
872.42	4060.88
872.663	4009.88
872.906	4085.88
873.15	4056.88
873.393	4002.88
873.636	4077.88
873.879	4029.88
874.122	3966.88
874.366	3876.88
874.609	3917.88
874.852	3847.88
875.095	3843.88
875.337	3755.88
875.58	3690.88
875.823	3775.88
876.066	3750.88
876.309	3837.88
876.551	3708.88
876.794	3636.88
877.037	3672.88
877.279	3637.88
877.522	3651.88
877.764	3674.88
878.007	3647.88
878.249	3635.88
878.491	3611.88
878.734	3628.88
878.976	3619.88
879.218	3598.88
879.46	3611.88
879.702	3611.88
879.945	3517.88
880.187	3540.88
880.429	3513.88
880.671	3465.88
880.912	3464.88
881.154	3479.88
881.396	3379.88
881.638	3454.88
881.88	3397.88
882.121	3359.88
882.363	3427.88
882.605	3480.88
882.846	3460.88
883.088	3472.88
883.329	3449.88
883.571	3437.88
883.812	3542.88
884.053	3672.88
884.295	3783.88
884.536	3929.88
884.777	3832.88
885.018	3828.88
885.259	3865.88
885.5	3677.88
885.742	3945.88
885.982	3711.88
886.223	3642.88
886.464	3616.88
886.705	3540.88
886.946	3496.88
887.187	3379.88
887.428	3415.88
887.668	3318.88
887.909	3235.88
888.15	3200.88
888.39	3253.88
888.631	3245.88
888.871	3219.88
889.111	3172.88
889.352	3148.88
889.592	3117.88
889.833	3092.88
890.073	3069.88
890.313	3093.88
890.553	2970.88
890.793	3010.88
891.033	3006.88
891.273	2992.88
891.513	2962.88
891.753	3039.88
891.993	2985.88
892.233	3033.88
892.473	3076.88
892.713	3038.88
892.952	2963.88
893.192	3064.88
893.432	3055.88
893.671	3038.88
893.911	3027.88
894.15	2998.88
894.39	2905.88
894.629	2973.88
894.869	2979.88
895.108	2965.88
895.347	2915.88
895.587	2972.88
895.826	2890.88
896.065	2904.88
896.304	2947.88
896.543	3008.88
896.782	2887.88
897.021	2934.88
897.26	2957.88
897.499	2999.88
897.738	3026.88
897.977	2951.88
898.216	2941.88
898.454	2893.88
898.693	2870.88
898.932	2933.88
899.17	2868.88
899.409	2886.88
899.647	2895.88
899.886	2867.88
900.124	2910.88
900.363	2863.88
900.601	2928.88
900.839	2928.88
901.078	2979.88
901.316	2960.88
901.554	2976.88
901.792	3028.88
902.03	2983.88
902.268	3014.88
902.506	3032.88
902.744	2991.88
902.982	2990.88
903.22	2876.88
903.458	2816.88
903.695	2829.88
903.933	2761.88
904.171	2655.88
904.409	2627.88
904.646	2652.88
904.884	2553.88
905.121	2620.88
905.359	2545.88
905.596	2517.88
905.833	2418.88
906.071	2467.88
906.308	2497.88
906.545	2444.88
906.783	2379.88
907.02	2435.88
907.257	2379.88
907.494	2424.88
907.731	2427.88
907.968	2406.88
908.205	2344.88
908.442	2352.88
908.679	2309.88
908.915	2304.88
909.152	2334.88
909.389	2216.88
909.626	2262.88
909.862	2235.88
910.099	2265.88
910.335	2279.88
910.572	2163.88
910.808	2235.88
911.045	2190.88
911.281	2176.88
911.518	2231.88
911.754	2158.88
911.99	2166.88
912.226	2164.88
912.463	2128.88
912.699	2122.88
912.935	2119.88
913.171	2090.88
913.407	2047.88
913.643	2132.88
913.879	2083.88
914.114	2079.88
914.35	2028.88
914.586	2016.88
914.822	1984.88
915.057	2084.88
915.293	1901.88
915.529	1916.88
915.764	2007.88
916	1983.88
916.235	1978.88
916.471	2027.88
916.706	1912.88
916.941	1965.88
917.177	1971.88
917.412	1967.88
917.647	1992.88
917.882	1898.88
918.117	1996.88
918.352	1979.88
918.588	2009.88
918.823	1926.88
919.057	1891.88
919.292	1848.88
919.527	1932.88
919.762	1844.88
919.997	1932.88
920.232	1855.88
920.466	1887.88
920.701	1752.88
920.935	1810.88
921.17	1796.88
921.405	1767.88
921.639	1842.88
921.873	1760.88
922.108	1820.88
922.342	1816.88
922.576	1764.88
922.811	1745.88
923.045	1806.88
923.279	1816.88
923.513	1704.88
923.747	1782.88
923.981	1775.88
924.215	1697.88
924.449	1725.88
924.683	1684.88
924.917	1685.88
925.151	1695.88
925.385	1774.88
925.618	1712.88
925.852	1687.88
926.086	1655.88
926.319	1711.88
926.553	1711.88
926.786	1728.88
927.02	1717.88
927.253	1753.88
927.486	1729.88
927.72	1695.88
927.953	1709.88
928.186	1690.88
928.42	1698.88
928.653	1605.88
928.886	1662.88
929.119	1659.88
929.352	1657.88
929.585	1673.88
929.818	1618.88
930.051	1658.88
930.284	1648.88
930.516	1579.88
930.749	1588.88
930.982	1631.88
931.215	1645.88
931.447	1569.88
931.68	1590.88
931.912	1572.88
932.145	1582.88
932.377	1565.88
932.61	1707.88
932.842	1513.88
933.074	1590.88
933.307	1557.88
933.539	1622.88
933.771	1618.88
934.003	1597.88
934.236	1639.88
934.468	1684.88
934.7	1604.88
934.932	1631.88
935.164	1549.88
935.395	1564.88
935.627	1598.88
935.859	1583.88
936.091	1549.88
936.323	1585.88
936.554	1626.88
936.786	1572.88
937.017	1497.88
937.249	1559.88
937.481	1495.88
937.712	1568.88
937.943	1535.88
938.175	1535.88
938.406	1539.88
938.637	1607.88
938.869	1490.88
939.1	1595.88
939.331	1512.88
939.562	1559.88
939.793	1554.88
940.024	1578.88
940.255	1586.88
940.486	1528.88
940.717	1537.88
940.948	1532.88
941.179	1477.88
941.409	1492.88
941.64	1513.88
941.871	1507.88
942.102	1495.88
942.332	1487.88
942.563	1515.88
942.793	1526.88
943.024	1467.88
943.254	1502.88
943.484	1558.88
943.715	1520.88
943.945	1504.88
944.175	1460.88
944.405	1448.88
944.636	1445.88
944.866	1508.88
945.096	1509.88
945.326	1443.88
945.556	1512.88
945.786	1518.88
946.016	1478.88
946.245	1410.88
946.475	1453.88
946.705	1452.88
946.935	1489.88
947.164	1472.88
947.394	1421.88
947.624	1444.88
947.853	1477.88
948.083	1427.88
948.312	1438.88
948.542	1384.88
948.771	1369.88
949	1396.88
949.23	1413.88
949.459	1405.88
949.688	1472.88
949.917	1410.88
950.146	1452.88
950.375	1462.88
950.604	1386.88
950.833	1470.88
951.062	1427.88
951.291	1388.88
951.52	1366.88
951.749	1435.88
951.978	1353.88
952.206	1356.88
952.435	1362.88
952.664	1411.88
952.892	1423.88
953.121	1370.88
953.349	1416.88
953.578	1399.88
953.806	1390.88
954.035	1340.88
954.263	1375.88
954.491	1351.88
954.719	1369.88
954.948	1342.88
955.176	1339.88
955.404	1271.88
955.632	1355.88
955.86	1323.88
956.088	1328.88
956.316	1360.88
956.544	1370.88
956.772	1321.88
956.999	1286.88
957.227	1394.88
957.455	1321.88
957.683	1316.88
957.91	1281.88
958.138	1283.88
958.365	1313.88
958.593	1279.88
958.82	1240.88
959.048	1304.88
959.275	1274.88
959.502	1269.88
959.73	1266.88
959.957	1301.88
960.184	1327.88
960.411	1285.88
960.638	1343.88
960.865	1278.88
961.092	1321.88
961.319	1185.88
961.546	1303.88
961.773	1292.88
962	1249.88
962.227	1319.88
962.454	1259.88
962.68	1264.88
962.907	1265.88
963.134	1250.88
963.36	1285.88
963.587	1290.88
963.813	1202.88
964.04	1267.88
964.266	1209.88
964.493	1309.88
964.719	1276.88
964.945	1293.88
965.171	1176.88
965.398	1226.88
965.624	1263.88
965.85	1203.88
966.076	1220.88
966.302	1269.88
966.528	1202.88
966.754	1225.88
966.98	1230.88
967.206	1223.88
967.431	1157.88
967.657	1250.88
967.883	1223.88
968.109	1228.88
968.334	1181.88
968.56	1165.88
968.785	1179.88
969.011	1133.88
969.236	1207.88
969.462	1149.88
969.687	1175.88
969.912	1228.88
970.138	1251.88
970.363	1161.88
970.588	1183.88
970.813	1175.88
971.038	1157.88
971.263	1190.88
971.488	1185.88
971.713	1215.88
971.938	1198.88
972.163	1113.88
972.388	1152.88
972.613	1133.88
972.838	1137.88
973.062	1154.88
973.287	1130.88
973.512	1084.88
973.736	1142.88
973.961	1126.88
974.185	1089.88
974.41	1161.88
974.634	1083.88
974.858	1067.88
975.083	1114.88
975.307	1156.88
975.531	1078.88
975.755	1058.88
975.98	1074.88
976.204	1026.88
976.428	1034.88
976.652	1026.88
976.876	1004.88
977.1	1066.88
977.324	1013.88
977.547	1064.88
977.771	1101.88
977.995	1053.88
978.219	994.88
978.442	1131.88
978.666	1028.88
978.89	1062.88
979.113	1069.88
979.337	1058.88
979.56	1018.88
979.783	1122.88
980.007	993.88
980.23	1032.88
980.453	1017.88
980.677	1060.88
980.9	1043.88
981.123	969.88
981.346	1058.88
981.569	1034.88
981.792	1059.88
982.015	1022.88
982.238	994.88
982.461	1015.88
982.684	1007.88
982.907	974.88
983.129	976.88
983.352	1029.88
983.575	1013.88
983.797	1034.88
984.02	993.88
984.242	972.88
984.465	1003.88
984.687	1028.88
984.91	1049.88
985.132	1038.88
985.354	1044.88
985.577	1019.88
985.799	1001.88
986.021	939.88
986.243	944.88
986.465	985.88
986.687	1017.88
986.909	1070.88
987.131	993.88
987.353	975.88
987.575	993.88
987.797	990.88
988.019	909.88
988.241	1002.88
988.462	938.88
988.684	1024.88
988.906	1039.88
989.127	1056.88
989.349	953.88
989.57	989.88
989.792	1029.88
990.013	1023.88
990.234	1047.88
990.456	1061.88
990.677	1055.88
990.898	993.88
991.119	989.88
991.341	1027.88
991.562	963.88
991.783	1014.88
992.004	931.88
992.225	922.88
992.446	992.88
992.667	931.88
992.887	1000.88
993.108	907.88
993.329	1031.88
993.55	990.88
993.77	926.88
993.991	936.88
994.212	970.88
994.432	954.88
994.653	988.88
994.873	974.88
995.093	870.88
995.314	940.88
995.534	1015.88
995.754	1021.88
995.975	1014.88
996.195	916.88
996.415	998.88
996.635	962.88
996.855	999.88
997.075	967.88
997.295	961.88
997.515	930.88
997.735	992.88
997.955	972.88
998.174	968.88
998.394	959.88
998.614	980.88
998.834	916.88
999.053	1030.88
999.273	986.88
999.492	1023.88
999.712	970.88
999.931	937.88
1000.151	982.88
1000.37	972.88
1000.589	1035.88
1000.809	950.88
1001.028	1084.88
1001.247	1027.88
1001.466	910.88
1001.685	1054.88
1001.904	1002.88
1002.123	1004.88
1002.342	1016.88
1002.561	960.88
1002.78	990.88
1002.999	1065.88
1003.218	995.88
1003.436	983.88
1003.655	1032.88
1003.874	975.88
1004.092	1004.88
1004.311	1075.88
1004.53	1017.88
1004.748	1072.88
1004.966	1022.88
1005.185	1091.88
1005.403	1056.88
1005.622	1034.88
1005.84	1107.88
1006.058	1009.88
1006.276	1035.88
1006.494	1524.88
1006.712	1024.88
1006.931	1107.88
1007.149	1010.88
1007.367	1025.88
1007.584	1067.88
1007.802	1090.88
1008.02	1034.88
1008.238	1161.88
1008.456	1150.88
1008.673	1015.88
1008.891	1127.88
1009.109	1071.88
1009.326	1117.88
1009.544	1213.88
1009.761	1140.88
1009.979	1226.88
1010.196	1204.88
1010.413	1298.88
1010.631	1347.88
1010.848	1383.88
1011.065	1412.88
1011.282	1324.88
1011.5	1281.88
1011.717	1380.88
1011.934	1337.88
1012.151	1382.88
1012.368	1328.88
1012.585	1307.88
1012.801	1331.88
1013.018	1313.88
1013.235	1290.88
1013.452	1333.88
1013.669	1334.88
1013.885	1298.88
1014.102	1344.88
1014.318	1281.88
1014.535	1284.88
1014.751	1304.88
1014.968	1302.88
1015.184	1344.88
1015.401	1252.88
1015.617	1284.88
1015.833	1240.88
1016.049	1273.88
1016.266	1240.88
1016.482	1255.88
1016.698	1191.88
1016.914	1248.88
1017.13	1196.88
1017.346	1203.88
1017.562	1253.88
1017.778	1188.88
1017.993	1169.88
1018.209	1230.88
1018.425	1188.88
1018.641	1199.88
1018.856	1138.88
1019.072	1170.88
1019.288	1229.88
1019.503	1170.88
1019.719	1118.88
1019.934	1115.88
1020.149	1192.88
1020.365	1108.88
1020.58	1092.88
1020.795	1148.88
1021.011	1098.88
1021.226	1071.88
1021.441	1111.88
1021.656	1009.88
1021.871	963.88
1022.086	947.88
1022.301	968.88
1022.516	951.88
1022.731	1035.88
1022.946	919.88
1023.16	956.88
1023.375	902.88
1023.59	880.88
1023.804	867.88
1024.019	967.88
1024.234	836.88
1024.448	857.88
1024.663	817.88
1024.877	834.88
1025.092	847.88
1025.306	847.88
1025.52	759.88
1025.734	879.88
1025.949	782.88
1026.163	759.88
1026.377	701.88
1026.591	769.88
1026.805	698.88
1027.019	680.88
1027.233	648.88
1027.447	622.88
1027.661	712.88
1027.875	655.88
1028.088	671.88
1028.302	622.88
1028.516	588.88
1028.73	594.88
1028.943	615.88
1029.157	545.88
1029.37	507.88
1029.584	-3.12
1029.797	-2.12
1030.011	-1.12
1030.224	-4.12
