Data from QEP037381__260__11-03-56-588.txt Node

Date: Wed Dec 21 11:03:56 EST 2022
User: dcclab
Spectrometer: QEP03738
Trigger mode: 4
Integration Time (sec): 1.000000E1
Scans to average: 1
Electric dark correction enabled: true
Nonlinearity correction enabled: false
Boxcar width: 0
XAxis mode: Wavelengths
Number of Pixels in Spectrum: 1044
>>>>>Begin Spectral Data<<<<<
784.041	11.88
784.3	-0.12
784.558	-2.12
784.817	-3.12
785.075	87914.88
785.334	15157.88
785.592	7076.88
785.851	4861.88
786.109	3702.88
786.368	2903.88
786.626	2294.88
786.884	1936.88
787.143	1615.88
787.401	1347.88
787.659	1192.88
787.917	1039.88
788.175	965.88
788.433	840.88
788.691	771.88
788.949	700.88
789.207	688.88
789.465	579.88
789.723	582.88
789.98	520.88
790.238	560.88
790.496	534.88
790.753	500.88
791.011	554.88
791.268	484.88
791.526	472.88
791.783	484.88
792.041	473.88
792.298	381.88
792.556	454.88
792.813	441.88
793.07	421.88
793.327	391.88
793.584	476.88
793.841	410.88
794.099	418.88
794.356	465.88
794.613	388.88
794.869	417.88
795.126	371.88
795.383	371.88
795.64	384.88
795.897	344.88
796.153	386.88
796.41	376.88
796.667	364.88
796.923	381.88
797.18	356.88
797.436	398.88
797.693	342.88
797.949	414.88
798.206	415.88
798.462	332.88
798.718	403.88
798.974	364.88
799.231	406.88
799.487	377.88
799.743	386.88
799.999	415.88
800.255	407.88
800.511	380.88
800.767	416.88
801.023	386.88
801.279	396.88
801.534	418.88
801.79	414.88
802.046	403.88
802.302	460.88
802.557	459.88
802.813	513.88
803.068	510.88
803.324	624.88
803.579	745.88
803.835	877.88
804.09	1206.88
804.345	1441.88
804.601	1759.88
804.856	2114.88
805.111	2436.88
805.366	2602.88
805.621	2761.88
805.876	2860.88
806.131	2864.88
806.386	2925.88
806.641	2914.88
806.896	2960.88
807.151	3144.88
807.406	3085.88
807.661	3150.88
807.915	3218.88
808.17	3281.88
808.425	3329.88
808.679	3310.88
808.934	3383.88
809.188	3401.88
809.443	3460.88
809.697	3529.88
809.951	3486.88
810.206	3527.88
810.46	3561.88
810.714	3553.88
810.968	3684.88
811.223	3592.88
811.477	3684.88
811.731	3758.88
811.985	3676.88
812.239	3667.88
812.493	3730.88
812.747	3797.88
813	3752.88
813.254	3804.88
813.508	3866.88
813.762	3858.88
814.015	3821.88
814.269	3943.88
814.522	3996.88
814.776	4006.88
815.03	4041.88
815.283	4114.88
815.536	4148.88
815.79	4248.88
816.043	4305.88
816.296	4278.88
816.55	4346.88
816.803	4388.88
817.056	4527.88
817.309	4507.88
817.562	4553.88
817.815	4643.88
818.068	4672.88
818.321	4718.88
818.574	4745.88
818.827	4865.88
819.079	4913.88
819.332	5093.88
819.585	5085.88
819.838	5145.88
820.09	5118.88
820.343	5271.88
820.595	5121.88
820.848	5232.88
821.1	5285.88
821.353	5228.88
821.605	5248.88
821.857	5349.88
822.11	5200.88
822.362	5277.88
822.614	5244.88
822.866	5286.88
823.118	5272.88
823.37	5427.88
823.622	5360.88
823.874	5354.88
824.126	5441.88
824.378	5328.88
824.63	5425.88
824.882	5417.88
825.134	5373.88
825.385	5400.88
825.637	5350.88
825.888	5299.88
826.14	5310.88
826.392	5229.88
826.643	5209.88
826.895	5313.88
827.146	5190.88
827.397	5146.88
827.649	5269.88
827.9	5129.88
828.151	5149.88
828.402	5158.88
828.653	5214.88
828.905	5217.88
829.156	5237.88
829.407	5209.88
829.658	5219.88
829.909	5256.88
830.159	5267.88
830.41	5209.88
830.661	5208.88
830.912	5201.88
831.162	5160.88
831.413	5183.88
831.664	5190.88
831.914	5179.88
832.165	5200.88
832.415	5133.88
832.666	5177.88
832.916	5240.88
833.167	5182.88
833.417	5251.88
833.667	5192.88
833.917	5176.88
834.168	5262.88
834.418	5183.88
834.668	5136.88
834.918	5121.88
835.168	5161.88
835.418	5084.88
835.668	5128.88
835.918	5118.88
836.167	5092.88
836.417	5063.88
836.667	5074.88
836.917	5077.88
837.166	5048.88
837.416	5019.88
837.666	5109.88
837.915	5009.88
838.165	5019.88
838.414	4937.88
838.663	4921.88
838.913	4962.88
839.162	4937.88
839.411	5029.88
839.661	4913.88
839.91	4976.88
840.159	4934.88
840.408	4951.88
840.657	4973.88
840.906	4991.88
841.155	5004.88
841.404	4982.88
841.653	4958.88
841.902	4964.88
842.15	4980.88
842.399	4978.88
842.648	4967.88
842.897	4956.88
843.145	4906.88
843.394	4889.88
843.642	4843.88
843.891	4904.88
844.139	4837.88
844.388	4738.88
844.636	4800.88
844.884	4744.88
845.133	4710.88
845.381	4814.88
845.629	4789.88
845.877	4743.88
846.125	4770.88
846.373	4782.88
846.621	4721.88
846.869	4813.88
847.117	4728.88
847.365	4708.88
847.613	4698.88
847.861	4699.88
848.108	4698.88
848.356	4673.88
848.604	4654.88
848.851	4725.88
849.099	4690.88
849.346	4696.88
849.594	4759.88
849.841	4798.88
850.089	4795.88
850.336	4786.88
850.583	4898.88
850.831	4893.88
851.078	4881.88
851.325	4885.88
851.572	5006.88
851.819	4907.88
852.066	4696.88
852.313	4552.88
852.56	4460.88
852.807	4504.88
853.054	4456.88
853.301	4479.88
853.548	4543.88
853.794	4659.88
854.041	4614.88
854.288	4526.88
854.534	4709.88
854.781	4653.88
855.028	4610.88
855.274	4620.88
855.52	4541.88
855.767	4534.88
856.013	4565.88
856.26	4824.88
856.506	4502.88
856.752	4526.88
856.998	4505.88
857.244	4493.88
857.49	4522.88
857.736	4603.88
857.982	4538.88
858.228	4548.88
858.474	4496.88
858.72	4489.88
858.966	4478.88
859.212	4401.88
859.458	4336.88
859.703	4301.88
859.949	4252.88
860.195	4266.88
860.44	4227.88
860.686	4186.88
860.931	4230.88
861.177	4116.88
861.422	4192.88
861.667	4136.88
861.913	4149.88
862.158	4126.88
862.403	4224.88
862.648	4226.88
862.893	4258.88
863.138	4260.88
863.384	4148.88
863.629	4179.88
863.873	4214.88
864.118	4189.88
864.363	4099.88
864.608	4193.88
864.853	4166.88
865.098	4150.88
865.342	4153.88
865.587	4086.88
865.832	4143.88
866.076	4105.88
866.321	4088.88
866.565	4068.88
866.81	4000.88
867.054	4035.88
867.298	4057.88
867.543	3991.88
867.787	4051.88
868.031	4011.88
868.275	4029.88
868.519	4061.88
868.764	4042.88
869.008	4032.88
869.252	4065.88
869.496	3963.88
869.739	3950.88
869.983	4098.88
870.227	4013.88
870.471	3979.88
870.715	4047.88
870.958	4043.88
871.202	4024.88
871.446	4084.88
871.689	4025.88
871.933	4059.88
872.176	4065.88
872.42	4046.88
872.663	4003.88
872.906	4054.88
873.15	3984.88
873.393	3914.88
873.636	4016.88
873.879	3997.88
874.122	3983.88
874.366	3886.88
874.609	3850.88
874.852	3803.88
875.095	3843.88
875.337	3819.88
875.58	3722.88
875.823	3804.88
876.066	3827.88
876.309	3872.88
876.551	3741.88
876.794	3721.88
877.037	3755.88
877.279	3683.88
877.522	3667.88
877.764	3695.88
878.007	3684.88
878.249	3739.88
878.491	3673.88
878.734	3734.88
878.976	3717.88
879.218	3627.88
879.46	3674.88
879.702	3662.88
879.945	3599.88
880.187	3527.88
880.429	3531.88
880.671	3547.88
880.912	3552.88
881.154	3480.88
881.396	3420.88
881.638	3520.88
881.88	3540.88
882.121	3479.88
882.363	3482.88
882.605	3571.88
882.846	3522.88
883.088	3513.88
883.329	3472.88
883.571	3462.88
883.812	3517.88
884.053	3592.88
884.295	3688.88
884.536	3802.88
884.777	3775.88
885.018	3718.88
885.259	3736.88
885.5	3674.88
885.742	3920.88
885.982	3654.88
886.223	3604.88
886.464	3613.88
886.705	3512.88
886.946	3466.88
887.187	3381.88
887.428	3444.88
887.668	3332.88
887.909	3350.88
888.15	3217.88
888.39	3303.88
888.631	3326.88
888.871	3245.88
889.111	3223.88
889.352	3204.88
889.592	3139.88
889.833	3146.88
890.073	3126.88
890.313	3179.88
890.553	3042.88
890.793	3099.88
891.033	3053.88
891.273	3058.88
891.513	3047.88
891.753	3093.88
891.993	3053.88
892.233	3062.88
892.473	3090.88
892.713	3082.88
892.952	3040.88
893.192	3113.88
893.432	3085.88
893.671	3149.88
893.911	3123.88
894.15	3046.88
894.39	3004.88
894.629	2991.88
894.869	3020.88
895.108	3022.88
895.347	2926.88
895.587	2992.88
895.826	2982.88
896.065	2983.88
896.304	3034.88
896.543	3020.88
896.782	2970.88
897.021	3012.88
897.26	3025.88
897.499	3048.88
897.738	3083.88
897.977	2987.88
898.216	2985.88
898.454	2899.88
898.693	2878.88
898.932	2963.88
899.17	2902.88
899.409	2902.88
899.647	2892.88
899.886	2908.88
900.124	2881.88
900.363	2901.88
900.601	2922.88
900.839	2935.88
901.078	2947.88
901.316	2948.88
901.554	2946.88
901.792	3050.88
902.03	2961.88
902.268	2973.88
902.506	3005.88
902.744	2956.88
902.982	2958.88
903.22	2892.88
903.458	2836.88
903.695	2862.88
903.933	2787.88
904.171	2678.88
904.409	2633.88
904.646	2669.88
904.884	2594.88
905.121	2634.88
905.359	2594.88
905.596	2571.88
905.833	2515.88
906.071	2497.88
906.308	2561.88
906.545	2518.88
906.783	2449.88
907.02	2488.88
907.257	2427.88
907.494	2417.88
907.731	2451.88
907.968	2520.88
908.205	2401.88
908.442	2385.88
908.679	2374.88
908.915	2400.88
909.152	2364.88
909.389	2304.88
909.626	2337.88
909.862	2279.88
910.099	2312.88
910.335	2304.88
910.572	2249.88
910.808	2278.88
911.045	2299.88
911.281	2246.88
911.518	2303.88
911.754	2255.88
911.99	2234.88
912.226	2217.88
912.463	2182.88
912.699	2189.88
912.935	2165.88
913.171	2173.88
913.407	2139.88
913.643	2202.88
913.879	2146.88
914.114	2133.88
914.35	2075.88
914.586	2100.88
914.822	2046.88
915.057	2123.88
915.293	1990.88
915.529	2038.88
915.764	2091.88
916	2051.88
916.235	2023.88
916.471	2107.88
916.706	1991.88
916.941	2014.88
917.177	1987.88
917.412	2068.88
917.647	2045.88
917.882	1974.88
918.117	2047.88
918.352	1989.88
918.588	2079.88
918.823	1990.88
919.057	1965.88
919.292	1899.88
919.527	1997.88
919.762	1930.88
919.997	1999.88
920.232	1921.88
920.466	1931.88
920.701	1836.88
920.935	1903.88
921.17	1868.88
921.405	1829.88
921.639	1874.88
921.873	1840.88
922.108	1859.88
922.342	1868.88
922.576	1793.88
922.811	1793.88
923.045	1869.88
923.279	1882.88
923.513	1757.88
923.747	1847.88
923.981	1795.88
924.215	1791.88
924.449	1779.88
924.683	1724.88
924.917	1741.88
925.151	1768.88
925.385	1803.88
925.618	1755.88
925.852	1772.88
926.086	1703.88
926.319	1762.88
926.553	1740.88
926.786	1729.88
927.02	1710.88
927.253	1811.88
927.486	1790.88
927.72	1717.88
927.953	1755.88
928.186	1713.88
928.42	1775.88
928.653	1701.88
928.886	1677.88
929.119	1730.88
929.352	1726.88
929.585	1707.88
929.818	1672.88
930.051	1683.88
930.284	1709.88
930.516	1630.88
930.749	1610.88
930.982	1702.88
931.215	1668.88
931.447	1584.88
931.68	1628.88
931.912	1592.88
932.145	1614.88
932.377	1655.88
932.61	1748.88
932.842	1570.88
933.074	1640.88
933.307	1584.88
933.539	1702.88
933.771	1681.88
934.003	1611.88
934.236	1683.88
934.468	1695.88
934.7	1636.88
934.932	1650.88
935.164	1603.88
935.395	1596.88
935.627	1629.88
935.859	1634.88
936.091	1578.88
936.323	1637.88
936.554	1656.88
936.786	1581.88
937.017	1569.88
937.249	1594.88
937.481	1543.88
937.712	1603.88
937.943	1573.88
938.175	1592.88
938.406	1555.88
938.637	1639.88
938.869	1555.88
939.1	1614.88
939.331	1573.88
939.562	1596.88
939.793	1600.88
940.024	1609.88
940.255	1592.88
940.486	1568.88
940.717	1557.88
940.948	1557.88
941.179	1518.88
941.409	1519.88
941.64	1531.88
941.871	1546.88
942.102	1503.88
942.332	1539.88
942.563	1574.88
942.793	1562.88
943.024	1492.88
943.254	1541.88
943.484	1582.88
943.715	1584.88
943.945	1542.88
944.175	1475.88
944.405	1483.88
944.636	1490.88
944.866	1580.88
945.096	1582.88
945.326	1474.88
945.556	1554.88
945.786	1560.88
946.016	1493.88
946.245	1454.88
946.475	1476.88
946.705	1480.88
946.935	1509.88
947.164	1489.88
947.394	1438.88
947.624	1483.88
947.853	1494.88
948.083	1489.88
948.312	1457.88
948.542	1422.88
948.771	1385.88
949	1431.88
949.23	1435.88
949.459	1431.88
949.688	1505.88
949.917	1452.88
950.146	1488.88
950.375	1536.88
950.604	1411.88
950.833	1507.88
951.062	1500.88
951.291	1456.88
951.52	1410.88
951.749	1419.88
951.978	1421.88
952.206	1427.88
952.435	1402.88
952.664	1447.88
952.892	1451.88
953.121	1409.88
953.349	1453.88
953.578	1417.88
953.806	1394.88
954.035	1392.88
954.263	1396.88
954.491	1361.88
954.719	1405.88
954.948	1382.88
955.176	1387.88
955.404	1310.88
955.632	1360.88
955.86	1361.88
956.088	1396.88
956.316	1414.88
956.544	1398.88
956.772	1362.88
956.999	1337.88
957.227	1423.88
957.455	1328.88
957.683	1328.88
957.91	1326.88
958.138	1327.88
958.365	1325.88
958.593	1314.88
958.82	1285.88
959.048	1349.88
959.275	1331.88
959.502	1302.88
959.73	1287.88
959.957	1351.88
960.184	1383.88
960.411	1326.88
960.638	1379.88
960.865	1325.88
961.092	1342.88
961.319	1257.88
961.546	1341.88
961.773	1354.88
962	1297.88
962.227	1336.88
962.454	1315.88
962.68	1302.88
962.907	1328.88
963.134	1293.88
963.36	1290.88
963.587	1318.88
963.813	1274.88
964.04	1279.88
964.266	1255.88
964.493	1332.88
964.719	1319.88
964.945	1282.88
965.171	1220.88
965.398	1248.88
965.624	1290.88
965.85	1227.88
966.076	1236.88
966.302	1278.88
966.528	1266.88
966.754	1273.88
966.98	1256.88
967.206	1234.88
967.431	1203.88
967.657	1252.88
967.883	1286.88
968.109	1259.88
968.334	1215.88
968.56	1183.88
968.785	1226.88
969.011	1186.88
969.236	1227.88
969.462	1215.88
969.687	1214.88
969.912	1262.88
970.138	1263.88
970.363	1181.88
970.588	1223.88
970.813	1195.88
971.038	1184.88
971.263	1214.88
971.488	1207.88
971.713	1246.88
971.938	1238.88
972.163	1143.88
972.388	1178.88
972.613	1177.88
972.838	1193.88
973.062	1166.88
973.287	1157.88
973.512	1089.88
973.736	1166.88
973.961	1138.88
974.185	1127.88
974.41	1166.88
974.634	1071.88
974.858	1121.88
975.083	1145.88
975.307	1146.88
975.531	1105.88
975.755	1065.88
975.98	1106.88
976.204	1053.88
976.428	1052.88
976.652	1053.88
976.876	1048.88
977.1	1095.88
977.324	1049.88
977.547	1089.88
977.771	1082.88
977.995	1075.88
978.219	1037.88
978.442	1148.88
978.666	1084.88
978.89	1074.88
979.113	1081.88
979.337	1062.88
979.56	1042.88
979.783	1127.88
980.007	1012.88
980.23	1069.88
980.453	1044.88
980.677	1078.88
980.9	1056.88
981.123	982.88
981.346	1097.88
981.569	1038.88
981.792	1083.88
982.015	1045.88
982.238	1024.88
982.461	1044.88
982.684	1018.88
982.907	1015.88
983.129	1002.88
983.352	1049.88
983.575	1031.88
983.797	1072.88
984.02	1016.88
984.242	998.88
984.465	1025.88
984.687	1044.88
984.91	1066.88
985.132	1036.88
985.354	1054.88
985.577	1030.88
985.799	1031.88
986.021	942.88
986.243	966.88
986.465	999.88
986.687	1069.88
986.909	1081.88
987.131	1023.88
987.353	994.88
987.575	1017.88
987.797	983.88
988.019	944.88
988.241	1020.88
988.462	971.88
988.684	1015.88
988.906	1060.88
989.127	1090.88
989.349	976.88
989.57	1003.88
989.792	1062.88
990.013	1050.88
990.234	1046.88
990.456	1079.88
990.677	1058.88
990.898	1030.88
991.119	997.88
991.341	1036.88
991.562	969.88
991.783	1018.88
992.004	964.88
992.225	946.88
992.446	1013.88
992.667	945.88
992.887	1019.88
993.108	915.88
993.329	1061.88
993.55	1010.88
993.77	942.88
993.991	942.88
994.212	991.88
994.432	962.88
994.653	996.88
994.873	977.88
995.093	881.88
995.314	919.88
995.534	1014.88
995.754	1016.88
995.975	1050.88
996.195	936.88
996.415	990.88
996.635	957.88
996.855	991.88
997.075	958.88
997.295	953.88
997.515	954.88
997.735	985.88
997.955	956.88
998.174	943.88
998.394	922.88
998.614	981.88
998.834	937.88
999.053	1008.88
999.273	979.88
999.492	1037.88
999.712	974.88
999.931	962.88
1000.151	995.88
1000.37	997.88
1000.589	1036.88
1000.809	965.88
1001.028	1075.88
1001.247	1028.88
1001.466	927.88
1001.685	1066.88
1001.904	1019.88
1002.123	997.88
1002.342	1009.88
1002.561	971.88
1002.78	1003.88
1002.999	1041.88
1003.218	982.88
1003.436	991.88
1003.655	1038.88
1003.874	971.88
1004.092	1007.88
1004.311	1047.88
1004.53	996.88
1004.748	1090.88
1004.966	1019.88
1005.185	1064.88
1005.403	1060.88
1005.622	1027.88
1005.84	1097.88
1006.058	1002.88
1006.276	1034.88
1006.494	1550.88
1006.712	1048.88
1006.931	1098.88
1007.149	1001.88
1007.367	1006.88
1007.584	1058.88
1007.802	1075.88
1008.02	1019.88
1008.238	1141.88
1008.456	1117.88
1008.673	976.88
1008.891	1089.88
1009.109	1034.88
1009.326	1087.88
1009.544	1147.88
1009.761	1036.88
1009.979	1135.88
1010.196	1128.88
1010.413	1210.88
1010.631	1230.88
1010.848	1228.88
1011.065	1260.88
1011.282	1180.88
1011.5	1148.88
1011.717	1243.88
1011.934	1179.88
1012.151	1222.88
1012.368	1224.88
1012.585	1174.88
1012.801	1220.88
1013.018	1176.88
1013.235	1158.88
1013.452	1183.88
1013.669	1181.88
1013.885	1158.88
1014.102	1198.88
1014.318	1137.88
1014.535	1126.88
1014.751	1138.88
1014.968	1149.88
1015.184	1199.88
1015.401	1116.88
1015.617	1165.88
1015.833	1100.88
1016.049	1139.88
1016.266	1111.88
1016.482	1138.88
1016.698	1065.88
1016.914	1124.88
1017.13	1069.88
1017.346	1076.88
1017.562	1171.88
1017.778	1054.88
1017.993	1054.88
1018.209	1134.88
1018.425	1091.88
1018.641	1031.88
1018.856	1009.88
1019.072	1065.88
1019.288	1116.88
1019.503	1064.88
1019.719	989.88
1019.934	1031.88
1020.149	1098.88
1020.365	1008.88
1020.58	983.88
1020.795	1044.88
1021.011	988.88
1021.226	984.88
1021.441	992.88
1021.656	940.88
1021.871	876.88
1022.086	889.88
1022.301	894.88
1022.516	901.88
1022.731	936.88
1022.946	837.88
1023.16	843.88
1023.375	847.88
1023.59	821.88
1023.804	796.88
1024.019	893.88
1024.234	779.88
1024.448	808.88
1024.663	745.88
1024.877	777.88
1025.092	788.88
1025.306	805.88
1025.52	710.88
1025.734	823.88
1025.949	735.88
1026.163	712.88
1026.377	661.88
1026.591	701.88
1026.805	656.88
1027.019	656.88
1027.233	607.88
1027.447	559.88
1027.661	676.88
1027.875	603.88
1028.088	623.88
1028.302	562.88
1028.516	550.88
1028.73	570.88
1028.943	561.88
1029.157	527.88
1029.37	487.88
1029.584	-0.12
1029.797	-2.12
1030.011	-1.12
1030.224	-3.12
