Data from QEP037381__319__11-13-46-590.txt Node

Date: Wed Dec 21 11:13:46 EST 2022
User: dcclab
Spectrometer: QEP03738
Trigger mode: 4
Integration Time (sec): 1.000000E1
Scans to average: 1
Electric dark correction enabled: true
Nonlinearity correction enabled: false
Boxcar width: 0
XAxis mode: Wavelengths
Number of Pixels in Spectrum: 1044
>>>>>Begin Spectral Data<<<<<
784.041	12.38
784.3	-0.62
784.558	-3.62
784.817	-2.62
785.075	92961.38
785.334	16867.38
785.592	8053.38
785.851	5575.38
786.109	4200.38
786.368	3247.38
786.626	2603.38
786.884	2156.38
787.143	1822.38
787.401	1494.38
787.659	1332.38
787.917	1173.38
788.175	1060.38
788.433	926.38
788.691	831.38
788.949	759.38
789.207	748.38
789.465	635.38
789.723	605.38
789.98	561.38
790.238	592.38
790.496	541.38
790.753	524.38
791.011	574.38
791.268	504.38
791.526	484.38
791.783	505.38
792.041	486.38
792.298	407.38
792.556	488.38
792.813	448.38
793.07	433.38
793.327	410.38
793.584	495.38
793.841	412.38
794.099	437.38
794.356	492.38
794.613	393.38
794.869	427.38
795.126	380.38
795.383	373.38
795.64	394.38
795.897	350.38
796.153	414.38
796.41	381.38
796.667	368.38
796.923	374.38
797.18	367.38
797.436	408.38
797.693	363.38
797.949	422.38
798.206	433.38
798.462	352.38
798.718	403.38
798.974	369.38
799.231	403.38
799.487	407.38
799.743	395.38
799.999	423.38
800.255	403.38
800.511	401.38
800.767	424.38
801.023	390.38
801.279	406.38
801.534	422.38
801.79	455.38
802.046	429.38
802.302	495.38
802.557	477.38
802.813	560.38
803.068	571.38
803.324	726.38
803.579	868.38
803.835	1084.38
804.09	1450.38
804.345	1819.38
804.601	2218.38
804.856	2715.38
805.111	3103.38
805.366	3374.38
805.621	3611.38
805.876	3725.38
806.131	3809.38
806.386	3843.38
806.641	3893.38
806.896	3995.38
807.151	4086.38
807.406	4100.38
807.661	4147.38
807.915	4248.38
808.17	4336.38
808.425	4387.38
808.679	4359.38
808.934	4554.38
809.188	4540.38
809.443	4601.38
809.697	4671.38
809.951	4665.38
810.206	4734.38
810.46	4804.38
810.714	4855.38
810.968	4900.38
811.223	4899.38
811.477	4974.38
811.731	4984.38
811.985	4989.38
812.239	5011.38
812.493	5048.38
812.747	5135.38
813	5043.38
813.254	5166.38
813.508	5208.38
813.762	5134.38
814.015	5185.38
814.269	5250.38
814.522	5335.38
814.776	5352.38
815.03	5460.38
815.283	5507.38
815.536	5667.38
815.79	5720.38
816.043	5800.38
816.296	5890.38
816.55	5894.38
816.803	6042.38
817.056	6150.38
817.309	6140.38
817.562	6264.38
817.815	6336.38
818.068	6317.38
818.321	6425.38
818.574	6510.38
818.827	6606.38
819.079	6690.38
819.332	6891.38
819.585	6991.38
819.838	7124.38
820.09	7019.38
820.343	7128.38
820.595	7161.38
820.848	7215.38
821.1	7208.38
821.353	7272.38
821.605	7233.38
821.857	7286.38
822.11	7111.38
822.362	7163.38
822.614	7187.38
822.866	7202.38
823.118	7183.38
823.37	7325.38
823.622	7299.38
823.874	7326.38
824.126	7391.38
824.378	7413.38
824.63	7380.38
824.882	7467.38
825.134	7384.38
825.385	7401.38
825.637	7335.38
825.888	7289.38
826.14	7343.38
826.392	7266.38
826.643	7212.38
826.895	7230.38
827.146	7223.38
827.397	7095.38
827.649	7211.38
827.9	7105.38
828.151	7180.38
828.402	7194.38
828.653	7244.38
828.905	7224.38
829.156	7263.38
829.407	7306.38
829.658	7317.38
829.909	7425.38
830.159	7386.38
830.41	7386.38
830.661	7272.38
830.912	7193.38
831.162	7188.38
831.413	7242.38
831.664	7304.38
831.914	7229.38
832.165	7245.38
832.415	7219.38
832.666	7249.38
832.916	7273.38
833.167	7262.38
833.417	7264.38
833.667	7216.38
833.917	7209.38
834.168	7302.38
834.418	7301.38
834.668	7178.38
834.918	7087.38
835.168	7174.38
835.418	7077.38
835.668	7120.38
835.918	7141.38
836.167	7075.38
836.417	7071.38
836.667	7115.38
836.917	7149.38
837.166	7025.38
837.416	7078.38
837.666	7109.38
837.915	7045.38
838.165	7020.38
838.414	6992.38
838.663	6956.38
838.913	7113.38
839.162	7037.38
839.411	7154.38
839.661	6958.38
839.91	7038.38
840.159	6993.38
840.408	7082.38
840.657	7106.38
840.906	7101.38
841.155	7156.38
841.404	7053.38
841.653	7096.38
841.902	7115.38
842.15	7139.38
842.399	7211.38
842.648	7130.38
842.897	7083.38
843.145	7044.38
843.394	6960.38
843.642	6975.38
843.891	6941.38
844.139	6888.38
844.388	6875.38
844.636	6800.38
844.884	6813.38
845.133	6888.38
845.381	6873.38
845.629	6934.38
845.877	6821.38
846.125	6853.38
846.373	6863.38
846.621	6809.38
846.869	6803.38
847.117	6725.38
847.365	6745.38
847.613	6740.38
847.861	6760.38
848.108	6743.38
848.356	6771.38
848.604	6695.38
848.851	6741.38
849.099	6796.38
849.346	6827.38
849.594	6846.38
849.841	6961.38
850.089	6939.38
850.336	7026.38
850.583	7084.38
850.831	7099.38
851.078	7037.38
851.325	7035.38
851.572	7131.38
851.819	6981.38
852.066	6763.38
852.313	6589.38
852.56	6532.38
852.807	6442.38
853.054	6448.38
853.301	6444.38
853.548	6548.38
853.794	6691.38
854.041	6696.38
854.288	6685.38
854.534	6793.38
854.781	6732.38
855.028	6716.38
855.274	6774.38
855.52	6654.38
855.767	6643.38
856.013	6756.38
856.26	7016.38
856.506	6638.38
856.752	6603.38
856.998	6676.38
857.244	6616.38
857.49	6767.38
857.736	6720.38
857.982	6709.38
858.228	6665.38
858.474	6641.38
858.72	6518.38
858.966	6520.38
859.212	6493.38
859.458	6396.38
859.703	6332.38
859.949	6202.38
860.195	6282.38
860.44	6301.38
860.686	6207.38
860.931	6254.38
861.177	6142.38
861.422	6133.38
861.667	6056.38
861.913	6082.38
862.158	6118.38
862.403	6109.38
862.648	6156.38
862.893	6143.38
863.138	6165.38
863.384	6105.38
863.629	6159.38
863.873	6156.38
864.118	6179.38
864.363	6021.38
864.608	6110.38
864.853	6110.38
865.098	6060.38
865.342	5982.38
865.587	5998.38
865.832	6011.38
866.076	6023.38
866.321	5971.38
866.565	5979.38
866.81	5883.38
867.054	5937.38
867.298	5928.38
867.543	5908.38
867.787	5981.38
868.031	5961.38
868.275	5889.38
868.519	5949.38
868.764	5939.38
869.008	5984.38
869.252	6036.38
869.496	5989.38
869.739	5989.38
869.983	5974.38
870.227	6015.38
870.471	5994.38
870.715	6035.38
870.958	6081.38
871.202	6155.38
871.446	6132.38
871.689	6089.38
871.933	6141.38
872.176	6107.38
872.42	6082.38
872.663	6103.38
872.906	6134.38
873.15	6101.38
873.393	6098.38
873.636	6212.38
873.879	6100.38
874.122	6095.38
874.366	5886.38
874.609	5863.38
874.852	5858.38
875.095	5742.38
875.337	5746.38
875.58	5681.38
875.823	5680.38
876.066	5709.38
876.309	5728.38
876.551	5601.38
876.794	5577.38
877.037	5681.38
877.279	5568.38
877.522	5574.38
877.764	5571.38
878.007	5515.38
878.249	5584.38
878.491	5532.38
878.734	5566.38
878.976	5512.38
879.218	5442.38
879.46	5471.38
879.702	5434.38
879.945	5370.38
880.187	5362.38
880.429	5334.38
880.671	5245.38
880.912	5278.38
881.154	5235.38
881.396	5183.38
881.638	5224.38
881.88	5263.38
882.121	5236.38
882.363	5264.38
882.605	5313.38
882.846	5255.38
883.088	5290.38
883.329	5274.38
883.571	5348.38
883.812	5463.38
884.053	5603.38
884.295	5823.38
884.536	6023.38
884.777	5987.38
885.018	5914.38
885.259	5923.38
885.5	5774.38
885.742	6051.38
885.982	5759.38
886.223	5649.38
886.464	5595.38
886.705	5513.38
886.946	5454.38
887.187	5302.38
887.428	5274.38
887.668	5101.38
887.909	5034.38
888.15	4941.38
888.39	4979.38
888.631	4996.38
888.871	4865.38
889.111	4872.38
889.352	4792.38
889.592	4756.38
889.833	4696.38
890.073	4701.38
890.313	4738.38
890.553	4571.38
890.793	4588.38
891.033	4563.38
891.273	4576.38
891.513	4565.38
891.753	4607.38
891.993	4583.38
892.233	4614.38
892.473	4670.38
892.713	4604.38
892.952	4563.38
893.192	4681.38
893.432	4606.38
893.671	4684.38
893.911	4656.38
894.15	4604.38
894.39	4518.38
894.629	4545.38
894.869	4614.38
895.108	4538.38
895.347	4497.38
895.587	4496.38
895.826	4466.38
896.065	4489.38
896.304	4542.38
896.543	4513.38
896.782	4443.38
897.021	4512.38
897.26	4513.38
897.499	4570.38
897.738	4594.38
897.977	4547.38
898.216	4479.38
898.454	4492.38
898.693	4444.38
898.932	4468.38
899.17	4434.38
899.409	4464.38
899.647	4464.38
899.886	4414.38
900.124	4465.38
900.363	4416.38
900.601	4503.38
900.839	4511.38
901.078	4579.38
901.316	4565.38
901.554	4690.38
901.792	4755.38
902.03	4685.38
902.268	4724.38
902.506	4710.38
902.744	4644.38
902.982	4674.38
903.22	4542.38
903.458	4428.38
903.695	4364.38
903.933	4320.38
904.171	4186.38
904.409	4118.38
904.646	4076.38
904.884	3970.38
905.121	3995.38
905.359	3873.38
905.596	3827.38
905.833	3804.38
906.071	3784.38
906.308	3813.38
906.545	3711.38
906.783	3730.38
907.02	3776.38
907.257	3715.38
907.494	3706.38
907.731	3765.38
907.968	3739.38
908.205	3670.38
908.442	3638.38
908.679	3635.38
908.915	3638.38
909.152	3581.38
909.389	3509.38
909.626	3507.38
909.862	3463.38
910.099	3507.38
910.335	3507.38
910.572	3393.38
910.808	3476.38
911.045	3416.38
911.281	3414.38
911.518	3505.38
911.754	3410.38
911.99	3354.38
912.226	3324.38
912.463	3286.38
912.699	3304.38
912.935	3300.38
913.171	3280.38
913.407	3239.38
913.643	3251.38
913.879	3213.38
914.114	3212.38
914.35	3132.38
914.586	3163.38
914.822	3068.38
915.057	3183.38
915.293	3002.38
915.529	3028.38
915.764	3121.38
916	3104.38
916.235	3087.38
916.471	3082.38
916.706	3051.38
916.941	3018.38
917.177	3034.38
917.412	3087.38
917.647	3094.38
917.882	3049.38
918.117	3040.38
918.352	3068.38
918.588	3080.38
918.823	2998.38
919.057	2983.38
919.292	2895.38
919.527	3003.38
919.762	2892.38
919.997	2950.38
920.232	2858.38
920.466	2924.38
920.701	2776.38
920.935	2843.38
921.17	2762.38
921.405	2749.38
921.639	2794.38
921.873	2772.38
922.108	2794.38
922.342	2780.38
922.576	2747.38
922.811	2741.38
923.045	2761.38
923.279	2794.38
923.513	2674.38
923.747	2763.38
923.981	2695.38
924.215	2689.38
924.449	2681.38
924.683	2626.38
924.917	2659.38
925.151	2641.38
925.385	2692.38
925.618	2642.38
925.852	2648.38
926.086	2618.38
926.319	2640.38
926.553	2641.38
926.786	2657.38
927.02	2628.38
927.253	2647.38
927.486	2671.38
927.72	2572.38
927.953	2656.38
928.186	2634.38
928.42	2621.38
928.653	2577.38
928.886	2570.38
929.119	2610.38
929.352	2579.38
929.585	2562.38
929.818	2505.38
930.051	2534.38
930.284	2561.38
930.516	2465.38
930.749	2443.38
930.982	2514.38
931.215	2492.38
931.447	2421.38
931.68	2416.38
931.912	2449.38
932.145	2436.38
932.377	2470.38
932.61	2626.38
932.842	2415.38
933.074	2437.38
933.307	2412.38
933.539	2537.38
933.771	2485.38
934.003	2438.38
934.236	2548.38
934.468	2537.38
934.7	2465.38
934.932	2502.38
935.164	2422.38
935.395	2417.38
935.627	2419.38
935.859	2439.38
936.091	2409.38
936.323	2492.38
936.554	2497.38
936.786	2430.38
937.017	2352.38
937.249	2402.38
937.481	2386.38
937.712	2444.38
937.943	2416.38
938.175	2382.38
938.406	2418.38
938.637	2444.38
938.869	2355.38
939.1	2397.38
939.331	2383.38
939.562	2420.38
939.793	2385.38
940.024	2396.38
940.255	2414.38
940.486	2332.38
940.717	2367.38
940.948	2337.38
941.179	2328.38
941.409	2336.38
941.64	2339.38
941.871	2321.38
942.102	2320.38
942.332	2323.38
942.563	2358.38
942.793	2337.38
943.024	2309.38
943.254	2330.38
943.484	2365.38
943.715	2412.38
943.945	2372.38
944.175	2314.38
944.405	2272.38
944.636	2291.38
944.866	2346.38
945.096	2349.38
945.326	2265.38
945.556	2328.38
945.786	2344.38
946.016	2311.38
946.245	2249.38
946.475	2244.38
946.705	2275.38
946.935	2248.38
947.164	2237.38
947.394	2217.38
947.624	2255.38
947.853	2270.38
948.083	2240.38
948.312	2205.38
948.542	2186.38
948.771	2127.38
949	2178.38
949.23	2161.38
949.459	2187.38
949.688	2288.38
949.917	2204.38
950.146	2194.38
950.375	2244.38
950.604	2138.38
950.833	2284.38
951.062	2272.38
951.291	2195.38
951.52	2134.38
951.749	2184.38
951.978	2142.38
952.206	2146.38
952.435	2147.38
952.664	2167.38
952.892	2185.38
953.121	2122.38
953.349	2168.38
953.578	2169.38
953.806	2145.38
954.035	2067.38
954.263	2093.38
954.491	2053.38
954.719	2096.38
954.948	2080.38
955.176	2087.38
955.404	2015.38
955.632	2079.38
955.86	2064.38
956.088	2090.38
956.316	2105.38
956.544	2109.38
956.772	2028.38
956.999	1997.38
957.227	2096.38
957.455	2011.38
957.683	2031.38
957.91	1970.38
958.138	1981.38
958.365	1994.38
958.593	1950.38
958.82	1939.38
959.048	2014.38
959.275	1988.38
959.502	1949.38
959.73	1965.38
959.957	1987.38
960.184	2060.38
960.411	1955.38
960.638	2015.38
960.865	1946.38
961.092	2003.38
961.319	1927.38
961.546	2012.38
961.773	1980.38
962	1965.38
962.227	1992.38
962.454	1978.38
962.68	1922.38
962.907	1965.38
963.134	1920.38
963.36	1974.38
963.587	1960.38
963.813	1878.38
964.04	1926.38
964.266	1849.38
964.493	1920.38
964.719	1936.38
964.945	1930.38
965.171	1837.38
965.398	1859.38
965.624	1949.38
965.85	1856.38
966.076	1858.38
966.302	1861.38
966.528	1874.38
966.754	1873.38
966.98	1854.38
967.206	1868.38
967.431	1811.38
967.657	1850.38
967.883	1869.38
968.109	1855.38
968.334	1787.38
968.56	1785.38
968.785	1815.38
969.011	1755.38
969.236	1833.38
969.462	1779.38
969.687	1792.38
969.912	1817.38
970.138	1849.38
970.363	1787.38
970.588	1798.38
970.813	1754.38
971.038	1753.38
971.263	1785.38
971.488	1757.38
971.713	1835.38
971.938	1772.38
972.163	1718.38
972.388	1744.38
972.613	1699.38
972.838	1713.38
973.062	1718.38
973.287	1744.38
973.512	1657.38
973.736	1712.38
973.961	1668.38
974.185	1700.38
974.41	1714.38
974.634	1621.38
974.858	1652.38
975.083	1676.38
975.307	1704.38
975.531	1624.38
975.755	1601.38
975.98	1609.38
976.204	1554.38
976.428	1561.38
976.652	1571.38
976.876	1547.38
977.1	1576.38
977.324	1552.38
977.547	1613.38
977.771	1610.38
977.995	1580.38
978.219	1525.38
978.442	1621.38
978.666	1572.38
978.89	1571.38
979.113	1547.38
979.337	1576.38
979.56	1536.38
979.783	1645.38
980.007	1503.38
980.23	1584.38
980.453	1499.38
980.677	1569.38
980.9	1541.38
981.123	1461.38
981.346	1559.38
981.569	1536.38
981.792	1558.38
982.015	1493.38
982.238	1499.38
982.461	1483.38
982.684	1486.38
982.907	1463.38
983.129	1438.38
983.352	1501.38
983.575	1478.38
983.797	1508.38
984.02	1455.38
984.242	1451.38
984.465	1443.38
984.687	1488.38
984.91	1520.38
985.132	1491.38
985.354	1510.38
985.577	1482.38
985.799	1456.38
986.021	1362.38
986.243	1436.38
986.465	1434.38
986.687	1473.38
986.909	1518.38
987.131	1461.38
987.353	1437.38
987.575	1464.38
987.797	1427.38
988.019	1364.38
988.241	1416.38
988.462	1407.38
988.684	1474.38
988.906	1465.38
989.127	1491.38
989.349	1400.38
989.57	1429.38
989.792	1463.38
990.013	1462.38
990.234	1491.38
990.456	1500.38
990.677	1488.38
990.898	1417.38
991.119	1435.38
991.341	1466.38
991.562	1393.38
991.783	1415.38
992.004	1388.38
992.225	1357.38
992.446	1422.38
992.667	1323.38
992.887	1410.38
993.108	1320.38
993.329	1454.38
993.55	1384.38
993.77	1334.38
993.991	1366.38
994.212	1365.38
994.432	1356.38
994.653	1377.38
994.873	1387.38
995.093	1268.38
995.314	1318.38
995.534	1380.38
995.754	1381.38
995.975	1432.38
996.195	1317.38
996.415	1392.38
996.635	1368.38
996.855	1370.38
997.075	1338.38
997.295	1344.38
997.515	1328.38
997.735	1390.38
997.955	1367.38
998.174	1322.38
998.394	1350.38
998.614	1378.38
998.834	1348.38
999.053	1414.38
999.273	1372.38
999.492	1412.38
999.712	1340.38
999.931	1312.38
1000.151	1372.38
1000.37	1344.38
1000.589	1369.38
1000.809	1330.38
1001.028	1428.38
1001.247	1382.38
1001.466	1273.38
1001.685	1382.38
1001.904	1347.38
1002.123	1336.38
1002.342	1344.38
1002.561	1276.38
1002.78	1312.38
1002.999	1386.38
1003.218	1330.38
1003.436	1327.38
1003.655	1372.38
1003.874	1300.38
1004.092	1314.38
1004.311	1411.38
1004.53	1325.38
1004.748	1408.38
1004.966	1330.38
1005.185	1374.38
1005.403	1367.38
1005.622	1359.38
1005.84	1429.38
1006.058	1327.38
1006.276	1366.38
1006.494	1871.38
1006.712	1383.38
1006.931	1446.38
1007.149	1356.38
1007.367	1375.38
1007.584	1391.38
1007.802	1431.38
1008.02	1396.38
1008.238	1498.38
1008.456	1499.38
1008.673	1369.38
1008.891	1494.38
1009.109	1441.38
1009.326	1500.38
1009.544	1629.38
1009.761	1537.38
1009.979	1686.38
1010.196	1724.38
1010.413	1841.38
1010.631	1891.38
1010.848	1994.38
1011.065	2027.38
1011.282	1940.38
1011.5	1931.38
1011.717	2021.38
1011.934	1935.38
1012.151	1984.38
1012.368	1964.38
1012.585	1908.38
1012.801	1946.38
1013.018	1959.38
1013.235	1954.38
1013.452	1941.38
1013.669	1954.38
1013.885	1963.38
1014.102	1991.38
1014.318	1937.38
1014.535	1966.38
1014.751	1940.38
1014.968	1948.38
1015.184	1968.38
1015.401	1889.38
1015.617	1947.38
1015.833	1860.38
1016.049	1869.38
1016.266	1870.38
1016.482	1828.38
1016.698	1803.38
1016.914	1876.38
1017.13	1766.38
1017.346	1797.38
1017.562	1839.38
1017.778	1758.38
1017.993	1751.38
1018.209	1799.38
1018.425	1745.38
1018.641	1755.38
1018.856	1730.38
1019.072	1751.38
1019.288	1781.38
1019.503	1777.38
1019.719	1668.38
1019.934	1688.38
1020.149	1758.38
1020.365	1683.38
1020.58	1627.38
1020.795	1708.38
1021.011	1584.38
1021.226	1574.38
1021.441	1553.38
1021.656	1459.38
1021.871	1430.38
1022.086	1385.38
1022.301	1382.38
1022.516	1362.38
1022.731	1408.38
1022.946	1313.38
1023.16	1311.38
1023.375	1248.38
1023.59	1252.38
1023.804	1234.38
1024.019	1308.38
1024.234	1161.38
1024.448	1208.38
1024.663	1135.38
1024.877	1122.38
1025.092	1138.38
1025.306	1140.38
1025.52	1028.38
1025.734	1114.38
1025.949	1034.38
1026.163	1012.38
1026.377	928.38
1026.591	993.38
1026.805	902.38
1027.019	879.38
1027.233	889.38
1027.447	834.38
1027.661	936.38
1027.875	858.38
1028.088	852.38
1028.302	810.38
1028.516	791.38
1028.73	785.38
1028.943	761.38
1029.157	715.38
1029.37	670.38
1029.584	-2.62
1029.797	0.38
1030.011	1.38
1030.224	-4.62
