Data from QEP037381__284__11-07-56-589.txt Node

Date: Wed Dec 21 11:07:56 EST 2022
User: dcclab
Spectrometer: QEP03738
Trigger mode: 4
Integration Time (sec): 1.000000E1
Scans to average: 1
Electric dark correction enabled: true
Nonlinearity correction enabled: false
Boxcar width: 0
XAxis mode: Wavelengths
Number of Pixels in Spectrum: 1044
>>>>>Begin Spectral Data<<<<<
784.041	14.38
784.3	0.38
784.558	-3.62
784.817	-2.62
785.075	100689.38
785.334	17013.38
785.592	7914.38
785.851	5467.38
786.109	4153.38
786.368	3187.38
786.626	2607.38
786.884	2161.38
787.143	1837.38
787.401	1511.38
787.659	1361.38
787.917	1158.38
788.175	1046.38
788.433	911.38
788.691	817.38
788.949	742.38
789.207	711.38
789.465	627.38
789.723	589.38
789.98	546.38
790.238	600.38
790.496	523.38
790.753	515.38
791.011	570.38
791.268	489.38
791.526	489.38
791.783	500.38
792.041	487.38
792.298	403.38
792.556	464.38
792.813	453.38
793.07	420.38
793.327	401.38
793.584	491.38
793.841	384.38
794.099	422.38
794.356	479.38
794.613	388.38
794.869	415.38
795.126	387.38
795.383	363.38
795.64	387.38
795.897	330.38
796.153	404.38
796.41	372.38
796.667	356.38
796.923	376.38
797.18	370.38
797.436	391.38
797.693	350.38
797.949	418.38
798.206	425.38
798.462	342.38
798.718	396.38
798.974	374.38
799.231	396.38
799.487	386.38
799.743	378.38
799.999	406.38
800.255	398.38
800.511	368.38
800.767	413.38
801.023	390.38
801.279	406.38
801.534	405.38
801.79	428.38
802.046	409.38
802.302	471.38
802.557	459.38
802.813	499.38
803.068	502.38
803.324	626.38
803.579	690.38
803.835	845.38
804.09	1136.38
804.345	1383.38
804.601	1670.38
804.856	2007.38
805.111	2321.38
805.366	2543.38
805.621	2653.38
805.876	2711.38
806.131	2825.38
806.386	2832.38
806.641	2826.38
806.896	2913.38
807.151	2973.38
807.406	2978.38
807.661	3075.38
807.915	3085.38
808.17	3175.38
808.425	3191.38
808.679	3223.38
808.934	3309.38
809.188	3292.38
809.443	3362.38
809.697	3414.38
809.951	3409.38
810.206	3416.38
810.46	3495.38
810.714	3552.38
810.968	3603.38
811.223	3507.38
811.477	3599.38
811.731	3677.38
811.985	3593.38
812.239	3562.38
812.493	3632.38
812.747	3711.38
813	3627.38
813.254	3717.38
813.508	3771.38
813.762	3748.38
814.015	3711.38
814.269	3820.38
814.522	3813.38
814.776	3905.38
815.03	3888.38
815.283	3984.38
815.536	4059.38
815.79	4083.38
816.043	4202.38
816.296	4224.38
816.55	4254.38
816.803	4364.38
817.056	4449.38
817.309	4435.38
817.562	4450.38
817.815	4591.38
818.068	4495.38
818.321	4573.38
818.574	4607.38
818.827	4754.38
819.079	4759.38
819.332	4993.38
819.585	4955.38
819.838	5038.38
820.09	5010.38
820.343	5116.38
820.595	5026.38
820.848	5179.38
821.1	5155.38
821.353	5131.38
821.605	5094.38
821.857	5153.38
822.11	5069.38
822.362	5093.38
822.614	5085.38
822.866	5143.38
823.118	5067.38
823.37	5189.38
823.622	5199.38
823.874	5209.38
824.126	5267.38
824.378	5256.38
824.63	5275.38
824.882	5279.38
825.134	5282.38
825.385	5258.38
825.637	5252.38
825.888	5146.38
826.14	5197.38
826.392	5147.38
826.643	5109.38
826.895	5075.38
827.146	5120.38
827.397	5042.38
827.649	5107.38
827.9	5031.38
828.151	5036.38
828.402	5069.38
828.653	5087.38
828.905	5124.38
829.156	5130.38
829.407	5106.38
829.658	5155.38
829.909	5199.38
830.159	5158.38
830.41	5146.38
830.661	5121.38
830.912	5106.38
831.162	5075.38
831.413	5098.38
831.664	5135.38
831.914	5147.38
832.165	5130.38
832.415	5159.38
832.666	5151.38
832.916	5109.38
833.167	5063.38
833.417	5183.38
833.667	5163.38
833.917	5077.38
834.168	5148.38
834.418	5144.38
834.668	5092.38
834.918	5024.38
835.168	5054.38
835.418	4963.38
835.668	5020.38
835.918	5000.38
836.167	5018.38
836.417	4952.38
836.667	5000.38
836.917	5012.38
837.166	4978.38
837.416	4985.38
837.666	4972.38
837.915	4957.38
838.165	4914.38
838.414	4928.38
838.663	4904.38
838.913	4993.38
839.162	4860.38
839.411	4974.38
839.661	4868.38
839.91	4941.38
840.159	4956.38
840.408	4986.38
840.657	5036.38
840.906	4941.38
841.155	4965.38
841.404	4936.38
841.653	4989.38
841.902	4954.38
842.15	4959.38
842.399	4989.38
842.648	4989.38
842.897	4983.38
843.145	4871.38
843.394	4906.38
843.642	4857.38
843.891	4876.38
844.139	4809.38
844.388	4742.38
844.636	4758.38
844.884	4756.38
845.133	4743.38
845.381	4827.38
845.629	4825.38
845.877	4753.38
846.125	4794.38
846.373	4855.38
846.621	4701.38
846.869	4776.38
847.117	4749.38
847.365	4672.38
847.613	4721.38
847.861	4680.38
848.108	4714.38
848.356	4674.38
848.604	4661.38
848.851	4665.38
849.099	4709.38
849.346	4722.38
849.594	4793.38
849.841	4850.38
850.089	4856.38
850.336	4881.38
850.583	4964.38
850.831	4946.38
851.078	4902.38
851.325	4956.38
851.572	5031.38
851.819	4934.38
852.066	4751.38
852.313	4573.38
852.56	4517.38
852.807	4434.38
853.054	4542.38
853.301	4536.38
853.548	4510.38
853.794	4700.38
854.041	4648.38
854.288	4661.38
854.534	4727.38
854.781	4660.38
855.028	4660.38
855.274	4684.38
855.52	4662.38
855.767	4580.38
856.013	4713.38
856.26	4975.38
856.506	4583.38
856.752	4577.38
856.998	4581.38
857.244	4596.38
857.49	4647.38
857.736	4687.38
857.982	4652.38
858.228	4675.38
858.474	4582.38
858.72	4588.38
858.966	4526.38
859.212	4494.38
859.458	4436.38
859.703	4377.38
859.949	4315.38
860.195	4314.38
860.44	4304.38
860.686	4263.38
860.931	4340.38
861.177	4266.38
861.422	4300.38
861.667	4205.38
861.913	4197.38
862.158	4201.38
862.403	4293.38
862.648	4319.38
862.893	4292.38
863.138	4267.38
863.384	4268.38
863.629	4281.38
863.873	4242.38
864.118	4218.38
864.363	4164.38
864.608	4207.38
864.853	4281.38
865.098	4141.38
865.342	4166.38
865.587	4117.38
865.832	4170.38
866.076	4150.38
866.321	4148.38
866.565	4131.38
866.81	4067.38
867.054	4109.38
867.298	4107.38
867.543	4102.38
867.787	4143.38
868.031	4109.38
868.275	4098.38
868.519	4108.38
868.764	4121.38
869.008	4137.38
869.252	4098.38
869.496	4100.38
869.739	4144.38
869.983	4158.38
870.227	4212.38
870.471	4118.38
870.715	4226.38
870.958	4248.38
871.202	4257.38
871.446	4251.38
871.689	4202.38
871.933	4233.38
872.176	4201.38
872.42	4202.38
872.663	4220.38
872.906	4250.38
873.15	4184.38
873.393	4178.38
873.636	4262.38
873.879	4232.38
874.122	4206.38
874.366	4108.38
874.609	4098.38
874.852	4041.38
875.095	3983.38
875.337	3958.38
875.58	3886.38
875.823	3933.38
876.066	3915.38
876.309	3947.38
876.551	3880.38
876.794	3866.38
877.037	3903.38
877.279	3876.38
877.522	3828.38
877.764	3835.38
878.007	3824.38
878.249	3810.38
878.491	3764.38
878.734	3843.38
878.976	3792.38
879.218	3739.38
879.46	3824.38
879.702	3759.38
879.945	3687.38
880.187	3594.38
880.429	3647.38
880.671	3611.38
880.912	3644.38
881.154	3590.38
881.396	3529.38
881.638	3607.38
881.88	3608.38
882.121	3606.38
882.363	3603.38
882.605	3664.38
882.846	3662.38
883.088	3648.38
883.329	3648.38
883.571	3623.38
883.812	3701.38
884.053	3859.38
884.295	4025.38
884.536	4180.38
884.777	4133.38
885.018	4098.38
885.259	4119.38
885.5	4002.38
885.742	4215.38
885.982	4014.38
886.223	3890.38
886.464	3831.38
886.705	3765.38
886.946	3733.38
887.187	3606.38
887.428	3625.38
887.668	3522.38
887.909	3448.38
888.15	3379.38
888.39	3395.38
888.631	3388.38
888.871	3365.38
889.111	3317.38
889.352	3292.38
889.592	3212.38
889.833	3202.38
890.073	3208.38
890.313	3252.38
890.553	3097.38
890.793	3167.38
891.033	3120.38
891.273	3122.38
891.513	3120.38
891.753	3176.38
891.993	3095.38
892.233	3166.38
892.473	3217.38
892.713	3152.38
892.952	3145.38
893.192	3184.38
893.432	3128.38
893.671	3231.38
893.911	3180.38
894.15	3159.38
894.39	3084.38
894.629	3096.38
894.869	3137.38
895.108	3131.38
895.347	3054.38
895.587	3121.38
895.826	3071.38
896.065	3091.38
896.304	3123.38
896.543	3147.38
896.782	3083.38
897.021	3092.38
897.26	3091.38
897.499	3199.38
897.738	3217.38
897.977	3141.38
898.216	3125.38
898.454	3060.38
898.693	3072.38
898.932	3107.38
899.17	3070.38
899.409	3060.38
899.647	3050.38
899.886	3060.38
900.124	3119.38
900.363	3074.38
900.601	3113.38
900.839	3141.38
901.078	3152.38
901.316	3190.38
901.554	3248.38
901.792	3285.38
902.03	3258.38
902.268	3328.38
902.506	3322.38
902.744	3261.38
902.982	3243.38
903.22	3161.38
903.458	3076.38
903.695	3032.38
903.933	2969.38
904.171	2887.38
904.409	2818.38
904.646	2856.38
904.884	2725.38
905.121	2734.38
905.359	2695.38
905.596	2676.38
905.833	2596.38
906.071	2592.38
906.308	2630.38
906.545	2611.38
906.783	2538.38
907.02	2565.38
907.257	2511.38
907.494	2544.38
907.731	2545.38
907.968	2535.38
908.205	2486.38
908.442	2518.38
908.679	2481.38
908.915	2502.38
909.152	2464.38
909.389	2392.38
909.626	2398.38
909.862	2359.38
910.099	2355.38
910.335	2429.38
910.572	2310.38
910.808	2359.38
911.045	2346.38
911.281	2278.38
911.518	2360.38
911.754	2309.38
911.99	2301.38
912.226	2301.38
912.463	2257.38
912.699	2259.38
912.935	2243.38
913.171	2252.38
913.407	2194.38
913.643	2270.38
913.879	2210.38
914.114	2167.38
914.35	2123.38
914.586	2147.38
914.822	2119.38
915.057	2197.38
915.293	2064.38
915.529	2037.38
915.764	2141.38
916	2124.38
916.235	2103.38
916.471	2105.38
916.706	2065.38
916.941	2094.38
917.177	2059.38
917.412	2119.38
917.647	2143.38
917.882	2037.38
918.117	2116.38
918.352	2096.38
918.588	2130.38
918.823	2038.38
919.057	2029.38
919.292	1934.38
919.527	2044.38
919.762	1994.38
919.997	2047.38
920.232	1982.38
920.466	2022.38
920.701	1862.38
920.935	1964.38
921.17	1932.38
921.405	1872.38
921.639	1958.38
921.873	1907.38
922.108	1919.38
922.342	1929.38
922.576	1878.38
922.811	1854.38
923.045	1915.38
923.279	1942.38
923.513	1810.38
923.747	1894.38
923.981	1874.38
924.215	1875.38
924.449	1828.38
924.683	1792.38
924.917	1827.38
925.151	1823.38
925.385	1880.38
925.618	1848.38
925.852	1838.38
926.086	1769.38
926.319	1808.38
926.553	1836.38
926.786	1832.38
927.02	1790.38
927.253	1850.38
927.486	1854.38
927.72	1763.38
927.953	1853.38
928.186	1808.38
928.42	1843.38
928.653	1776.38
928.886	1748.38
929.119	1802.38
929.352	1800.38
929.585	1774.38
929.818	1738.38
930.051	1770.38
930.284	1771.38
930.516	1672.38
930.749	1711.38
930.982	1769.38
931.215	1743.38
931.447	1675.38
931.68	1710.38
931.912	1686.38
932.145	1657.38
932.377	1733.38
932.61	1815.38
932.842	1643.38
933.074	1743.38
933.307	1671.38
933.539	1749.38
933.771	1781.38
934.003	1710.38
934.236	1784.38
934.468	1803.38
934.7	1687.38
934.932	1737.38
935.164	1691.38
935.395	1697.38
935.627	1702.38
935.859	1719.38
936.091	1675.38
936.323	1737.38
936.554	1728.38
936.786	1713.38
937.017	1624.38
937.249	1733.38
937.481	1619.38
937.712	1718.38
937.943	1663.38
938.175	1670.38
938.406	1672.38
938.637	1741.38
938.869	1633.38
939.1	1712.38
939.331	1662.38
939.562	1712.38
939.793	1685.38
940.024	1705.38
940.255	1735.38
940.486	1674.38
940.717	1676.38
940.948	1650.38
941.179	1594.38
941.409	1646.38
941.64	1612.38
941.871	1644.38
942.102	1605.38
942.332	1617.38
942.563	1643.38
942.793	1637.38
943.024	1557.38
943.254	1637.38
943.484	1684.38
943.715	1663.38
943.945	1656.38
944.175	1596.38
944.405	1581.38
944.636	1615.38
944.866	1628.38
945.096	1632.38
945.326	1567.38
945.556	1651.38
945.786	1653.38
946.016	1637.38
946.245	1573.38
946.475	1580.38
946.705	1587.38
946.935	1588.38
947.164	1582.38
947.394	1527.38
947.624	1561.38
947.853	1596.38
948.083	1589.38
948.312	1544.38
948.542	1462.38
948.771	1486.38
949	1526.38
949.23	1509.38
949.459	1538.38
949.688	1588.38
949.917	1529.38
950.146	1546.38
950.375	1606.38
950.604	1508.38
950.833	1578.38
951.062	1562.38
951.291	1540.38
951.52	1491.38
951.749	1507.38
951.978	1505.38
952.206	1496.38
952.435	1487.38
952.664	1556.38
952.892	1543.38
953.121	1540.38
953.349	1568.38
953.578	1540.38
953.806	1484.38
954.035	1469.38
954.263	1513.38
954.491	1449.38
954.719	1495.38
954.948	1477.38
955.176	1459.38
955.404	1379.38
955.632	1477.38
955.86	1488.38
956.088	1451.38
956.316	1503.38
956.544	1508.38
956.772	1436.38
956.999	1417.38
957.227	1520.38
957.455	1404.38
957.683	1438.38
957.91	1406.38
958.138	1399.38
958.365	1403.38
958.593	1387.38
958.82	1372.38
959.048	1406.38
959.275	1400.38
959.502	1406.38
959.73	1395.38
959.957	1435.38
960.184	1455.38
960.411	1387.38
960.638	1466.38
960.865	1417.38
961.092	1423.38
961.319	1341.38
961.546	1415.38
961.773	1428.38
962	1387.38
962.227	1409.38
962.454	1386.38
962.68	1403.38
962.907	1437.38
963.134	1373.38
963.36	1383.38
963.587	1412.38
963.813	1339.38
964.04	1386.38
964.266	1344.38
964.493	1424.38
964.719	1376.38
964.945	1404.38
965.171	1305.38
965.398	1352.38
965.624	1362.38
965.85	1306.38
966.076	1301.38
966.302	1361.38
966.528	1306.38
966.754	1368.38
966.98	1338.38
967.206	1357.38
967.431	1274.38
967.657	1362.38
967.883	1330.38
968.109	1342.38
968.334	1295.38
968.56	1284.38
968.785	1298.38
969.011	1269.38
969.236	1334.38
969.462	1282.38
969.687	1293.38
969.912	1327.38
970.138	1347.38
970.363	1279.38
970.588	1289.38
970.813	1286.38
971.038	1270.38
971.263	1329.38
971.488	1308.38
971.713	1315.38
971.938	1309.38
972.163	1228.38
972.388	1261.38
972.613	1251.38
972.838	1294.38
973.062	1258.38
973.287	1254.38
973.512	1203.38
973.736	1241.38
973.961	1210.38
974.185	1215.38
974.41	1250.38
974.634	1165.38
974.858	1169.38
975.083	1240.38
975.307	1267.38
975.531	1176.38
975.755	1134.38
975.98	1160.38
976.204	1135.38
976.428	1134.38
976.652	1145.38
976.876	1091.38
977.1	1187.38
977.324	1119.38
977.547	1177.38
977.771	1175.38
977.995	1155.38
978.219	1102.38
978.442	1211.38
978.666	1167.38
978.89	1146.38
979.113	1133.38
979.337	1161.38
979.56	1091.38
979.783	1220.38
980.007	1097.38
980.23	1152.38
980.453	1140.38
980.677	1159.38
980.9	1135.38
981.123	1029.38
981.346	1160.38
981.569	1119.38
981.792	1175.38
982.015	1127.38
982.238	1094.38
982.461	1118.38
982.684	1106.38
982.907	1055.38
983.129	1077.38
983.352	1109.38
983.575	1098.38
983.797	1111.38
984.02	1064.38
984.242	1084.38
984.465	1095.38
984.687	1130.38
984.91	1161.38
985.132	1133.38
985.354	1135.38
985.577	1102.38
985.799	1097.38
986.021	1041.38
986.243	1070.38
986.465	1082.38
986.687	1125.38
986.909	1142.38
987.131	1088.38
987.353	1061.38
987.575	1106.38
987.797	1066.38
988.019	1014.38
988.241	1081.38
988.462	1045.38
988.684	1091.38
988.906	1129.38
989.127	1146.38
989.349	1027.38
989.57	1068.38
989.792	1098.38
990.013	1126.38
990.234	1121.38
990.456	1162.38
990.677	1111.38
990.898	1080.38
991.119	1084.38
991.341	1126.38
991.562	1068.38
991.783	1101.38
992.004	1036.38
992.225	1031.38
992.446	1074.38
992.667	1007.38
992.887	1114.38
993.108	1002.38
993.329	1121.38
993.55	1062.38
993.77	999.38
993.991	1021.38
994.212	1064.38
994.432	1054.38
994.653	1084.38
994.873	1065.38
995.093	949.38
995.314	1022.38
995.534	1108.38
995.754	1094.38
995.975	1103.38
996.195	1004.38
996.415	1071.38
996.635	1063.38
996.855	1061.38
997.075	1025.38
997.295	1039.38
997.515	1042.38
997.735	1078.38
997.955	1072.38
998.174	1051.38
998.394	1024.38
998.614	1080.38
998.834	1033.38
999.053	1100.38
999.273	1073.38
999.492	1129.38
999.712	1044.38
999.931	1029.38
1000.151	1091.38
1000.37	1067.38
1000.589	1115.38
1000.809	1033.38
1001.028	1164.38
1001.247	1110.38
1001.466	1002.38
1001.685	1162.38
1001.904	1077.38
1002.123	1089.38
1002.342	1089.38
1002.561	1047.38
1002.78	1086.38
1002.999	1120.38
1003.218	1101.38
1003.436	1056.38
1003.655	1125.38
1003.874	1056.38
1004.092	1118.38
1004.311	1136.38
1004.53	1081.38
1004.748	1180.38
1004.966	1099.38
1005.185	1140.38
1005.403	1136.38
1005.622	1132.38
1005.84	1203.38
1006.058	1116.38
1006.276	1125.38
1006.494	1597.38
1006.712	1114.38
1006.931	1223.38
1007.149	1098.38
1007.367	1106.38
1007.584	1145.38
1007.802	1181.38
1008.02	1111.38
1008.238	1232.38
1008.456	1223.38
1008.673	1097.38
1008.891	1230.38
1009.109	1199.38
1009.326	1225.38
1009.544	1321.38
1009.761	1216.38
1009.979	1320.38
1010.196	1340.38
1010.413	1448.38
1010.631	1497.38
1010.848	1510.38
1011.065	1556.38
1011.282	1526.38
1011.5	1451.38
1011.717	1565.38
1011.934	1518.38
1012.151	1517.38
1012.368	1495.38
1012.585	1469.38
1012.801	1528.38
1013.018	1482.38
1013.235	1454.38
1013.452	1478.38
1013.669	1516.38
1013.885	1527.38
1014.102	1533.38
1014.318	1506.38
1014.535	1480.38
1014.751	1498.38
1014.968	1488.38
1015.184	1531.38
1015.401	1452.38
1015.617	1481.38
1015.833	1449.38
1016.049	1446.38
1016.266	1412.38
1016.482	1433.38
1016.698	1370.38
1016.914	1464.38
1017.13	1381.38
1017.346	1375.38
1017.562	1457.38
1017.778	1367.38
1017.993	1343.38
1018.209	1442.38
1018.425	1403.38
1018.641	1367.38
1018.856	1350.38
1019.072	1367.38
1019.288	1433.38
1019.503	1402.38
1019.719	1321.38
1019.934	1326.38
1020.149	1411.38
1020.365	1342.38
1020.58	1302.38
1020.795	1337.38
1021.011	1260.38
1021.226	1246.38
1021.441	1278.38
1021.656	1197.38
1021.871	1118.38
1022.086	1106.38
1022.301	1135.38
1022.516	1101.38
1022.731	1164.38
1022.946	1066.38
1023.16	1066.38
1023.375	1027.38
1023.59	1019.38
1023.804	983.38
1024.019	1061.38
1024.234	961.38
1024.448	991.38
1024.663	910.38
1024.877	938.38
1025.092	973.38
1025.306	960.38
1025.52	863.38
1025.734	945.38
1025.949	870.38
1026.163	853.38
1026.377	795.38
1026.591	832.38
1026.805	754.38
1027.019	757.38
1027.233	728.38
1027.447	689.38
1027.661	784.38
1027.875	735.38
1028.088	728.38
1028.302	668.38
1028.516	663.38
1028.73	651.38
1028.943	656.38
1029.157	604.38
1029.37	557.38
1029.584	-3.62
1029.797	-0.62
1030.011	-1.62
1030.224	-2.62
