Data from QEP037381__294__11-09-36-590.txt Node

Date: Wed Dec 21 11:09:36 EST 2022
User: dcclab
Spectrometer: QEP03738
Trigger mode: 4
Integration Time (sec): 1.000000E1
Scans to average: 1
Electric dark correction enabled: true
Nonlinearity correction enabled: false
Boxcar width: 0
XAxis mode: Wavelengths
Number of Pixels in Spectrum: 1044
>>>>>Begin Spectral Data<<<<<
784.041	12.12
784.3	2.12
784.558	-5.88
784.817	-1.88
785.075	103171.12
785.334	17559.12
785.592	8067.12
785.851	5512.12
786.109	4122.12
786.368	3185.12
786.626	2595.12
786.884	2137.12
787.143	1802.12
787.401	1478.12
787.659	1325.12
787.917	1136.12
788.175	1036.12
788.433	904.12
788.691	808.12
788.949	762.12
789.207	712.12
789.465	615.12
789.723	611.12
789.98	540.12
790.238	577.12
790.496	544.12
790.753	511.12
791.011	568.12
791.268	492.12
791.526	488.12
791.783	496.12
792.041	479.12
792.298	410.12
792.556	463.12
792.813	449.12
793.07	420.12
793.327	412.12
793.584	481.12
793.841	408.12
794.099	424.12
794.356	498.12
794.613	402.12
794.869	429.12
795.126	379.12
795.383	383.12
795.64	393.12
795.897	346.12
796.153	404.12
796.41	376.12
796.667	372.12
796.923	373.12
797.18	375.12
797.436	406.12
797.693	359.12
797.949	419.12
798.206	434.12
798.462	345.12
798.718	402.12
798.974	355.12
799.231	415.12
799.487	393.12
799.743	388.12
799.999	417.12
800.255	392.12
800.511	384.12
800.767	415.12
801.023	388.12
801.279	407.12
801.534	407.12
801.79	438.12
802.046	428.12
802.302	474.12
802.557	463.12
802.813	530.12
803.068	534.12
803.324	663.12
803.579	756.12
803.835	969.12
804.09	1302.12
804.345	1578.12
804.601	1952.12
804.856	2345.12
805.111	2690.12
805.366	2886.12
805.621	3049.12
805.876	3166.12
806.131	3174.12
806.386	3217.12
806.641	3266.12
806.896	3308.12
807.151	3427.12
807.406	3403.12
807.661	3464.12
807.915	3514.12
808.17	3622.12
808.425	3629.12
808.679	3641.12
808.934	3769.12
809.188	3779.12
809.443	3853.12
809.697	3918.12
809.951	3880.12
810.206	3963.12
810.46	4030.12
810.714	4006.12
810.968	4084.12
811.223	4007.12
811.477	4138.12
811.731	4179.12
811.985	4102.12
812.239	4114.12
812.493	4182.12
812.747	4222.12
813	4191.12
813.254	4248.12
813.508	4310.12
813.762	4272.12
814.015	4305.12
814.269	4317.12
814.522	4444.12
814.776	4454.12
815.03	4509.12
815.283	4580.12
815.536	4594.12
815.79	4726.12
816.043	4792.12
816.296	4812.12
816.55	4871.12
816.803	4929.12
817.056	5091.12
817.309	5055.12
817.562	5147.12
817.815	5208.12
818.068	5171.12
818.321	5278.12
818.574	5357.12
818.827	5432.12
819.079	5456.12
819.332	5679.12
819.585	5657.12
819.838	5777.12
820.09	5771.12
820.343	5895.12
820.595	5806.12
820.848	5907.12
821.1	5916.12
821.353	5917.12
821.605	5954.12
821.857	6009.12
822.11	5877.12
822.362	5906.12
822.614	5856.12
822.866	5908.12
823.118	5859.12
823.37	6007.12
823.622	5959.12
823.874	6066.12
824.126	6115.12
824.378	6001.12
824.63	6069.12
824.882	6093.12
825.134	6078.12
825.385	6040.12
825.637	5988.12
825.888	5973.12
826.14	5986.12
826.392	5901.12
826.643	5851.12
826.895	5958.12
827.146	5851.12
827.397	5844.12
827.649	5936.12
827.9	5808.12
828.151	5872.12
828.402	5811.12
828.653	5849.12
828.905	5891.12
829.156	5959.12
829.407	5898.12
829.658	5916.12
829.909	5961.12
830.159	5993.12
830.41	5977.12
830.661	5960.12
830.912	5852.12
831.162	5894.12
831.413	5888.12
831.664	5955.12
831.914	5878.12
832.165	5925.12
832.415	5909.12
832.666	5923.12
832.916	5926.12
833.167	5892.12
833.417	5956.12
833.667	5834.12
833.917	5904.12
834.168	5971.12
834.418	5944.12
834.668	5851.12
834.918	5815.12
835.168	5886.12
835.418	5785.12
835.668	5752.12
835.918	5776.12
836.167	5829.12
836.417	5737.12
836.667	5795.12
836.917	5841.12
837.166	5700.12
837.416	5763.12
837.666	5809.12
837.915	5694.12
838.165	5710.12
838.414	5661.12
838.663	5603.12
838.913	5706.12
839.162	5606.12
839.411	5829.12
839.661	5688.12
839.91	5733.12
840.159	5726.12
840.408	5775.12
840.657	5712.12
840.906	5755.12
841.155	5765.12
841.404	5745.12
841.653	5773.12
841.902	5693.12
842.15	5772.12
842.399	5781.12
842.648	5792.12
842.897	5696.12
843.145	5634.12
843.394	5646.12
843.642	5626.12
843.891	5645.12
844.139	5561.12
844.388	5499.12
844.636	5482.12
844.884	5555.12
845.133	5569.12
845.381	5507.12
845.629	5588.12
845.877	5504.12
846.125	5505.12
846.373	5580.12
846.621	5495.12
846.869	5480.12
847.117	5483.12
847.365	5421.12
847.613	5432.12
847.861	5478.12
848.108	5495.12
848.356	5430.12
848.604	5395.12
848.851	5505.12
849.099	5496.12
849.346	5502.12
849.594	5555.12
849.841	5594.12
850.089	5593.12
850.336	5623.12
850.583	5673.12
850.831	5712.12
851.078	5664.12
851.325	5692.12
851.572	5786.12
851.819	5687.12
852.066	5430.12
852.313	5283.12
852.56	5253.12
852.807	5225.12
853.054	5204.12
853.301	5260.12
853.548	5269.12
853.794	5376.12
854.041	5378.12
854.288	5358.12
854.534	5484.12
854.781	5386.12
855.028	5363.12
855.274	5477.12
855.52	5395.12
855.767	5398.12
856.013	5430.12
856.26	5689.12
856.506	5332.12
856.752	5400.12
856.998	5358.12
857.244	5303.12
857.49	5385.12
857.736	5364.12
857.982	5440.12
858.228	5421.12
858.474	5288.12
858.72	5340.12
858.966	5219.12
859.212	5232.12
859.458	5119.12
859.703	5087.12
859.949	4977.12
860.195	5027.12
860.44	5021.12
860.686	4990.12
860.931	5057.12
861.177	4951.12
861.422	4905.12
861.667	4836.12
861.913	4884.12
862.158	4867.12
862.403	4971.12
862.648	4953.12
862.893	4992.12
863.138	4971.12
863.384	4949.12
863.629	4948.12
863.873	4970.12
864.118	4946.12
864.363	4904.12
864.608	4934.12
864.853	4934.12
865.098	4857.12
865.342	4897.12
865.587	4826.12
865.832	4828.12
866.076	4819.12
866.321	4778.12
866.565	4846.12
866.81	4720.12
867.054	4762.12
867.298	4779.12
867.543	4735.12
867.787	4770.12
868.031	4839.12
868.275	4754.12
868.519	4827.12
868.764	4782.12
869.008	4728.12
869.252	4780.12
869.496	4797.12
869.739	4781.12
869.983	4826.12
870.227	4842.12
870.471	4778.12
870.715	4861.12
870.958	4875.12
871.202	4848.12
871.446	4889.12
871.689	4867.12
871.933	4850.12
872.176	4864.12
872.42	4794.12
872.663	4887.12
872.906	4925.12
873.15	4878.12
873.393	4826.12
873.636	4948.12
873.879	4845.12
874.122	4834.12
874.366	4694.12
874.609	4716.12
874.852	4618.12
875.095	4595.12
875.337	4573.12
875.58	4487.12
875.823	4568.12
876.066	4561.12
876.309	4631.12
876.551	4466.12
876.794	4456.12
877.037	4521.12
877.279	4419.12
877.522	4470.12
877.764	4426.12
878.007	4452.12
878.249	4451.12
878.491	4409.12
878.734	4455.12
878.976	4433.12
879.218	4338.12
879.46	4389.12
879.702	4342.12
879.945	4280.12
880.187	4257.12
880.429	4212.12
880.671	4226.12
880.912	4264.12
881.154	4216.12
881.396	4163.12
881.638	4205.12
881.88	4234.12
882.121	4160.12
882.363	4141.12
882.605	4287.12
882.846	4228.12
883.088	4221.12
883.329	4236.12
883.571	4244.12
883.812	4355.12
884.053	4422.12
884.295	4558.12
884.536	4736.12
884.777	4682.12
885.018	4682.12
885.259	4672.12
885.5	4577.12
885.742	4771.12
885.982	4607.12
886.223	4438.12
886.464	4430.12
886.705	4368.12
886.946	4314.12
887.187	4158.12
887.428	4158.12
887.668	4072.12
887.909	3999.12
888.15	3935.12
888.39	4015.12
888.631	3976.12
888.871	3947.12
889.111	3857.12
889.352	3790.12
889.592	3793.12
889.833	3770.12
890.073	3744.12
890.313	3781.12
890.553	3667.12
890.793	3687.12
891.033	3651.12
891.273	3607.12
891.513	3672.12
891.753	3745.12
891.993	3653.12
892.233	3701.12
892.473	3724.12
892.713	3709.12
892.952	3673.12
893.192	3754.12
893.432	3691.12
893.671	3803.12
893.911	3688.12
894.15	3681.12
894.39	3601.12
894.629	3659.12
894.869	3673.12
895.108	3618.12
895.347	3573.12
895.587	3636.12
895.826	3574.12
896.065	3539.12
896.304	3619.12
896.543	3665.12
896.782	3525.12
897.021	3596.12
897.26	3617.12
897.499	3644.12
897.738	3701.12
897.977	3578.12
898.216	3597.12
898.454	3596.12
898.693	3508.12
898.932	3564.12
899.17	3509.12
899.409	3488.12
899.647	3507.12
899.886	3534.12
900.124	3567.12
900.363	3539.12
900.601	3587.12
900.839	3572.12
901.078	3633.12
901.316	3646.12
901.554	3655.12
901.792	3713.12
902.03	3656.12
902.268	3705.12
902.506	3790.12
902.744	3714.12
902.982	3685.12
903.22	3567.12
903.458	3470.12
903.695	3493.12
903.933	3381.12
904.171	3329.12
904.409	3262.12
904.646	3287.12
904.884	3139.12
905.121	3185.12
905.359	3154.12
905.596	3093.12
905.833	2998.12
906.071	3021.12
906.308	3089.12
906.545	3063.12
906.783	2971.12
907.02	3009.12
907.257	2946.12
907.494	2975.12
907.731	3004.12
907.968	2967.12
908.205	2924.12
908.442	2910.12
908.679	2933.12
908.915	2888.12
909.152	2882.12
909.389	2801.12
909.626	2818.12
909.862	2772.12
910.099	2826.12
910.335	2814.12
910.572	2705.12
910.808	2785.12
911.045	2712.12
911.281	2748.12
911.518	2782.12
911.754	2729.12
911.99	2698.12
912.226	2698.12
912.463	2660.12
912.699	2628.12
912.935	2682.12
913.171	2645.12
913.407	2571.12
913.643	2645.12
913.879	2584.12
914.114	2571.12
914.35	2541.12
914.586	2521.12
914.822	2498.12
915.057	2563.12
915.293	2455.12
915.529	2436.12
915.764	2496.12
916	2495.12
916.235	2468.12
916.471	2508.12
916.706	2428.12
916.941	2452.12
917.177	2468.12
917.412	2453.12
917.647	2506.12
917.882	2421.12
918.117	2469.12
918.352	2445.12
918.588	2487.12
918.823	2415.12
919.057	2406.12
919.292	2285.12
919.527	2440.12
919.762	2353.12
919.997	2384.12
920.232	2312.12
920.466	2336.12
920.701	2233.12
920.935	2286.12
921.17	2250.12
921.405	2229.12
921.639	2270.12
921.873	2242.12
922.108	2262.12
922.342	2247.12
922.576	2182.12
922.811	2176.12
923.045	2248.12
923.279	2263.12
923.513	2168.12
923.747	2210.12
923.981	2225.12
924.215	2137.12
924.449	2163.12
924.683	2129.12
924.917	2116.12
925.151	2123.12
925.385	2200.12
925.618	2139.12
925.852	2121.12
926.086	2091.12
926.319	2105.12
926.553	2125.12
926.786	2138.12
927.02	2091.12
927.253	2146.12
927.486	2147.12
927.72	2082.12
927.953	2141.12
928.186	2073.12
928.42	2117.12
928.653	2104.12
928.886	2067.12
929.119	2107.12
929.352	2101.12
929.585	2080.12
929.818	2013.12
930.051	2057.12
930.284	2051.12
930.516	1969.12
930.749	2016.12
930.982	2045.12
931.215	2021.12
931.447	1960.12
931.68	2000.12
931.912	1970.12
932.145	1954.12
932.377	1980.12
932.61	2145.12
932.842	1933.12
933.074	1992.12
933.307	1953.12
933.539	2048.12
933.771	2004.12
934.003	1991.12
934.236	2060.12
934.468	2062.12
934.7	1963.12
934.932	2032.12
935.164	1946.12
935.395	1954.12
935.627	2003.12
935.859	1983.12
936.091	1923.12
936.323	1984.12
936.554	2002.12
936.786	1983.12
937.017	1896.12
937.249	1964.12
937.481	1884.12
937.712	1976.12
937.943	1943.12
938.175	1925.12
938.406	1938.12
938.637	2011.12
938.869	1889.12
939.1	1952.12
939.331	1911.12
939.562	1969.12
939.793	1927.12
940.024	1958.12
940.255	1946.12
940.486	1916.12
940.717	1898.12
940.948	1887.12
941.179	1885.12
941.409	1877.12
941.64	1874.12
941.871	1914.12
942.102	1861.12
942.332	1867.12
942.563	1909.12
942.793	1880.12
943.024	1833.12
943.254	1871.12
943.484	1898.12
943.715	1947.12
943.945	1944.12
944.175	1831.12
944.405	1848.12
944.636	1859.12
944.866	1912.12
945.096	1888.12
945.326	1856.12
945.556	1887.12
945.786	1873.12
946.016	1879.12
946.245	1814.12
946.475	1833.12
946.705	1835.12
946.935	1841.12
947.164	1835.12
947.394	1778.12
947.624	1806.12
947.853	1832.12
948.083	1840.12
948.312	1785.12
948.542	1733.12
948.771	1735.12
949	1756.12
949.23	1748.12
949.459	1762.12
949.688	1850.12
949.917	1767.12
950.146	1765.12
950.375	1835.12
950.604	1759.12
950.833	1832.12
951.062	1795.12
951.291	1802.12
951.52	1747.12
951.749	1767.12
951.978	1746.12
952.206	1742.12
952.435	1735.12
952.664	1774.12
952.892	1781.12
953.121	1791.12
953.349	1788.12
953.578	1752.12
953.806	1754.12
954.035	1704.12
954.263	1759.12
954.491	1687.12
954.719	1752.12
954.948	1688.12
955.176	1675.12
955.404	1616.12
955.632	1656.12
955.86	1718.12
956.088	1692.12
956.316	1728.12
956.544	1724.12
956.772	1688.12
956.999	1659.12
957.227	1736.12
957.455	1652.12
957.683	1647.12
957.91	1630.12
958.138	1607.12
958.365	1634.12
958.593	1608.12
958.82	1574.12
959.048	1653.12
959.275	1608.12
959.502	1595.12
959.73	1595.12
959.957	1653.12
960.184	1681.12
960.411	1629.12
960.638	1691.12
960.865	1616.12
961.092	1649.12
961.319	1551.12
961.546	1637.12
961.773	1666.12
962	1594.12
962.227	1664.12
962.454	1606.12
962.68	1572.12
962.907	1624.12
963.134	1569.12
963.36	1588.12
963.587	1629.12
963.813	1543.12
964.04	1595.12
964.266	1536.12
964.493	1602.12
964.719	1601.12
964.945	1596.12
965.171	1490.12
965.398	1556.12
965.624	1571.12
965.85	1492.12
966.076	1525.12
966.302	1580.12
966.528	1515.12
966.754	1564.12
966.98	1538.12
967.206	1532.12
967.431	1476.12
967.657	1582.12
967.883	1543.12
968.109	1521.12
968.334	1506.12
968.56	1464.12
968.785	1494.12
969.011	1431.12
969.236	1524.12
969.462	1462.12
969.687	1486.12
969.912	1537.12
970.138	1529.12
970.363	1470.12
970.588	1497.12
970.813	1433.12
971.038	1445.12
971.263	1482.12
971.488	1496.12
971.713	1506.12
971.938	1503.12
972.163	1418.12
972.388	1471.12
972.613	1440.12
972.838	1421.12
973.062	1421.12
973.287	1429.12
973.512	1372.12
973.736	1421.12
973.961	1411.12
974.185	1406.12
974.41	1443.12
974.634	1336.12
974.858	1372.12
975.083	1434.12
975.307	1432.12
975.531	1367.12
975.755	1287.12
975.98	1358.12
976.204	1292.12
976.428	1290.12
976.652	1300.12
976.876	1295.12
977.1	1343.12
977.324	1285.12
977.547	1344.12
977.771	1346.12
977.995	1327.12
978.219	1265.12
978.442	1404.12
978.666	1313.12
978.89	1315.12
979.113	1324.12
979.337	1344.12
979.56	1296.12
979.783	1373.12
980.007	1272.12
980.23	1270.12
980.453	1266.12
980.677	1323.12
980.9	1293.12
981.123	1206.12
981.346	1312.12
981.569	1299.12
981.792	1324.12
982.015	1265.12
982.238	1241.12
982.461	1248.12
982.684	1246.12
982.907	1231.12
983.129	1242.12
983.352	1260.12
983.575	1230.12
983.797	1262.12
984.02	1197.12
984.242	1224.12
984.465	1228.12
984.687	1267.12
984.91	1280.12
985.132	1260.12
985.354	1288.12
985.577	1260.12
985.799	1229.12
986.021	1159.12
986.243	1183.12
986.465	1220.12
986.687	1280.12
986.909	1308.12
987.131	1221.12
987.353	1200.12
987.575	1239.12
987.797	1206.12
988.019	1148.12
988.241	1197.12
988.462	1167.12
988.684	1241.12
988.906	1287.12
989.127	1294.12
989.349	1173.12
989.57	1234.12
989.792	1229.12
990.013	1247.12
990.234	1248.12
990.456	1291.12
990.677	1258.12
990.898	1200.12
991.119	1221.12
991.341	1253.12
991.562	1181.12
991.783	1231.12
992.004	1173.12
992.225	1167.12
992.446	1190.12
992.667	1132.12
992.887	1209.12
993.108	1116.12
993.329	1232.12
993.55	1180.12
993.77	1133.12
993.991	1132.12
994.212	1177.12
994.432	1167.12
994.653	1188.12
994.873	1183.12
995.093	1076.12
995.314	1133.12
995.534	1200.12
995.754	1225.12
995.975	1221.12
996.195	1119.12
996.415	1196.12
996.635	1145.12
996.855	1166.12
997.075	1150.12
997.295	1148.12
997.515	1135.12
997.735	1207.12
997.955	1186.12
998.174	1166.12
998.394	1148.12
998.614	1184.12
998.834	1119.12
999.053	1214.12
999.273	1169.12
999.492	1203.12
999.712	1190.12
999.931	1118.12
1000.151	1175.12
1000.37	1158.12
1000.589	1219.12
1000.809	1143.12
1001.028	1275.12
1001.247	1201.12
1001.466	1097.12
1001.685	1247.12
1001.904	1174.12
1002.123	1163.12
1002.342	1175.12
1002.561	1135.12
1002.78	1157.12
1002.999	1235.12
1003.218	1173.12
1003.436	1153.12
1003.655	1204.12
1003.874	1132.12
1004.092	1158.12
1004.311	1211.12
1004.53	1170.12
1004.748	1243.12
1004.966	1174.12
1005.185	1240.12
1005.403	1215.12
1005.622	1211.12
1005.84	1277.12
1006.058	1172.12
1006.276	1198.12
1006.494	1673.12
1006.712	1203.12
1006.931	1257.12
1007.149	1175.12
1007.367	1199.12
1007.584	1219.12
1007.802	1243.12
1008.02	1195.12
1008.238	1338.12
1008.456	1314.12
1008.673	1164.12
1008.891	1288.12
1009.109	1249.12
1009.326	1299.12
1009.544	1398.12
1009.761	1301.12
1009.979	1389.12
1010.196	1432.12
1010.413	1532.12
1010.631	1586.12
1010.848	1643.12
1011.065	1643.12
1011.282	1595.12
1011.5	1542.12
1011.717	1644.12
1011.934	1587.12
1012.151	1611.12
1012.368	1607.12
1012.585	1544.12
1012.801	1613.12
1013.018	1561.12
1013.235	1550.12
1013.452	1537.12
1013.669	1583.12
1013.885	1580.12
1014.102	1612.12
1014.318	1579.12
1014.535	1530.12
1014.751	1588.12
1014.968	1575.12
1015.184	1583.12
1015.401	1492.12
1015.617	1538.12
1015.833	1479.12
1016.049	1496.12
1016.266	1495.12
1016.482	1503.12
1016.698	1411.12
1016.914	1486.12
1017.13	1432.12
1017.346	1423.12
1017.562	1458.12
1017.778	1451.12
1017.993	1360.12
1018.209	1455.12
1018.425	1423.12
1018.641	1401.12
1018.856	1396.12
1019.072	1416.12
1019.288	1477.12
1019.503	1402.12
1019.719	1348.12
1019.934	1362.12
1020.149	1407.12
1020.365	1353.12
1020.58	1319.12
1020.795	1338.12
1021.011	1272.12
1021.226	1249.12
1021.441	1274.12
1021.656	1189.12
1021.871	1146.12
1022.086	1132.12
1022.301	1139.12
1022.516	1126.12
1022.731	1174.12
1022.946	1092.12
1023.16	1088.12
1023.375	1042.12
1023.59	1036.12
1023.804	1000.12
1024.019	1080.12
1024.234	983.12
1024.448	986.12
1024.663	925.12
1024.877	933.12
1025.092	964.12
1025.306	958.12
1025.52	885.12
1025.734	962.12
1025.949	893.12
1026.163	846.12
1026.377	792.12
1026.591	853.12
1026.805	761.12
1027.019	759.12
1027.233	738.12
1027.447	683.12
1027.661	775.12
1027.875	739.12
1028.088	727.12
1028.302	666.12
1028.516	671.12
1028.73	660.12
1028.943	657.12
1029.157	614.12
1029.37	560.12
1029.584	0.12
1029.797	-0.88
1030.011	-3.88
1030.224	-1.88
