Data from QEP037381__299__11-10-26-590.txt Node

Date: Wed Dec 21 11:10:26 EST 2022
User: dcclab
Spectrometer: QEP03738
Trigger mode: 4
Integration Time (sec): 1.000000E1
Scans to average: 1
Electric dark correction enabled: true
Nonlinearity correction enabled: false
Boxcar width: 0
XAxis mode: Wavelengths
Number of Pixels in Spectrum: 1044
>>>>>Begin Spectral Data<<<<<
784.041	13.25
784.3	2.25
784.558	-1.75
784.817	-5.75
785.075	99526.25
785.334	17188.25
785.592	8075.25
785.851	5582.25
786.109	4184.25
786.368	3277.25
786.626	2597.25
786.884	2188.25
787.143	1800.25
787.401	1467.25
787.659	1358.25
787.917	1152.25
788.175	1035.25
788.433	918.25
788.691	824.25
788.949	745.25
789.207	717.25
789.465	612.25
789.723	597.25
789.98	551.25
790.238	584.25
790.496	533.25
790.753	510.25
791.011	569.25
791.268	491.25
791.526	486.25
791.783	489.25
792.041	475.25
792.298	397.25
792.556	446.25
792.813	448.25
793.07	423.25
793.327	423.25
793.584	491.25
793.841	413.25
794.099	422.25
794.356	479.25
794.613	394.25
794.869	427.25
795.126	392.25
795.383	364.25
795.64	392.25
795.897	336.25
796.153	395.25
796.41	358.25
796.667	364.25
796.923	364.25
797.18	371.25
797.436	392.25
797.693	359.25
797.949	412.25
798.206	431.25
798.462	344.25
798.718	400.25
798.974	364.25
799.231	398.25
799.487	394.25
799.743	380.25
799.999	412.25
800.255	396.25
800.511	373.25
800.767	419.25
801.023	375.25
801.279	395.25
801.534	415.25
801.79	431.25
802.046	409.25
802.302	464.25
802.557	475.25
802.813	503.25
803.068	502.25
803.324	627.25
803.579	743.25
803.835	917.25
804.09	1186.25
804.345	1436.25
804.601	1756.25
804.856	2076.25
805.111	2381.25
805.366	2570.25
805.621	2689.25
805.876	2806.25
806.131	2831.25
806.386	2855.25
806.641	2870.25
806.896	2953.25
807.151	3067.25
807.406	3058.25
807.661	3150.25
807.915	3160.25
808.17	3243.25
808.425	3257.25
808.679	3243.25
808.934	3372.25
809.188	3377.25
809.443	3432.25
809.697	3472.25
809.951	3500.25
810.206	3487.25
810.46	3578.25
810.714	3543.25
810.968	3599.25
811.223	3597.25
811.477	3640.25
811.731	3684.25
811.985	3616.25
812.239	3650.25
812.493	3704.25
812.747	3723.25
813	3682.25
813.254	3745.25
813.508	3829.25
813.762	3772.25
814.015	3797.25
814.269	3822.25
814.522	3905.25
814.776	3886.25
815.03	3954.25
815.283	4014.25
815.536	4124.25
815.79	4140.25
816.043	4193.25
816.296	4247.25
816.55	4360.25
816.803	4373.25
817.056	4490.25
817.309	4459.25
817.562	4467.25
817.815	4604.25
818.068	4565.25
818.321	4600.25
818.574	4658.25
818.827	4800.25
819.079	4804.25
819.332	4990.25
819.585	5002.25
819.838	5095.25
820.09	5040.25
820.343	5116.25
820.595	5028.25
820.848	5118.25
821.1	5128.25
821.353	5173.25
821.605	5117.25
821.857	5251.25
822.11	5027.25
822.362	5113.25
822.614	5107.25
822.866	5140.25
823.118	5124.25
823.37	5206.25
823.622	5207.25
823.874	5272.25
824.126	5275.25
824.378	5180.25
824.63	5276.25
824.882	5283.25
825.134	5169.25
825.385	5268.25
825.637	5171.25
825.888	5162.25
826.14	5145.25
826.392	5100.25
826.643	5045.25
826.895	5125.25
827.146	5050.25
827.397	5031.25
827.649	5140.25
827.9	4988.25
828.151	5005.25
828.402	5045.25
828.653	5093.25
828.905	5099.25
829.156	5164.25
829.407	5049.25
829.658	5092.25
829.909	5191.25
830.159	5183.25
830.41	5163.25
830.661	5162.25
830.912	5050.25
831.162	5054.25
831.413	5054.25
831.664	5134.25
831.914	5099.25
832.165	5046.25
832.415	5102.25
832.666	5092.25
832.916	5112.25
833.167	5065.25
833.417	5096.25
833.667	5105.25
833.917	5028.25
834.168	5132.25
834.418	5067.25
834.668	5057.25
834.918	5028.25
835.168	5065.25
835.418	5015.25
835.668	5002.25
835.918	4966.25
836.167	4967.25
836.417	4914.25
836.667	4909.25
836.917	4996.25
837.166	4942.25
837.416	4986.25
837.666	4927.25
837.915	4927.25
838.165	4914.25
838.414	4904.25
838.663	4876.25
838.913	4901.25
839.162	4885.25
839.411	4946.25
839.661	4915.25
839.91	4890.25
840.159	4913.25
840.408	4978.25
840.657	4933.25
840.906	4970.25
841.155	4967.25
841.404	4918.25
841.653	4937.25
841.902	4894.25
842.15	4956.25
842.399	4991.25
842.648	4973.25
842.897	4988.25
843.145	4917.25
843.394	4838.25
843.642	4809.25
843.891	4833.25
844.139	4776.25
844.388	4708.25
844.636	4692.25
844.884	4758.25
845.133	4699.25
845.381	4730.25
845.629	4775.25
845.877	4762.25
846.125	4749.25
846.373	4786.25
846.621	4693.25
846.869	4715.25
847.117	4626.25
847.365	4686.25
847.613	4666.25
847.861	4689.25
848.108	4685.25
848.356	4657.25
848.604	4652.25
848.851	4692.25
849.099	4695.25
849.346	4688.25
849.594	4758.25
849.841	4776.25
850.089	4812.25
850.336	4851.25
850.583	4893.25
850.831	4861.25
851.078	4852.25
851.325	4897.25
851.572	5000.25
851.819	4890.25
852.066	4704.25
852.313	4507.25
852.56	4509.25
852.807	4494.25
853.054	4497.25
853.301	4476.25
853.548	4526.25
853.794	4660.25
854.041	4546.25
854.288	4591.25
854.534	4752.25
854.781	4669.25
855.028	4623.25
855.274	4653.25
855.52	4563.25
855.767	4560.25
856.013	4644.25
856.26	4945.25
856.506	4588.25
856.752	4605.25
856.998	4538.25
857.244	4558.25
857.49	4607.25
857.736	4632.25
857.982	4611.25
858.228	4576.25
858.474	4488.25
858.72	4519.25
858.966	4435.25
859.212	4437.25
859.458	4387.25
859.703	4298.25
859.949	4248.25
860.195	4267.25
860.44	4283.25
860.686	4242.25
860.931	4281.25
861.177	4154.25
861.422	4221.25
861.667	4126.25
861.913	4167.25
862.158	4152.25
862.403	4176.25
862.648	4205.25
862.893	4247.25
863.138	4217.25
863.384	4210.25
863.629	4193.25
863.873	4139.25
864.118	4166.25
864.363	4111.25
864.608	4186.25
864.853	4159.25
865.098	4159.25
865.342	4143.25
865.587	4099.25
865.832	4125.25
866.076	4113.25
866.321	4079.25
866.565	4056.25
866.81	4027.25
867.054	4065.25
867.298	4042.25
867.543	4011.25
867.787	4116.25
868.031	4074.25
868.275	4044.25
868.519	4065.25
868.764	4066.25
869.008	4038.25
869.252	4093.25
869.496	4068.25
869.739	4096.25
869.983	4125.25
870.227	4124.25
870.471	4094.25
870.715	4167.25
870.958	4190.25
871.202	4118.25
871.446	4155.25
871.689	4126.25
871.933	4160.25
872.176	4140.25
872.42	4136.25
872.663	4130.25
872.906	4165.25
873.15	4141.25
873.393	4118.25
873.636	4187.25
873.879	4176.25
874.122	4157.25
874.366	4003.25
874.609	3990.25
874.852	3946.25
875.095	3917.25
875.337	3885.25
875.58	3820.25
875.823	3866.25
876.066	3883.25
876.309	3920.25
876.551	3816.25
876.794	3767.25
877.037	3838.25
877.279	3769.25
877.522	3726.25
877.764	3818.25
878.007	3738.25
878.249	3751.25
878.491	3692.25
878.734	3790.25
878.976	3723.25
879.218	3674.25
879.46	3709.25
879.702	3694.25
879.945	3681.25
880.187	3568.25
880.429	3589.25
880.671	3584.25
880.912	3528.25
881.154	3548.25
881.396	3438.25
881.638	3562.25
881.88	3588.25
882.121	3475.25
882.363	3513.25
882.605	3567.25
882.846	3561.25
883.088	3572.25
883.329	3587.25
883.571	3594.25
883.812	3724.25
884.053	3784.25
884.295	3959.25
884.536	4113.25
884.777	4088.25
885.018	4014.25
885.259	4060.25
885.5	3954.25
885.742	4152.25
885.982	3913.25
886.223	3824.25
886.464	3805.25
886.705	3733.25
886.946	3677.25
887.187	3564.25
887.428	3518.25
887.668	3433.25
887.909	3358.25
888.15	3356.25
888.39	3310.25
888.631	3347.25
888.871	3284.25
889.111	3227.25
889.352	3232.25
889.592	3181.25
889.833	3124.25
890.073	3119.25
890.313	3189.25
890.553	3059.25
890.793	3072.25
891.033	3029.25
891.273	3044.25
891.513	3042.25
891.753	3123.25
891.993	3075.25
892.233	3082.25
892.473	3155.25
892.713	3103.25
892.952	3051.25
893.192	3089.25
893.432	3055.25
893.671	3154.25
893.911	3080.25
894.15	3086.25
894.39	3011.25
894.629	3068.25
894.869	3049.25
895.108	3043.25
895.347	3001.25
895.587	3036.25
895.826	3020.25
896.065	3001.25
896.304	3004.25
896.543	3036.25
896.782	2992.25
897.021	3019.25
897.26	3034.25
897.499	3097.25
897.738	3122.25
897.977	3043.25
898.216	3019.25
898.454	2980.25
898.693	2953.25
898.932	3001.25
899.17	2976.25
899.409	2992.25
899.647	2980.25
899.886	2987.25
900.124	3023.25
900.363	2983.25
900.601	3010.25
900.839	3034.25
901.078	3031.25
901.316	3129.25
901.554	3113.25
901.792	3203.25
902.03	3130.25
902.268	3181.25
902.506	3192.25
902.744	3122.25
902.982	3100.25
903.22	3031.25
903.458	2995.25
903.695	2967.25
903.933	2897.25
904.171	2806.25
904.409	2786.25
904.646	2747.25
904.884	2630.25
905.121	2661.25
905.359	2622.25
905.596	2602.25
905.833	2529.25
906.071	2501.25
906.308	2584.25
906.545	2503.25
906.783	2465.25
907.02	2500.25
907.257	2468.25
907.494	2462.25
907.731	2470.25
907.968	2473.25
908.205	2426.25
908.442	2421.25
908.679	2443.25
908.915	2414.25
909.152	2393.25
909.389	2294.25
909.626	2352.25
909.862	2281.25
910.099	2348.25
910.335	2353.25
910.572	2253.25
910.808	2331.25
911.045	2275.25
911.281	2273.25
911.518	2315.25
911.754	2259.25
911.99	2286.25
912.226	2245.25
912.463	2205.25
912.699	2172.25
912.935	2201.25
913.171	2147.25
913.407	2146.25
913.643	2189.25
913.879	2143.25
914.114	2118.25
914.35	2096.25
914.586	2073.25
914.822	2070.25
915.057	2159.25
915.293	2008.25
915.529	2021.25
915.764	2064.25
916	2051.25
916.235	2017.25
916.471	2074.25
916.706	1958.25
916.941	2007.25
917.177	2038.25
917.412	2069.25
917.647	2064.25
917.882	2012.25
918.117	2054.25
918.352	2025.25
918.588	2092.25
918.823	1993.25
919.057	1994.25
919.292	1876.25
919.527	2023.25
919.762	1919.25
919.997	1986.25
920.232	1943.25
920.466	1961.25
920.701	1822.25
920.935	1899.25
921.17	1848.25
921.405	1858.25
921.639	1889.25
921.873	1851.25
922.108	1861.25
922.342	1880.25
922.576	1808.25
922.811	1803.25
923.045	1882.25
923.279	1877.25
923.513	1768.25
923.747	1851.25
923.981	1823.25
924.215	1776.25
924.449	1804.25
924.683	1729.25
924.917	1760.25
925.151	1757.25
925.385	1826.25
925.618	1754.25
925.852	1763.25
926.086	1726.25
926.319	1796.25
926.553	1763.25
926.786	1762.25
927.02	1763.25
927.253	1778.25
927.486	1793.25
927.72	1736.25
927.953	1796.25
928.186	1725.25
928.42	1822.25
928.653	1713.25
928.886	1724.25
929.119	1728.25
929.352	1720.25
929.585	1744.25
929.818	1688.25
930.051	1718.25
930.284	1729.25
930.516	1634.25
930.749	1640.25
930.982	1703.25
931.215	1665.25
931.447	1630.25
931.68	1665.25
931.912	1653.25
932.145	1630.25
932.377	1651.25
932.61	1774.25
932.842	1605.25
933.074	1677.25
933.307	1607.25
933.539	1704.25
933.771	1676.25
934.003	1655.25
934.236	1693.25
934.468	1743.25
934.7	1634.25
934.932	1705.25
935.164	1640.25
935.395	1615.25
935.627	1642.25
935.859	1648.25
936.091	1605.25
936.323	1668.25
936.554	1694.25
936.786	1630.25
937.017	1578.25
937.249	1609.25
937.481	1574.25
937.712	1670.25
937.943	1619.25
938.175	1590.25
938.406	1589.25
938.637	1694.25
938.869	1578.25
939.1	1630.25
939.331	1600.25
939.562	1628.25
939.793	1592.25
940.024	1626.25
940.255	1629.25
940.486	1613.25
940.717	1596.25
940.948	1575.25
941.179	1544.25
941.409	1569.25
941.64	1541.25
941.871	1561.25
942.102	1567.25
942.332	1570.25
942.563	1618.25
942.793	1565.25
943.024	1561.25
943.254	1560.25
943.484	1611.25
943.715	1629.25
943.945	1587.25
944.175	1492.25
944.405	1506.25
944.636	1520.25
944.866	1571.25
945.096	1579.25
945.326	1501.25
945.556	1573.25
945.786	1578.25
946.016	1549.25
946.245	1500.25
946.475	1519.25
946.705	1531.25
946.935	1529.25
947.164	1523.25
947.394	1488.25
947.624	1494.25
947.853	1528.25
948.083	1511.25
948.312	1504.25
948.542	1448.25
948.771	1419.25
949	1471.25
949.23	1488.25
949.459	1461.25
949.688	1496.25
949.917	1458.25
950.146	1484.25
950.375	1526.25
950.604	1434.25
950.833	1525.25
951.062	1525.25
951.291	1501.25
951.52	1445.25
951.749	1470.25
951.978	1432.25
952.206	1443.25
952.435	1431.25
952.664	1466.25
952.892	1490.25
953.121	1459.25
953.349	1493.25
953.578	1493.25
953.806	1436.25
954.035	1371.25
954.263	1452.25
954.491	1389.25
954.719	1478.25
954.948	1383.25
955.176	1408.25
955.404	1351.25
955.632	1392.25
955.86	1422.25
956.088	1389.25
956.316	1427.25
956.544	1466.25
956.772	1391.25
956.999	1378.25
957.227	1460.25
957.455	1348.25
957.683	1392.25
957.91	1354.25
958.138	1321.25
958.365	1369.25
958.593	1323.25
958.82	1296.25
959.048	1385.25
959.275	1344.25
959.502	1327.25
959.73	1325.25
959.957	1351.25
960.184	1418.25
960.411	1357.25
960.638	1418.25
960.865	1348.25
961.092	1394.25
961.319	1288.25
961.546	1363.25
961.773	1395.25
962	1340.25
962.227	1386.25
962.454	1345.25
962.68	1331.25
962.907	1329.25
963.134	1297.25
963.36	1354.25
963.587	1363.25
963.813	1298.25
964.04	1353.25
964.266	1288.25
964.493	1346.25
964.719	1320.25
964.945	1320.25
965.171	1237.25
965.398	1306.25
965.624	1334.25
965.85	1269.25
966.076	1274.25
966.302	1306.25
966.528	1268.25
966.754	1294.25
966.98	1308.25
967.206	1310.25
967.431	1223.25
967.657	1320.25
967.883	1289.25
968.109	1282.25
968.334	1251.25
968.56	1238.25
968.785	1267.25
969.011	1233.25
969.236	1267.25
969.462	1234.25
969.687	1255.25
969.912	1280.25
970.138	1291.25
970.363	1226.25
970.588	1261.25
970.813	1242.25
971.038	1234.25
971.263	1235.25
971.488	1243.25
971.713	1285.25
971.938	1271.25
972.163	1202.25
972.388	1210.25
972.613	1180.25
972.838	1198.25
973.062	1213.25
973.287	1192.25
973.512	1149.25
973.736	1199.25
973.961	1178.25
974.185	1166.25
974.41	1221.25
974.634	1116.25
974.858	1149.25
975.083	1175.25
975.307	1204.25
975.531	1132.25
975.755	1106.25
975.98	1115.25
976.204	1058.25
976.428	1095.25
976.652	1089.25
976.876	1059.25
977.1	1113.25
977.324	1088.25
977.547	1150.25
977.771	1148.25
977.995	1110.25
978.219	1070.25
978.442	1178.25
978.666	1140.25
978.89	1096.25
979.113	1098.25
979.337	1100.25
979.56	1095.25
979.783	1163.25
980.007	1031.25
980.23	1093.25
980.453	1064.25
980.677	1078.25
980.9	1110.25
981.123	1010.25
981.346	1135.25
981.569	1100.25
981.792	1110.25
982.015	1071.25
982.238	1051.25
982.461	1085.25
982.684	1028.25
982.907	1038.25
983.129	1019.25
983.352	1074.25
983.575	1038.25
983.797	1059.25
984.02	1035.25
984.242	1027.25
984.465	1045.25
984.687	1076.25
984.91	1090.25
985.132	1086.25
985.354	1093.25
985.577	1080.25
985.799	1072.25
986.021	999.25
986.243	1008.25
986.465	1039.25
986.687	1078.25
986.909	1128.25
987.131	1048.25
987.353	1022.25
987.575	1073.25
987.797	1030.25
988.019	985.25
988.241	1012.25
988.462	1018.25
988.684	1050.25
988.906	1101.25
989.127	1114.25
989.349	989.25
989.57	1045.25
989.792	1086.25
990.013	1105.25
990.234	1088.25
990.456	1125.25
990.677	1112.25
990.898	1029.25
991.119	1042.25
991.341	1067.25
991.562	1043.25
991.783	1069.25
992.004	1016.25
992.225	985.25
992.446	1042.25
992.667	956.25
992.887	1026.25
993.108	966.25
993.329	1088.25
993.55	1049.25
993.77	997.25
993.991	997.25
994.212	1033.25
994.432	1007.25
994.653	1036.25
994.873	1036.25
995.093	939.25
995.314	973.25
995.534	1066.25
995.754	1074.25
995.975	1087.25
996.195	987.25
996.415	1038.25
996.635	1019.25
996.855	1021.25
997.075	1006.25
997.295	1015.25
997.515	1021.25
997.735	1058.25
997.955	1052.25
998.174	1002.25
998.394	985.25
998.614	1039.25
998.834	1009.25
999.053	1111.25
999.273	1021.25
999.492	1121.25
999.712	1035.25
999.931	1006.25
1000.151	1051.25
1000.37	1063.25
1000.589	1092.25
1000.809	1035.25
1001.028	1148.25
1001.247	1098.25
1001.466	987.25
1001.685	1097.25
1001.904	1070.25
1002.123	1037.25
1002.342	1069.25
1002.561	1027.25
1002.78	1044.25
1002.999	1115.25
1003.218	1056.25
1003.436	1028.25
1003.655	1099.25
1003.874	1025.25
1004.092	1074.25
1004.311	1097.25
1004.53	1059.25
1004.748	1123.25
1004.966	1058.25
1005.185	1104.25
1005.403	1091.25
1005.622	1091.25
1005.84	1162.25
1006.058	1073.25
1006.276	1086.25
1006.494	1585.25
1006.712	1095.25
1006.931	1163.25
1007.149	1090.25
1007.367	1077.25
1007.584	1122.25
1007.802	1157.25
1008.02	1115.25
1008.238	1209.25
1008.456	1200.25
1008.673	1082.25
1008.891	1196.25
1009.109	1172.25
1009.326	1223.25
1009.544	1327.25
1009.761	1235.25
1009.979	1337.25
1010.196	1336.25
1010.413	1440.25
1010.631	1520.25
1010.848	1548.25
1011.065	1556.25
1011.282	1532.25
1011.5	1483.25
1011.717	1584.25
1011.934	1525.25
1012.151	1548.25
1012.368	1530.25
1012.585	1459.25
1012.801	1541.25
1013.018	1533.25
1013.235	1471.25
1013.452	1526.25
1013.669	1509.25
1013.885	1498.25
1014.102	1534.25
1014.318	1505.25
1014.535	1472.25
1014.751	1529.25
1014.968	1533.25
1015.184	1564.25
1015.401	1452.25
1015.617	1513.25
1015.833	1432.25
1016.049	1447.25
1016.266	1453.25
1016.482	1444.25
1016.698	1369.25
1016.914	1393.25
1017.13	1397.25
1017.346	1375.25
1017.562	1443.25
1017.778	1378.25
1017.993	1337.25
1018.209	1385.25
1018.425	1402.25
1018.641	1354.25
1018.856	1344.25
1019.072	1379.25
1019.288	1420.25
1019.503	1395.25
1019.719	1279.25
1019.934	1321.25
1020.149	1372.25
1020.365	1303.25
1020.58	1273.25
1020.795	1295.25
1021.011	1241.25
1021.226	1219.25
1021.441	1233.25
1021.656	1159.25
1021.871	1094.25
1022.086	1106.25
1022.301	1083.25
1022.516	1097.25
1022.731	1135.25
1022.946	1047.25
1023.16	1022.25
1023.375	1005.25
1023.59	977.25
1023.804	929.25
1024.019	1042.25
1024.234	912.25
1024.448	960.25
1024.663	874.25
1024.877	901.25
1025.092	898.25
1025.306	924.25
1025.52	826.25
1025.734	932.25
1025.949	834.25
1026.163	803.25
1026.377	753.25
1026.591	802.25
1026.805	737.25
1027.019	738.25
1027.233	714.25
1027.447	661.25
1027.661	773.25
1027.875	685.25
1028.088	718.25
1028.302	643.25
1028.516	636.25
1028.73	645.25
1028.943	631.25
1029.157	580.25
1029.37	544.25
1029.584	-3.75
1029.797	-0.75
1030.011	-0.75
1030.224	-2.75
