Data from QEP037381__261__11-04-06-590.txt Node

Date: Wed Dec 21 11:04:06 EST 2022
User: dcclab
Spectrometer: QEP03738
Trigger mode: 4
Integration Time (sec): 1.000000E1
Scans to average: 1
Electric dark correction enabled: true
Nonlinearity correction enabled: false
Boxcar width: 0
XAxis mode: Wavelengths
Number of Pixels in Spectrum: 1044
>>>>>Begin Spectral Data<<<<<
784.041	13.38
784.3	0.38
784.558	-6.62
784.817	-3.62
785.075	88036.38
785.334	15622.38
785.592	7455.38
785.851	5158.38
786.109	3929.38
786.368	3027.38
786.626	2453.38
786.884	2024.38
787.143	1693.38
787.401	1366.38
787.659	1241.38
787.917	1073.38
788.175	982.38
788.433	846.38
788.691	768.38
788.949	717.38
789.207	683.38
789.465	579.38
789.723	571.38
789.98	523.38
790.238	556.38
790.496	527.38
790.753	486.38
791.011	545.38
791.268	490.38
791.526	479.38
791.783	493.38
792.041	483.38
792.298	374.38
792.556	463.38
792.813	438.38
793.07	410.38
793.327	401.38
793.584	484.38
793.841	400.38
794.099	410.38
794.356	497.38
794.613	381.38
794.869	417.38
795.126	379.38
795.383	375.38
795.64	377.38
795.897	343.38
796.153	389.38
796.41	368.38
796.667	365.38
796.923	374.38
797.18	359.38
797.436	404.38
797.693	346.38
797.949	399.38
798.206	435.38
798.462	350.38
798.718	389.38
798.974	381.38
799.231	404.38
799.487	383.38
799.743	395.38
799.999	412.38
800.255	411.38
800.511	376.38
800.767	404.38
801.023	393.38
801.279	401.38
801.534	424.38
801.79	419.38
802.046	389.38
802.302	463.38
802.557	463.38
802.813	506.38
803.068	509.38
803.324	644.38
803.579	733.38
803.835	886.38
804.09	1183.38
804.345	1441.38
804.601	1737.38
804.856	2120.38
805.111	2400.38
805.366	2583.38
805.621	2708.38
805.876	2797.38
806.131	2831.38
806.386	2897.38
806.641	2892.38
806.896	2991.38
807.151	3079.38
807.406	3073.38
807.661	3118.38
807.915	3208.38
808.17	3226.38
808.425	3270.38
808.679	3290.38
808.934	3399.38
809.188	3355.38
809.443	3414.38
809.697	3477.38
809.951	3440.38
810.206	3483.38
810.46	3624.38
810.714	3570.38
810.968	3617.38
811.223	3594.38
811.477	3650.38
811.731	3680.38
811.985	3605.38
812.239	3688.38
812.493	3719.38
812.747	3739.38
813	3746.38
813.254	3778.38
813.508	3821.38
813.762	3821.38
814.015	3815.38
814.269	3898.38
814.522	3887.38
814.776	3987.38
815.03	3996.38
815.283	4044.38
815.536	4126.38
815.79	4166.38
816.043	4194.38
816.296	4276.38
816.55	4339.38
816.803	4363.38
817.056	4533.38
817.309	4455.38
817.562	4524.38
817.815	4588.38
818.068	4606.38
818.321	4610.38
818.574	4734.38
818.827	4806.38
819.079	4807.38
819.332	5028.38
819.585	4998.38
819.838	5103.38
820.09	5081.38
820.343	5187.38
820.595	5138.38
820.848	5125.38
821.1	5219.38
821.353	5192.38
821.605	5198.38
821.857	5233.38
822.11	5113.38
822.362	5173.38
822.614	5121.38
822.866	5275.38
823.118	5202.38
823.37	5307.38
823.622	5214.38
823.874	5289.38
824.126	5330.38
824.378	5311.38
824.63	5362.38
824.882	5377.38
825.134	5345.38
825.385	5355.38
825.637	5286.38
825.888	5241.38
826.14	5239.38
826.392	5177.38
826.643	5144.38
826.895	5206.38
827.146	5143.38
827.397	5077.38
827.649	5141.38
827.9	5088.38
828.151	5141.38
828.402	5113.38
828.653	5149.38
828.905	5135.38
829.156	5205.38
829.407	5185.38
829.658	5165.38
829.909	5248.38
830.159	5267.38
830.41	5191.38
830.661	5180.38
830.912	5143.38
831.162	5123.38
831.413	5083.38
831.664	5160.38
831.914	5115.38
832.165	5143.38
832.415	5119.38
832.666	5126.38
832.916	5185.38
833.167	5093.38
833.417	5200.38
833.667	5126.38
833.917	5111.38
834.168	5136.38
834.418	5177.38
834.668	5143.38
834.918	5079.38
835.168	5090.38
835.418	5015.38
835.668	5051.38
835.918	5091.38
836.167	5046.38
836.417	4974.38
836.667	5032.38
836.917	5051.38
837.166	4987.38
837.416	5057.38
837.666	5001.38
837.915	4928.38
838.165	4953.38
838.414	4930.38
838.663	4848.38
838.913	4920.38
839.162	4850.38
839.411	4937.38
839.661	4880.38
839.91	4901.38
840.159	4957.38
840.408	4925.38
840.657	4907.38
840.906	4985.38
841.155	4970.38
841.404	4956.38
841.653	4889.38
841.902	4913.38
842.15	4936.38
842.399	4950.38
842.648	4966.38
842.897	4935.38
843.145	4820.38
843.394	4820.38
843.642	4852.38
843.891	4850.38
844.139	4808.38
844.388	4731.38
844.636	4647.38
844.884	4719.38
845.133	4696.38
845.381	4741.38
845.629	4745.38
845.877	4690.38
846.125	4707.38
846.373	4707.38
846.621	4674.38
846.869	4683.38
847.117	4671.38
847.365	4613.38
847.613	4646.38
847.861	4646.38
848.108	4715.38
848.356	4623.38
848.604	4611.38
848.851	4683.38
849.099	4651.38
849.346	4679.38
849.594	4722.38
849.841	4729.38
850.089	4766.38
850.336	4738.38
850.583	4832.38
850.831	4820.38
851.078	4828.38
851.325	4882.38
851.572	4943.38
851.819	4830.38
852.066	4628.38
852.313	4538.38
852.56	4436.38
852.807	4393.38
853.054	4464.38
853.301	4467.38
853.548	4502.38
853.794	4596.38
854.041	4583.38
854.288	4516.38
854.534	4669.38
854.781	4567.38
855.028	4524.38
855.274	4567.38
855.52	4549.38
855.767	4471.38
856.013	4549.38
856.26	4812.38
856.506	4474.38
856.752	4491.38
856.998	4454.38
857.244	4403.38
857.49	4512.38
857.736	4529.38
857.982	4549.38
858.228	4500.38
858.474	4439.38
858.72	4425.38
858.966	4457.38
859.212	4374.38
859.458	4313.38
859.703	4329.38
859.949	4204.38
860.195	4254.38
860.44	4182.38
860.686	4197.38
860.931	4228.38
861.177	4108.38
861.422	4144.38
861.667	4118.38
861.913	4119.38
862.158	4132.38
862.403	4213.38
862.648	4202.38
862.893	4255.38
863.138	4207.38
863.384	4174.38
863.629	4149.38
863.873	4143.38
864.118	4159.38
864.363	4079.38
864.608	4148.38
864.853	4133.38
865.098	4075.38
865.342	4101.38
865.587	4066.38
865.832	4087.38
866.076	4077.38
866.321	4019.38
866.565	4026.38
866.81	3987.38
867.054	3989.38
867.298	4023.38
867.543	3961.38
867.787	4038.38
868.031	4020.38
868.275	3992.38
868.519	3953.38
868.764	4008.38
869.008	3967.38
869.252	4032.38
869.496	4005.38
869.739	3981.38
869.983	4044.38
870.227	4015.38
870.471	3987.38
870.715	3997.38
870.958	4019.38
871.202	3995.38
871.446	4007.38
871.689	4017.38
871.933	4026.38
872.176	4008.38
872.42	4062.38
872.663	3995.38
872.906	4042.38
873.15	4013.38
873.393	3947.38
873.636	4015.38
873.879	3995.38
874.122	3992.38
874.366	3898.38
874.609	3868.38
874.852	3835.38
875.095	3809.38
875.337	3822.38
875.58	3750.38
875.823	3775.38
876.066	3809.38
876.309	3817.38
876.551	3741.38
876.794	3659.38
877.037	3738.38
877.279	3667.38
877.522	3679.38
877.764	3732.38
878.007	3645.38
878.249	3716.38
878.491	3648.38
878.734	3705.38
878.976	3660.38
879.218	3630.38
879.46	3694.38
879.702	3616.38
879.945	3556.38
880.187	3508.38
880.429	3543.38
880.671	3515.38
880.912	3485.38
881.154	3510.38
881.396	3439.38
881.638	3474.38
881.88	3505.38
882.121	3446.38
882.363	3400.38
882.605	3493.38
882.846	3455.38
883.088	3515.38
883.329	3467.38
883.571	3441.38
883.812	3470.38
884.053	3593.38
884.295	3654.38
884.536	3810.38
884.777	3828.38
885.018	3785.38
885.259	3754.38
885.5	3688.38
885.742	3916.38
885.982	3669.38
886.223	3582.38
886.464	3532.38
886.705	3505.38
886.946	3504.38
887.187	3387.38
887.428	3434.38
887.668	3319.38
887.909	3290.38
888.15	3237.38
888.39	3277.38
888.631	3259.38
888.871	3221.38
889.111	3208.38
889.352	3170.38
889.592	3155.38
889.833	3097.38
890.073	3064.38
890.313	3154.38
890.553	3043.38
890.793	3044.38
891.033	3026.38
891.273	3000.38
891.513	3039.38
891.753	3060.38
891.993	3014.38
892.233	3094.38
892.473	3103.38
892.713	3065.38
892.952	3012.38
893.192	3040.38
893.432	3051.38
893.671	3097.38
893.911	3027.38
894.15	3032.38
894.39	2939.38
894.629	2972.38
894.869	3010.38
895.108	2946.38
895.347	2924.38
895.587	2983.38
895.826	2936.38
896.065	2974.38
896.304	2980.38
896.543	3007.38
896.782	2947.38
897.021	2977.38
897.26	2998.38
897.499	3062.38
897.738	3048.38
897.977	2988.38
898.216	2954.38
898.454	2922.38
898.693	2892.38
898.932	2888.38
899.17	2889.38
899.409	2900.38
899.647	2875.38
899.886	2871.38
900.124	2899.38
900.363	2887.38
900.601	2878.38
900.839	2933.38
901.078	2883.38
901.316	2930.38
901.554	2946.38
901.792	2992.38
902.03	2940.38
902.268	2956.38
902.506	3020.38
902.744	2962.38
902.982	2965.38
903.22	2853.38
903.458	2813.38
903.695	2807.38
903.933	2741.38
904.171	2703.38
904.409	2670.38
904.646	2681.38
904.884	2576.38
905.121	2608.38
905.359	2560.38
905.596	2540.38
905.833	2447.38
906.071	2453.38
906.308	2537.38
906.545	2477.38
906.783	2419.38
907.02	2446.38
907.257	2421.38
907.494	2432.38
907.731	2474.38
907.968	2454.38
908.205	2375.38
908.442	2363.38
908.679	2395.38
908.915	2370.38
909.152	2349.38
909.389	2281.38
909.626	2315.38
909.862	2313.38
910.099	2297.38
910.335	2349.38
910.572	2246.38
910.808	2266.38
911.045	2257.38
911.281	2261.38
911.518	2292.38
911.754	2231.38
911.99	2229.38
912.226	2205.38
912.463	2155.38
912.699	2180.38
912.935	2159.38
913.171	2144.38
913.407	2113.38
913.643	2174.38
913.879	2125.38
914.114	2100.38
914.35	2098.38
914.586	2074.38
914.822	2037.38
915.057	2123.38
915.293	1988.38
915.529	1977.38
915.764	2085.38
916	2032.38
916.235	2023.38
916.471	2051.38
916.706	1958.38
916.941	1976.38
917.177	1978.38
917.412	2022.38
917.647	2016.38
917.882	1937.38
918.117	2045.38
918.352	2012.38
918.588	2039.38
918.823	1984.38
919.057	1979.38
919.292	1864.38
919.527	1983.38
919.762	1875.38
919.997	1971.38
920.232	1880.38
920.466	1907.38
920.701	1814.38
920.935	1847.38
921.17	1813.38
921.405	1816.38
921.639	1874.38
921.873	1832.38
922.108	1821.38
922.342	1854.38
922.576	1796.38
922.811	1794.38
923.045	1880.38
923.279	1872.38
923.513	1747.38
923.747	1813.38
923.981	1790.38
924.215	1745.38
924.449	1748.38
924.683	1705.38
924.917	1737.38
925.151	1719.38
925.385	1811.38
925.618	1757.38
925.852	1725.38
926.086	1694.38
926.319	1733.38
926.553	1743.38
926.786	1757.38
927.02	1726.38
927.253	1771.38
927.486	1758.38
927.72	1687.38
927.953	1733.38
928.186	1701.38
928.42	1757.38
928.653	1697.38
928.886	1679.38
929.119	1731.38
929.352	1697.38
929.585	1691.38
929.818	1652.38
930.051	1677.38
930.284	1700.38
930.516	1579.38
930.749	1607.38
930.982	1681.38
931.215	1650.38
931.447	1598.38
931.68	1626.38
931.912	1612.38
932.145	1616.38
932.377	1636.38
932.61	1752.38
932.842	1556.38
933.074	1643.38
933.307	1580.38
933.539	1687.38
933.771	1668.38
934.003	1619.38
934.236	1688.38
934.468	1682.38
934.7	1621.38
934.932	1683.38
935.164	1593.38
935.395	1599.38
935.627	1637.38
935.859	1615.38
936.091	1578.38
936.323	1612.38
936.554	1638.38
936.786	1583.38
937.017	1554.38
937.249	1606.38
937.481	1510.38
937.712	1588.38
937.943	1569.38
938.175	1565.38
938.406	1586.38
938.637	1618.38
938.869	1516.38
939.1	1620.38
939.331	1577.38
939.562	1582.38
939.793	1579.38
940.024	1602.38
940.255	1581.38
940.486	1555.38
940.717	1555.38
940.948	1552.38
941.179	1536.38
941.409	1529.38
941.64	1509.38
941.871	1541.38
942.102	1501.38
942.332	1525.38
942.563	1563.38
942.793	1544.38
943.024	1474.38
943.254	1536.38
943.484	1574.38
943.715	1587.38
943.945	1531.38
944.175	1488.38
944.405	1453.38
944.636	1490.38
944.866	1526.38
945.096	1538.38
945.326	1471.38
945.556	1534.38
945.786	1526.38
946.016	1481.38
946.245	1473.38
946.475	1493.38
946.705	1501.38
946.935	1511.38
947.164	1485.38
947.394	1444.38
947.624	1487.38
947.853	1497.38
948.083	1475.38
948.312	1438.38
948.542	1401.38
948.771	1403.38
949	1394.38
949.23	1421.38
949.459	1419.38
949.688	1506.38
949.917	1434.38
950.146	1444.38
950.375	1503.38
950.604	1408.38
950.833	1496.38
951.062	1505.38
951.291	1406.38
951.52	1402.38
951.749	1402.38
951.978	1372.38
952.206	1406.38
952.435	1401.38
952.664	1454.38
952.892	1425.38
953.121	1383.38
953.349	1427.38
953.578	1446.38
953.806	1380.38
954.035	1348.38
954.263	1388.38
954.491	1351.38
954.719	1388.38
954.948	1345.38
955.176	1355.38
955.404	1286.38
955.632	1349.38
955.86	1385.38
956.088	1348.38
956.316	1394.38
956.544	1426.38
956.772	1345.38
956.999	1344.38
957.227	1400.38
957.455	1332.38
957.683	1317.38
957.91	1300.38
958.138	1316.38
958.365	1305.38
958.593	1335.38
958.82	1256.38
959.048	1337.38
959.275	1314.38
959.502	1302.38
959.73	1266.38
959.957	1344.38
960.184	1356.38
960.411	1296.38
960.638	1375.38
960.865	1321.38
961.092	1338.38
961.319	1259.38
961.546	1342.38
961.773	1327.38
962	1303.38
962.227	1328.38
962.454	1287.38
962.68	1284.38
962.907	1284.38
963.134	1263.38
963.36	1283.38
963.587	1288.38
963.813	1290.38
964.04	1317.38
964.266	1244.38
964.493	1320.38
964.719	1299.38
964.945	1326.38
965.171	1222.38
965.398	1299.38
965.624	1285.38
965.85	1215.38
966.076	1210.38
966.302	1269.38
966.528	1237.38
966.754	1260.38
966.98	1271.38
967.206	1258.38
967.431	1172.38
967.657	1277.38
967.883	1256.38
968.109	1251.38
968.334	1195.38
968.56	1186.38
968.785	1215.38
969.011	1182.38
969.236	1234.38
969.462	1178.38
969.687	1211.38
969.912	1248.38
970.138	1267.38
970.363	1189.38
970.588	1222.38
970.813	1177.38
971.038	1190.38
971.263	1227.38
971.488	1202.38
971.713	1251.38
971.938	1251.38
972.163	1121.38
972.388	1167.38
972.613	1161.38
972.838	1193.38
973.062	1175.38
973.287	1162.38
973.512	1099.38
973.736	1169.38
973.961	1137.38
974.185	1123.38
974.41	1147.38
974.634	1059.38
974.858	1114.38
975.083	1160.38
975.307	1177.38
975.531	1102.38
975.755	1069.38
975.98	1084.38
976.204	1055.38
976.428	1028.38
976.652	1067.38
976.876	1045.38
977.1	1077.38
977.324	1050.38
977.547	1098.38
977.771	1119.38
977.995	1071.38
978.219	1027.38
978.442	1149.38
978.666	1072.38
978.89	1076.38
979.113	1091.38
979.337	1057.38
979.56	1048.38
979.783	1131.38
980.007	1034.38
980.23	1062.38
980.453	1018.38
980.677	1070.38
980.9	1043.38
981.123	966.38
981.346	1091.38
981.569	1035.38
981.792	1080.38
982.015	1049.38
982.238	1061.38
982.461	1133.38
982.684	1034.38
982.907	993.38
983.129	993.38
983.352	1067.38
983.575	1037.38
983.797	1021.38
984.02	979.38
984.242	977.38
984.465	1009.38
984.687	1045.38
984.91	1067.38
985.132	1041.38
985.354	1054.38
985.577	1029.38
985.799	1017.38
986.021	974.38
986.243	975.38
986.465	1000.38
986.687	1066.38
986.909	1079.38
987.131	1033.38
987.353	1011.38
987.575	1036.38
987.797	1012.38
988.019	955.38
988.241	986.38
988.462	959.38
988.684	1017.38
988.906	1049.38
989.127	1074.38
989.349	954.38
989.57	996.38
989.792	1065.38
990.013	1039.38
990.234	1049.38
990.456	1066.38
990.677	1082.38
990.898	997.38
991.119	989.38
991.341	1037.38
991.562	966.38
991.783	1016.38
992.004	960.38
992.225	928.38
992.446	1012.38
992.667	916.38
992.887	1014.38
993.108	917.38
993.329	1038.38
993.55	994.38
993.77	960.38
993.991	954.38
994.212	993.38
994.432	974.38
994.653	992.38
994.873	982.38
995.093	864.38
995.314	930.38
995.534	998.38
995.754	1021.38
995.975	1034.38
996.195	936.38
996.415	981.38
996.635	976.38
996.855	982.38
997.075	973.38
997.295	950.38
997.515	931.38
997.735	1002.38
997.955	960.38
998.174	965.38
998.394	930.38
998.614	1001.38
998.834	966.38
999.053	1006.38
999.273	991.38
999.492	1056.38
999.712	966.38
999.931	953.38
1000.151	1012.38
1000.37	984.38
1000.589	1027.38
1000.809	968.38
1001.028	1094.38
1001.247	1000.38
1001.466	912.38
1001.685	1074.38
1001.904	1029.38
1002.123	1013.38
1002.342	1017.38
1002.561	964.38
1002.78	1002.38
1002.999	1047.38
1003.218	1018.38
1003.436	982.38
1003.655	1043.38
1003.874	982.38
1004.092	1013.38
1004.311	1053.38
1004.53	996.38
1004.748	1101.38
1004.966	1020.38
1005.185	1087.38
1005.403	1062.38
1005.622	1045.38
1005.84	1107.38
1006.058	1013.38
1006.276	1046.38
1006.494	1572.38
1006.712	1057.38
1006.931	1107.38
1007.149	1015.38
1007.367	997.38
1007.584	1056.38
1007.802	1082.38
1008.02	1020.38
1008.238	1133.38
1008.456	1113.38
1008.673	997.38
1008.891	1095.38
1009.109	1038.38
1009.326	1105.38
1009.544	1178.38
1009.761	1075.38
1009.979	1147.38
1010.196	1148.38
1010.413	1238.38
1010.631	1276.38
1010.848	1310.38
1011.065	1300.38
1011.282	1249.38
1011.5	1178.38
1011.717	1316.38
1011.934	1250.38
1012.151	1289.38
1012.368	1272.38
1012.585	1182.38
1012.801	1263.38
1013.018	1222.38
1013.235	1195.38
1013.452	1211.38
1013.669	1215.38
1013.885	1212.38
1014.102	1223.38
1014.318	1209.38
1014.535	1172.38
1014.751	1185.38
1014.968	1227.38
1015.184	1224.38
1015.401	1171.38
1015.617	1198.38
1015.833	1152.38
1016.049	1161.38
1016.266	1160.38
1016.482	1155.38
1016.698	1095.38
1016.914	1150.38
1017.13	1099.38
1017.346	1111.38
1017.562	1168.38
1017.778	1144.38
1017.993	1079.38
1018.209	1158.38
1018.425	1108.38
1018.641	1101.38
1018.856	1059.38
1019.072	1096.38
1019.288	1146.38
1019.503	1100.38
1019.719	1024.38
1019.934	1062.38
1020.149	1117.38
1020.365	1047.38
1020.58	1025.38
1020.795	1079.38
1021.011	1017.38
1021.226	998.38
1021.441	1033.38
1021.656	952.38
1021.871	912.38
1022.086	905.38
1022.301	889.38
1022.516	900.38
1022.731	968.38
1022.946	879.38
1023.16	880.38
1023.375	858.38
1023.59	841.38
1023.804	797.38
1024.019	911.38
1024.234	777.38
1024.448	837.38
1024.663	770.38
1024.877	774.38
1025.092	805.38
1025.306	816.38
1025.52	718.38
1025.734	821.38
1025.949	744.38
1026.163	733.38
1026.377	678.38
1026.591	729.38
1026.805	659.38
1027.019	659.38
1027.233	627.38
1027.447	570.38
1027.661	688.38
1027.875	623.38
1028.088	640.38
1028.302	569.38
1028.516	571.38
1028.73	567.38
1028.943	571.38
1029.157	518.38
1029.37	486.38
1029.584	1.38
1029.797	-0.62
1030.011	-0.62
1030.224	-3.62
