Data from QEP037381__296__11-09-56-590.txt Node

Date: Wed Dec 21 11:09:56 EST 2022
User: dcclab
Spectrometer: QEP03738
Trigger mode: 4
Integration Time (sec): 1.000000E1
Scans to average: 1
Electric dark correction enabled: true
Nonlinearity correction enabled: false
Boxcar width: 0
XAxis mode: Wavelengths
Number of Pixels in Spectrum: 1044
>>>>>Begin Spectral Data<<<<<
784.041	12.62
784.3	2.62
784.558	-5.38
784.817	-4.38
785.075	97199.62
785.334	16418.62
785.592	7632.62
785.851	5178.62
786.109	3948.62
786.368	3011.62
786.626	2466.62
786.884	2059.62
787.143	1726.62
787.401	1444.62
787.659	1297.62
787.917	1099.62
788.175	1004.62
788.433	890.62
788.691	782.62
788.949	718.62
789.207	693.62
789.465	600.62
789.723	586.62
789.98	522.62
790.238	560.62
790.496	526.62
790.753	511.62
791.011	549.62
791.268	492.62
791.526	462.62
791.783	485.62
792.041	484.62
792.298	372.62
792.556	459.62
792.813	441.62
793.07	425.62
793.327	401.62
793.584	482.62
793.841	406.62
794.099	434.62
794.356	477.62
794.613	385.62
794.869	405.62
795.126	384.62
795.383	366.62
795.64	384.62
795.897	347.62
796.153	405.62
796.41	382.62
796.667	368.62
796.923	354.62
797.18	371.62
797.436	386.62
797.693	353.62
797.949	391.62
798.206	430.62
798.462	339.62
798.718	383.62
798.974	366.62
799.231	403.62
799.487	396.62
799.743	385.62
799.999	415.62
800.255	400.62
800.511	375.62
800.767	411.62
801.023	373.62
801.279	400.62
801.534	410.62
801.79	426.62
802.046	394.62
802.302	476.62
802.557	464.62
802.813	517.62
803.068	495.62
803.324	629.62
803.579	699.62
803.835	880.62
804.09	1147.62
804.345	1403.62
804.601	1708.62
804.856	2073.62
805.111	2378.62
805.366	2554.62
805.621	2657.62
805.876	2757.62
806.131	2863.62
806.386	2855.62
806.641	2818.62
806.896	2889.62
807.151	3065.62
807.406	3033.62
807.661	3112.62
807.915	3138.62
808.17	3215.62
808.425	3242.62
808.679	3214.62
808.934	3397.62
809.188	3302.62
809.443	3408.62
809.697	3449.62
809.951	3427.62
810.206	3479.62
810.46	3484.62
810.714	3598.62
810.968	3606.62
811.223	3570.62
811.477	3614.62
811.731	3717.62
811.985	3640.62
812.239	3638.62
812.493	3670.62
812.747	3720.62
813	3674.62
813.254	3753.62
813.508	3800.62
813.762	3802.62
814.015	3726.62
814.269	3855.62
814.522	3857.62
814.776	3884.62
815.03	3968.62
815.283	4005.62
815.536	4119.62
815.79	4174.62
816.043	4180.62
816.296	4268.62
816.55	4259.62
816.803	4336.62
817.056	4447.62
817.309	4442.62
817.562	4505.62
817.815	4562.62
818.068	4537.62
818.321	4583.62
818.574	4681.62
818.827	4813.62
819.079	4807.62
819.332	4971.62
819.585	4967.62
819.838	5091.62
820.09	5023.62
820.343	5130.62
820.595	5103.62
820.848	5155.62
821.1	5217.62
821.353	5153.62
821.605	5179.62
821.857	5214.62
822.11	5069.62
822.362	5144.62
822.614	5113.62
822.866	5175.62
823.118	5130.62
823.37	5249.62
823.622	5217.62
823.874	5236.62
824.126	5312.62
824.378	5255.62
824.63	5321.62
824.882	5341.62
825.134	5284.62
825.385	5286.62
825.637	5220.62
825.888	5171.62
826.14	5250.62
826.392	5158.62
826.643	5132.62
826.895	5161.62
827.146	5063.62
827.397	5020.62
827.649	5176.62
827.9	5081.62
828.151	5045.62
828.402	5079.62
828.653	5100.62
828.905	5099.62
829.156	5183.62
829.407	5128.62
829.658	5093.62
829.909	5175.62
830.159	5174.62
830.41	5126.62
830.661	5098.62
830.912	5065.62
831.162	5118.62
831.413	5094.62
831.664	5133.62
831.914	5134.62
832.165	5119.62
832.415	5113.62
832.666	5117.62
832.916	5170.62
833.167	5075.62
833.417	5129.62
833.667	5067.62
833.917	5111.62
834.168	5107.62
834.418	5088.62
834.668	5076.62
834.918	5022.62
835.168	5029.62
835.418	4959.62
835.668	5001.62
835.918	4990.62
836.167	5029.62
836.417	4962.62
836.667	4928.62
836.917	4967.62
837.166	4963.62
837.416	5014.62
837.666	5005.62
837.915	4927.62
838.165	4944.62
838.414	4877.62
838.663	4828.62
838.913	4893.62
839.162	4869.62
839.411	4971.62
839.661	4900.62
839.91	4827.62
840.159	4919.62
840.408	4924.62
840.657	4955.62
840.906	4913.62
841.155	4983.62
841.404	4961.62
841.653	5034.62
841.902	4893.62
842.15	4951.62
842.399	4973.62
842.648	4916.62
842.897	4972.62
843.145	4853.62
843.394	4809.62
843.642	4859.62
843.891	4856.62
844.139	4782.62
844.388	4705.62
844.636	4675.62
844.884	4682.62
845.133	4699.62
845.381	4738.62
845.629	4763.62
845.877	4725.62
846.125	4732.62
846.373	4713.62
846.621	4700.62
846.869	4732.62
847.117	4720.62
847.365	4645.62
847.613	4667.62
847.861	4674.62
848.108	4655.62
848.356	4645.62
848.604	4663.62
848.851	4689.62
849.099	4659.62
849.346	4723.62
849.594	4723.62
849.841	4764.62
850.089	4812.62
850.336	4777.62
850.583	4835.62
850.831	4882.62
851.078	4888.62
851.325	4871.62
851.572	5026.62
851.819	4878.62
852.066	4669.62
852.313	4531.62
852.56	4442.62
852.807	4439.62
853.054	4426.62
853.301	4482.62
853.548	4521.62
853.794	4606.62
854.041	4609.62
854.288	4554.62
854.534	4701.62
854.781	4636.62
855.028	4582.62
855.274	4629.62
855.52	4540.62
855.767	4516.62
856.013	4602.62
856.26	4827.62
856.506	4524.62
856.752	4534.62
856.998	4540.62
857.244	4481.62
857.49	4602.62
857.736	4576.62
857.982	4622.62
858.228	4560.62
858.474	4489.62
858.72	4471.62
858.966	4492.62
859.212	4446.62
859.458	4326.62
859.703	4298.62
859.949	4260.62
860.195	4246.62
860.44	4240.62
860.686	4208.62
860.931	4274.62
861.177	4148.62
861.422	4205.62
861.667	4092.62
861.913	4161.62
862.158	4145.62
862.403	4194.62
862.648	4209.62
862.893	4248.62
863.138	4198.62
863.384	4171.62
863.629	4205.62
863.873	4146.62
864.118	4161.62
864.363	4125.62
864.608	4170.62
864.853	4174.62
865.098	4124.62
865.342	4137.62
865.587	4096.62
865.832	4112.62
866.076	4083.62
866.321	4072.62
866.565	4032.62
866.81	4005.62
867.054	4092.62
867.298	4081.62
867.543	4021.62
867.787	4063.62
868.031	4051.62
868.275	3955.62
868.519	4048.62
868.764	4029.62
869.008	4046.62
869.252	4097.62
869.496	4043.62
869.739	4022.62
869.983	4075.62
870.227	4105.62
870.471	4014.62
870.715	4115.62
870.958	4114.62
871.202	4096.62
871.446	4141.62
871.689	4089.62
871.933	4084.62
872.176	4093.62
872.42	4074.62
872.663	4049.62
872.906	4133.62
873.15	4108.62
873.393	4043.62
873.636	4158.62
873.879	4069.62
874.122	4024.62
874.366	3913.62
874.609	3966.62
874.852	3889.62
875.095	3932.62
875.337	3867.62
875.58	3743.62
875.823	3804.62
876.066	3871.62
876.309	3870.62
876.551	3805.62
876.794	3763.62
877.037	3822.62
877.279	3727.62
877.522	3784.62
877.764	3760.62
878.007	3717.62
878.249	3711.62
878.491	3745.62
878.734	3729.62
878.976	3749.62
879.218	3633.62
879.46	3695.62
879.702	3649.62
879.945	3619.62
880.187	3551.62
880.429	3606.62
880.671	3540.62
880.912	3544.62
881.154	3509.62
881.396	3483.62
881.638	3551.62
881.88	3563.62
882.121	3483.62
882.363	3482.62
882.605	3563.62
882.846	3554.62
883.088	3551.62
883.329	3516.62
883.571	3545.62
883.812	3596.62
884.053	3713.62
884.295	3824.62
884.536	3983.62
884.777	3913.62
885.018	3937.62
885.259	3876.62
885.5	3820.62
885.742	4026.62
885.982	3803.62
886.223	3679.62
886.464	3723.62
886.705	3595.62
886.946	3612.62
887.187	3470.62
887.428	3490.62
887.668	3360.62
887.909	3293.62
888.15	3284.62
888.39	3329.62
888.631	3361.62
888.871	3260.62
889.111	3210.62
889.352	3213.62
889.592	3175.62
889.833	3103.62
890.073	3121.62
890.313	3200.62
890.553	3034.62
890.793	3064.62
891.033	3066.62
891.273	3046.62
891.513	3074.62
891.753	3062.62
891.993	3052.62
892.233	3061.62
892.473	3175.62
892.713	3134.62
892.952	3056.62
893.192	3106.62
893.432	3081.62
893.671	3113.62
893.911	3121.62
894.15	3075.62
894.39	2999.62
894.629	2995.62
894.869	3019.62
895.108	3010.62
895.347	2963.62
895.587	3019.62
895.826	2986.62
896.065	2987.62
896.304	3014.62
896.543	3054.62
896.782	2976.62
897.021	3035.62
897.26	3001.62
897.499	3119.62
897.738	3083.62
897.977	3043.62
898.216	2991.62
898.454	2962.62
898.693	2952.62
898.932	2992.62
899.17	2964.62
899.409	2978.62
899.647	2949.62
899.886	2968.62
900.124	2975.62
900.363	2925.62
900.601	2987.62
900.839	2967.62
901.078	3020.62
901.316	3066.62
901.554	3065.62
901.792	3114.62
902.03	3073.62
902.268	3160.62
902.506	3162.62
902.744	3056.62
902.982	3087.62
903.22	2957.62
903.458	2892.62
903.695	2904.62
903.933	2834.62
904.171	2759.62
904.409	2703.62
904.646	2732.62
904.884	2630.62
905.121	2666.62
905.359	2589.62
905.596	2602.62
905.833	2525.62
906.071	2492.62
906.308	2578.62
906.545	2512.62
906.783	2456.62
907.02	2479.62
907.257	2414.62
907.494	2442.62
907.731	2489.62
907.968	2491.62
908.205	2429.62
908.442	2411.62
908.679	2413.62
908.915	2427.62
909.152	2354.62
909.389	2295.62
909.626	2350.62
909.862	2307.62
910.099	2297.62
910.335	2364.62
910.572	2225.62
910.808	2303.62
911.045	2296.62
911.281	2252.62
911.518	2349.62
911.754	2261.62
911.99	2250.62
912.226	2222.62
912.463	2185.62
912.699	2221.62
912.935	2193.62
913.171	2180.62
913.407	2105.62
913.643	2203.62
913.879	2143.62
914.114	2118.62
914.35	2101.62
914.586	2102.62
914.822	2067.62
915.057	2116.62
915.293	2017.62
915.529	2009.62
915.764	2100.62
916	2050.62
916.235	2032.62
916.471	2053.62
916.706	1968.62
916.941	2045.62
917.177	2024.62
917.412	2043.62
917.647	2028.62
917.882	2023.62
918.117	2048.62
918.352	2022.62
918.588	2065.62
918.823	2020.62
919.057	1994.62
919.292	1894.62
919.527	2016.62
919.762	1936.62
919.997	1983.62
920.232	1900.62
920.466	1964.62
920.701	1829.62
920.935	1893.62
921.17	1874.62
921.405	1819.62
921.639	1896.62
921.873	1844.62
922.108	1861.62
922.342	1854.62
922.576	1822.62
922.811	1797.62
923.045	1871.62
923.279	1891.62
923.513	1727.62
923.747	1857.62
923.981	1811.62
924.215	1787.62
924.449	1793.62
924.683	1748.62
924.917	1775.62
925.151	1743.62
925.385	1846.62
925.618	1791.62
925.852	1756.62
926.086	1726.62
926.319	1771.62
926.553	1774.62
926.786	1791.62
927.02	1768.62
927.253	1798.62
927.486	1797.62
927.72	1713.62
927.953	1803.62
928.186	1743.62
928.42	1788.62
928.653	1693.62
928.886	1720.62
929.119	1753.62
929.352	1740.62
929.585	1716.62
929.818	1680.62
930.051	1719.62
930.284	1739.62
930.516	1628.62
930.749	1649.62
930.982	1730.62
931.215	1688.62
931.447	1642.62
931.68	1674.62
931.912	1643.62
932.145	1633.62
932.377	1652.62
932.61	1772.62
932.842	1576.62
933.074	1679.62
933.307	1617.62
933.539	1710.62
933.771	1700.62
934.003	1653.62
934.236	1707.62
934.468	1729.62
934.7	1651.62
934.932	1697.62
935.164	1645.62
935.395	1644.62
935.627	1638.62
935.859	1660.62
936.091	1601.62
936.323	1644.62
936.554	1713.62
936.786	1623.62
937.017	1584.62
937.249	1632.62
937.481	1558.62
937.712	1654.62
937.943	1610.62
938.175	1608.62
938.406	1604.62
938.637	1685.62
938.869	1572.62
939.1	1637.62
939.331	1583.62
939.562	1629.62
939.793	1600.62
940.024	1621.62
940.255	1646.62
940.486	1595.62
940.717	1594.62
940.948	1603.62
941.179	1550.62
941.409	1556.62
941.64	1544.62
941.871	1571.62
942.102	1539.62
942.332	1573.62
942.563	1616.62
942.793	1584.62
943.024	1535.62
943.254	1554.62
943.484	1617.62
943.715	1601.62
943.945	1600.62
944.175	1540.62
944.405	1506.62
944.636	1525.62
944.866	1564.62
945.096	1588.62
945.326	1515.62
945.556	1572.62
945.786	1588.62
946.016	1543.62
946.245	1509.62
946.475	1516.62
946.705	1514.62
946.935	1509.62
947.164	1514.62
947.394	1484.62
947.624	1498.62
947.853	1558.62
948.083	1512.62
948.312	1484.62
948.542	1421.62
948.771	1435.62
949	1442.62
949.23	1451.62
949.459	1463.62
949.688	1533.62
949.917	1466.62
950.146	1481.62
950.375	1538.62
950.604	1459.62
950.833	1551.62
951.062	1506.62
951.291	1475.62
951.52	1432.62
951.749	1461.62
951.978	1403.62
952.206	1439.62
952.435	1423.62
952.664	1496.62
952.892	1475.62
953.121	1434.62
953.349	1487.62
953.578	1463.62
953.806	1432.62
954.035	1388.62
954.263	1467.62
954.491	1411.62
954.719	1468.62
954.948	1384.62
955.176	1408.62
955.404	1319.62
955.632	1415.62
955.86	1427.62
956.088	1388.62
956.316	1434.62
956.544	1443.62
956.772	1394.62
956.999	1371.62
957.227	1470.62
957.455	1388.62
957.683	1413.62
957.91	1342.62
958.138	1346.62
958.365	1356.62
958.593	1340.62
958.82	1292.62
959.048	1382.62
959.275	1364.62
959.502	1348.62
959.73	1315.62
959.957	1388.62
960.184	1390.62
960.411	1356.62
960.638	1416.62
960.865	1356.62
961.092	1388.62
961.319	1296.62
961.546	1396.62
961.773	1352.62
962	1350.62
962.227	1394.62
962.454	1348.62
962.68	1341.62
962.907	1353.62
963.134	1299.62
963.36	1328.62
963.587	1330.62
963.813	1293.62
964.04	1336.62
964.266	1268.62
964.493	1348.62
964.719	1324.62
964.945	1321.62
965.171	1248.62
965.398	1316.62
965.624	1348.62
965.85	1258.62
966.076	1280.62
966.302	1300.62
966.528	1270.62
966.754	1311.62
966.98	1306.62
967.206	1280.62
967.431	1218.62
967.657	1336.62
967.883	1287.62
968.109	1285.62
968.334	1245.62
968.56	1234.62
968.785	1227.62
969.011	1222.62
969.236	1271.62
969.462	1232.62
969.687	1252.62
969.912	1287.62
970.138	1311.62
970.363	1206.62
970.588	1264.62
970.813	1227.62
971.038	1219.62
971.263	1237.62
971.488	1235.62
971.713	1264.62
971.938	1263.62
972.163	1167.62
972.388	1220.62
972.613	1208.62
972.838	1211.62
973.062	1209.62
973.287	1226.62
973.512	1175.62
973.736	1172.62
973.961	1187.62
974.185	1158.62
974.41	1221.62
974.634	1126.62
974.858	1142.62
975.083	1189.62
975.307	1201.62
975.531	1133.62
975.755	1080.62
975.98	1122.62
976.204	1070.62
976.428	1093.62
976.652	1080.62
976.876	1061.62
977.1	1112.62
977.324	1063.62
977.547	1133.62
977.771	1165.62
977.995	1135.62
978.219	1048.62
978.442	1181.62
978.666	1115.62
978.89	1114.62
979.113	1116.62
979.337	1116.62
979.56	1073.62
979.783	1174.62
980.007	1073.62
980.23	1094.62
980.453	1067.62
980.677	1116.62
980.9	1099.62
981.123	1030.62
981.346	1124.62
981.569	1104.62
981.792	1116.62
982.015	1090.62
982.238	1053.62
982.461	1048.62
982.684	1060.62
982.907	1031.62
983.129	1018.62
983.352	1057.62
983.575	1068.62
983.797	1069.62
984.02	1022.62
984.242	1016.62
984.465	1061.62
984.687	1078.62
984.91	1089.62
985.132	1054.62
985.354	1110.62
985.577	1056.62
985.799	1062.62
986.021	999.62
986.243	1026.62
986.465	1067.62
986.687	1091.62
986.909	1110.62
987.131	1069.62
987.353	1023.62
987.575	1074.62
987.797	1054.62
988.019	977.62
988.241	1068.62
988.462	1011.62
988.684	1052.62
988.906	1086.62
989.127	1131.62
989.349	995.62
989.57	1045.62
989.792	1081.62
990.013	1100.62
990.234	1069.62
990.456	1129.62
990.677	1114.62
990.898	1050.62
991.119	1038.62
991.341	1094.62
991.562	1014.62
991.783	1068.62
992.004	1008.62
992.225	972.62
992.446	1042.62
992.667	963.62
992.887	1047.62
993.108	963.62
993.329	1093.62
993.55	1029.62
993.77	973.62
993.991	968.62
994.212	1038.62
994.432	1016.62
994.653	1029.62
994.873	1016.62
995.093	904.62
995.314	990.62
995.534	1053.62
995.754	1058.62
995.975	1075.62
996.195	982.62
996.415	1030.62
996.635	1009.62
996.855	1005.62
997.075	993.62
997.295	991.62
997.515	991.62
997.735	1026.62
997.955	1016.62
998.174	989.62
998.394	991.62
998.614	1015.62
998.834	992.62
999.053	1055.62
999.273	1055.62
999.492	1087.62
999.712	1017.62
999.931	988.62
1000.151	1049.62
1000.37	1032.62
1000.589	1068.62
1000.809	1004.62
1001.028	1133.62
1001.247	1064.62
1001.466	957.62
1001.685	1126.62
1001.904	1051.62
1002.123	1051.62
1002.342	1048.62
1002.561	1025.62
1002.78	1027.62
1002.999	1096.62
1003.218	1038.62
1003.436	1022.62
1003.655	1080.62
1003.874	1031.62
1004.092	1048.62
1004.311	1093.62
1004.53	1035.62
1004.748	1143.62
1004.966	1040.62
1005.185	1105.62
1005.403	1097.62
1005.622	1056.62
1005.84	1173.62
1006.058	1044.62
1006.276	1088.62
1006.494	1577.62
1006.712	1064.62
1006.931	1146.62
1007.149	1045.62
1007.367	1060.62
1007.584	1122.62
1007.802	1146.62
1008.02	1091.62
1008.238	1190.62
1008.456	1174.62
1008.673	1039.62
1008.891	1173.62
1009.109	1108.62
1009.326	1159.62
1009.544	1236.62
1009.761	1152.62
1009.979	1242.62
1010.196	1244.62
1010.413	1319.62
1010.631	1351.62
1010.848	1414.62
1011.065	1427.62
1011.282	1353.62
1011.5	1295.62
1011.717	1409.62
1011.934	1387.62
1012.151	1383.62
1012.368	1383.62
1012.585	1341.62
1012.801	1370.62
1013.018	1370.62
1013.235	1322.62
1013.452	1352.62
1013.669	1375.62
1013.885	1338.62
1014.102	1401.62
1014.318	1347.62
1014.535	1310.62
1014.751	1367.62
1014.968	1350.62
1015.184	1379.62
1015.401	1294.62
1015.617	1336.62
1015.833	1291.62
1016.049	1310.62
1016.266	1308.62
1016.482	1297.62
1016.698	1234.62
1016.914	1318.62
1017.13	1264.62
1017.346	1234.62
1017.562	1318.62
1017.778	1272.62
1017.993	1224.62
1018.209	1293.62
1018.425	1270.62
1018.641	1232.62
1018.856	1216.62
1019.072	1249.62
1019.288	1296.62
1019.503	1255.62
1019.719	1172.62
1019.934	1199.62
1020.149	1254.62
1020.365	1208.62
1020.58	1172.62
1020.795	1213.62
1021.011	1152.62
1021.226	1137.62
1021.441	1151.62
1021.656	1091.62
1021.871	1016.62
1022.086	1012.62
1022.301	1031.62
1022.516	1004.62
1022.731	1048.62
1022.946	990.62
1023.16	963.62
1023.375	930.62
1023.59	934.62
1023.804	898.62
1024.019	987.62
1024.234	858.62
1024.448	915.62
1024.663	834.62
1024.877	849.62
1025.092	860.62
1025.306	875.62
1025.52	763.62
1025.734	869.62
1025.949	799.62
1026.163	766.62
1026.377	696.62
1026.591	777.62
1026.805	708.62
1027.019	708.62
1027.233	688.62
1027.447	635.62
1027.661	732.62
1027.875	677.62
1028.088	684.62
1028.302	618.62
1028.516	622.62
1028.73	595.62
1028.943	605.62
1029.157	567.62
1029.37	523.62
1029.584	-1.38
1029.797	-2.38
1030.011	-1.38
1030.224	-0.38
