Data from QEP037381__248__11-01-56-588.txt Node

Date: Wed Dec 21 11:01:56 EST 2022
User: dcclab
Spectrometer: QEP03738
Trigger mode: 4
Integration Time (sec): 1.000000E1
Scans to average: 1
Electric dark correction enabled: true
Nonlinearity correction enabled: false
Boxcar width: 0
XAxis mode: Wavelengths
Number of Pixels in Spectrum: 1044
>>>>>Begin Spectral Data<<<<<
784.041	14.88
784.3	2.88
784.558	-3.12
784.817	-4.12
785.075	100882.88
785.334	16733.88
785.592	7622.88
785.851	5226.88
786.109	3939.88
786.368	3058.88
786.626	2470.88
786.884	2031.88
787.143	1720.88
787.401	1422.88
787.659	1276.88
787.917	1129.88
788.175	1031.88
788.433	890.88
788.691	814.88
788.949	762.88
789.207	721.88
789.465	624.88
789.723	594.88
789.98	540.88
790.238	584.88
790.496	539.88
790.753	525.88
791.011	575.88
791.268	495.88
791.526	487.88
791.783	490.88
792.041	469.88
792.298	404.88
792.556	464.88
792.813	435.88
793.07	427.88
793.327	414.88
793.584	487.88
793.841	401.88
794.099	427.88
794.356	481.88
794.613	399.88
794.869	421.88
795.126	373.88
795.383	375.88
795.64	383.88
795.897	340.88
796.153	400.88
796.41	394.88
796.667	357.88
796.923	370.88
797.18	358.88
797.436	395.88
797.693	358.88
797.949	412.88
798.206	430.88
798.462	343.88
798.718	410.88
798.974	375.88
799.231	415.88
799.487	393.88
799.743	386.88
799.999	421.88
800.255	401.88
800.511	375.88
800.767	416.88
801.023	388.88
801.279	411.88
801.534	411.88
801.79	433.88
802.046	398.88
802.302	471.88
802.557	469.88
802.813	516.88
803.068	510.88
803.324	622.88
803.579	724.88
803.835	879.88
804.09	1172.88
804.345	1434.88
804.601	1751.88
804.856	2135.88
805.111	2458.88
805.366	2658.88
805.621	2828.88
805.876	2928.88
806.131	2969.88
806.386	2991.88
806.641	3025.88
806.896	3061.88
807.151	3236.88
807.406	3223.88
807.661	3295.88
807.915	3340.88
808.17	3382.88
808.425	3427.88
808.679	3437.88
808.934	3548.88
809.188	3542.88
809.443	3629.88
809.697	3621.88
809.951	3615.88
810.206	3636.88
810.46	3688.88
810.714	3689.88
810.968	3807.88
811.223	3751.88
811.477	3882.88
811.731	3917.88
811.985	3826.88
812.239	3845.88
812.493	3903.88
812.747	3910.88
813	3874.88
813.254	3968.88
813.508	4000.88
813.762	3968.88
814.015	4010.88
814.269	4016.88
814.522	4098.88
814.776	4168.88
815.03	4186.88
815.283	4240.88
815.536	4365.88
815.79	4305.88
816.043	4464.88
816.296	4511.88
816.55	4551.88
816.803	4607.88
817.056	4690.88
817.309	4684.88
817.562	4745.88
817.815	4828.88
818.068	4802.88
818.321	4876.88
818.574	4924.88
818.827	5036.88
819.079	5070.88
819.332	5235.88
819.585	5234.88
819.838	5359.88
820.09	5327.88
820.343	5453.88
820.595	5319.88
820.848	5426.88
821.1	5499.88
821.353	5431.88
821.605	5458.88
821.857	5512.88
822.11	5381.88
822.362	5431.88
822.614	5444.88
822.866	5461.88
823.118	5400.88
823.37	5559.88
823.622	5572.88
823.874	5553.88
824.126	5598.88
824.378	5594.88
824.63	5674.88
824.882	5623.88
825.134	5611.88
825.385	5594.88
825.637	5552.88
825.888	5482.88
826.14	5482.88
826.392	5439.88
826.643	5391.88
826.895	5426.88
827.146	5401.88
827.397	5303.88
827.649	5442.88
827.9	5362.88
828.151	5306.88
828.402	5325.88
828.653	5374.88
828.905	5417.88
829.156	5513.88
829.407	5416.88
829.658	5430.88
829.909	5438.88
830.159	5447.88
830.41	5437.88
830.661	5362.88
830.912	5329.88
831.162	5366.88
831.413	5325.88
831.664	5368.88
831.914	5389.88
832.165	5383.88
832.415	5405.88
832.666	5370.88
832.916	5373.88
833.167	5365.88
833.417	5378.88
833.667	5308.88
833.917	5292.88
834.168	5401.88
834.418	5399.88
834.668	5351.88
834.918	5320.88
835.168	5285.88
835.418	5230.88
835.668	5287.88
835.918	5329.88
836.167	5289.88
836.417	5215.88
836.667	5267.88
836.917	5233.88
837.166	5222.88
837.416	5247.88
837.666	5241.88
837.915	5171.88
838.165	5184.88
838.414	5117.88
838.663	5107.88
838.913	5133.88
839.162	5092.88
839.411	5195.88
839.661	5129.88
839.91	5125.88
840.159	5109.88
840.408	5157.88
840.657	5178.88
840.906	5145.88
841.155	5161.88
841.404	5150.88
841.653	5159.88
841.902	5091.88
842.15	5146.88
842.399	5151.88
842.648	5136.88
842.897	5097.88
843.145	5015.88
843.394	5077.88
843.642	5008.88
843.891	5049.88
844.139	4981.88
844.388	4939.88
844.636	4902.88
844.884	4927.88
845.133	4931.88
845.381	4944.88
845.629	4908.88
845.877	4876.88
846.125	4885.88
846.373	4889.88
846.621	4887.88
846.869	4912.88
847.117	4858.88
847.365	4856.88
847.613	4836.88
847.861	4895.88
848.108	4835.88
848.356	4809.88
848.604	4803.88
848.851	4911.88
849.099	4833.88
849.346	4874.88
849.594	4941.88
849.841	4972.88
850.089	4929.88
850.336	4988.88
850.583	5030.88
850.831	5050.88
851.078	5032.88
851.325	5063.88
851.572	5181.88
851.819	5026.88
852.066	4799.88
852.313	4711.88
852.56	4682.88
852.807	4604.88
853.054	4567.88
853.301	4670.88
853.548	4649.88
853.794	4750.88
854.041	4744.88
854.288	4756.88
854.534	4881.88
854.781	4783.88
855.028	4749.88
855.274	4794.88
855.52	4716.88
855.767	4655.88
856.013	4740.88
856.26	5030.88
856.506	4668.88
856.752	4665.88
856.998	4648.88
857.244	4628.88
857.49	4660.88
857.736	4656.88
857.982	4702.88
858.228	4705.88
858.474	4588.88
858.72	4591.88
858.966	4511.88
859.212	4530.88
859.458	4484.88
859.703	4431.88
859.949	4321.88
860.195	4413.88
860.44	4382.88
860.686	4319.88
860.931	4372.88
861.177	4270.88
861.422	4322.88
861.667	4258.88
861.913	4232.88
862.158	4298.88
862.403	4370.88
862.648	4382.88
862.893	4387.88
863.138	4390.88
863.384	4276.88
863.629	4357.88
863.873	4362.88
864.118	4338.88
864.363	4224.88
864.608	4322.88
864.853	4318.88
865.098	4226.88
865.342	4230.88
865.587	4164.88
865.832	4283.88
866.076	4239.88
866.321	4210.88
866.565	4240.88
866.81	4116.88
867.054	4164.88
867.298	4166.88
867.543	4145.88
867.787	4182.88
868.031	4152.88
868.275	4143.88
868.519	4119.88
868.764	4175.88
869.008	4126.88
869.252	4168.88
869.496	4134.88
869.739	4124.88
869.983	4172.88
870.227	4157.88
870.471	4117.88
870.715	4165.88
870.958	4237.88
871.202	4152.88
871.446	4167.88
871.689	4169.88
871.933	4224.88
872.176	4199.88
872.42	4203.88
872.663	4153.88
872.906	4181.88
873.15	4146.88
873.393	4068.88
873.636	4154.88
873.879	4179.88
874.122	4109.88
874.366	4005.88
874.609	4053.88
874.852	3950.88
875.095	3977.88
875.337	3955.88
875.58	3869.88
875.823	3900.88
876.066	3954.88
876.309	3950.88
876.551	3849.88
876.794	3800.88
877.037	3882.88
877.279	3784.88
877.522	3838.88
877.764	3870.88
878.007	3791.88
878.249	3831.88
878.491	3798.88
878.734	3816.88
878.976	3778.88
879.218	3742.88
879.46	3802.88
879.702	3749.88
879.945	3695.88
880.187	3667.88
880.429	3679.88
880.671	3695.88
880.912	3677.88
881.154	3594.88
881.396	3588.88
881.638	3614.88
881.88	3621.88
882.121	3578.88
882.363	3600.88
882.605	3648.88
882.846	3600.88
883.088	3617.88
883.329	3578.88
883.571	3547.88
883.812	3600.88
884.053	3729.88
884.295	3819.88
884.536	3962.88
884.777	3857.88
885.018	3884.88
885.259	3888.88
885.5	3751.88
885.742	4017.88
885.982	3776.88
886.223	3716.88
886.464	3741.88
886.705	3661.88
886.946	3629.88
887.187	3538.88
887.428	3551.88
887.668	3454.88
887.909	3349.88
888.15	3339.88
888.39	3388.88
888.631	3426.88
888.871	3346.88
889.111	3335.88
889.352	3305.88
889.592	3295.88
889.833	3266.88
890.073	3197.88
890.313	3298.88
890.553	3142.88
890.793	3176.88
891.033	3112.88
891.273	3135.88
891.513	3171.88
891.753	3201.88
891.993	3145.88
892.233	3148.88
892.473	3243.88
892.713	3183.88
892.952	3178.88
893.192	3191.88
893.432	3182.88
893.671	3218.88
893.911	3199.88
894.15	3161.88
894.39	3108.88
894.629	3139.88
894.869	3077.88
895.108	3113.88
895.347	3051.88
895.587	3122.88
895.826	3062.88
896.065	3027.88
896.304	3086.88
896.543	3130.88
896.782	3067.88
897.021	3111.88
897.26	3081.88
897.499	3164.88
897.738	3174.88
897.977	3099.88
898.216	3073.88
898.454	3053.88
898.693	2982.88
898.932	3079.88
899.17	3025.88
899.409	2991.88
899.647	2986.88
899.886	2999.88
900.124	3046.88
900.363	3002.88
900.601	3026.88
900.839	3046.88
901.078	3002.88
901.316	3059.88
901.554	3091.88
901.792	3095.88
902.03	3088.88
902.268	3124.88
902.506	3132.88
902.744	3036.88
902.982	3087.88
903.22	2966.88
903.458	2918.88
903.695	2906.88
903.933	2920.88
904.171	2761.88
904.409	2724.88
904.646	2745.88
904.884	2692.88
905.121	2702.88
905.359	2662.88
905.596	2645.88
905.833	2577.88
906.071	2599.88
906.308	2611.88
906.545	2528.88
906.783	2537.88
907.02	2534.88
907.257	2482.88
907.494	2527.88
907.731	2539.88
907.968	2571.88
908.205	2463.88
908.442	2451.88
908.679	2482.88
908.915	2476.88
909.152	2460.88
909.389	2363.88
909.626	2406.88
909.862	2340.88
910.099	2361.88
910.335	2403.88
910.572	2318.88
910.808	2324.88
911.045	2337.88
911.281	2290.88
911.518	2400.88
911.754	2295.88
911.99	2322.88
912.226	2280.88
912.463	2253.88
912.699	2235.88
912.935	2239.88
913.171	2241.88
913.407	2169.88
913.643	2238.88
913.879	2210.88
914.114	2141.88
914.35	2128.88
914.586	2116.88
914.822	2100.88
915.057	2183.88
915.293	2070.88
915.529	2035.88
915.764	2149.88
916	2102.88
916.235	2067.88
916.471	2127.88
916.706	2008.88
916.941	2055.88
917.177	2034.88
917.412	2125.88
917.647	2107.88
917.882	2054.88
918.117	2107.88
918.352	2090.88
918.588	2121.88
918.823	2048.88
919.057	2033.88
919.292	1925.88
919.527	2070.88
919.762	1960.88
919.997	2011.88
920.232	1955.88
920.466	1984.88
920.701	1874.88
920.935	1913.88
921.17	1882.88
921.405	1868.88
921.639	1904.88
921.873	1893.88
922.108	1904.88
922.342	1907.88
922.576	1829.88
922.811	1881.88
923.045	1936.88
923.279	1907.88
923.513	1781.88
923.747	1866.88
923.981	1837.88
924.215	1828.88
924.449	1811.88
924.683	1784.88
924.917	1806.88
925.151	1778.88
925.385	1858.88
925.618	1796.88
925.852	1817.88
926.086	1729.88
926.319	1788.88
926.553	1787.88
926.786	1827.88
927.02	1778.88
927.253	1832.88
927.486	1822.88
927.72	1744.88
927.953	1801.88
928.186	1773.88
928.42	1801.88
928.653	1748.88
928.886	1737.88
929.119	1771.88
929.352	1740.88
929.585	1729.88
929.818	1715.88
930.051	1738.88
930.284	1758.88
930.516	1621.88
930.749	1679.88
930.982	1728.88
931.215	1708.88
931.447	1634.88
931.68	1676.88
931.912	1630.88
932.145	1648.88
932.377	1691.88
932.61	1785.88
932.842	1620.88
933.074	1718.88
933.307	1639.88
933.539	1742.88
933.771	1704.88
934.003	1680.88
934.236	1775.88
934.468	1768.88
934.7	1688.88
934.932	1726.88
935.164	1659.88
935.395	1649.88
935.627	1637.88
935.859	1672.88
936.091	1602.88
936.323	1646.88
936.554	1725.88
936.786	1621.88
937.017	1593.88
937.249	1622.88
937.481	1587.88
937.712	1641.88
937.943	1640.88
938.175	1606.88
938.406	1598.88
938.637	1701.88
938.869	1567.88
939.1	1649.88
939.331	1617.88
939.562	1637.88
939.793	1665.88
940.024	1706.88
940.255	1726.88
940.486	1686.88
940.717	1661.88
940.948	1636.88
941.179	1566.88
941.409	1604.88
941.64	1593.88
941.871	1590.88
942.102	1564.88
942.332	1581.88
942.563	1634.88
942.793	1564.88
943.024	1548.88
943.254	1557.88
943.484	1619.88
943.715	1614.88
943.945	1590.88
944.175	1537.88
944.405	1511.88
944.636	1525.88
944.866	1590.88
945.096	1577.88
945.326	1513.88
945.556	1579.88
945.786	1593.88
946.016	1516.88
946.245	1496.88
946.475	1521.88
946.705	1507.88
946.935	1549.88
947.164	1514.88
947.394	1500.88
947.624	1520.88
947.853	1547.88
948.083	1512.88
948.312	1477.88
948.542	1451.88
948.771	1437.88
949	1463.88
949.23	1457.88
949.459	1493.88
949.688	1556.88
949.917	1487.88
950.146	1494.88
950.375	1528.88
950.604	1420.88
950.833	1514.88
951.062	1529.88
951.291	1459.88
951.52	1460.88
951.749	1465.88
951.978	1419.88
952.206	1453.88
952.435	1451.88
952.664	1453.88
952.892	1468.88
953.121	1451.88
953.349	1481.88
953.578	1466.88
953.806	1455.88
954.035	1402.88
954.263	1451.88
954.491	1394.88
954.719	1455.88
954.948	1387.88
955.176	1405.88
955.404	1361.88
955.632	1416.88
955.86	1396.88
956.088	1414.88
956.316	1397.88
956.544	1441.88
956.772	1383.88
956.999	1361.88
957.227	1474.88
957.455	1372.88
957.683	1375.88
957.91	1356.88
958.138	1317.88
958.365	1372.88
958.593	1357.88
958.82	1304.88
959.048	1378.88
959.275	1344.88
959.502	1372.88
959.73	1332.88
959.957	1361.88
960.184	1421.88
960.411	1340.88
960.638	1429.88
960.865	1374.88
961.092	1354.88
961.319	1292.88
961.546	1351.88
961.773	1382.88
962	1341.88
962.227	1382.88
962.454	1358.88
962.68	1323.88
962.907	1342.88
963.134	1289.88
963.36	1323.88
963.587	1354.88
963.813	1283.88
964.04	1326.88
964.266	1277.88
964.493	1353.88
964.719	1330.88
964.945	1319.88
965.171	1254.88
965.398	1306.88
965.624	1319.88
965.85	1252.88
966.076	1252.88
966.302	1289.88
966.528	1266.88
966.754	1299.88
966.98	1270.88
967.206	1290.88
967.431	1228.88
967.657	1318.88
967.883	1290.88
968.109	1275.88
968.334	1222.88
968.56	1189.88
968.785	1239.88
969.011	1215.88
969.236	1254.88
969.462	1222.88
969.687	1234.88
969.912	1242.88
970.138	1288.88
970.363	1214.88
970.588	1257.88
970.813	1220.88
971.038	1199.88
971.263	1222.88
971.488	1261.88
971.713	1278.88
971.938	1257.88
972.163	1143.88
972.388	1190.88
972.613	1179.88
972.838	1197.88
973.062	1194.88
973.287	1187.88
973.512	1138.88
973.736	1180.88
973.961	1171.88
974.185	1162.88
974.41	1195.88
974.634	1099.88
974.858	1127.88
975.083	1189.88
975.307	1209.88
975.531	1135.88
975.755	1049.88
975.98	1129.88
976.204	1051.88
976.428	1075.88
976.652	1065.88
976.876	1078.88
977.1	1118.88
977.324	1086.88
977.547	1123.88
977.771	1101.88
977.995	1093.88
978.219	1050.88
978.442	1179.88
978.666	1141.88
978.89	1098.88
979.113	1098.88
979.337	1099.88
979.56	1065.88
979.783	1155.88
980.007	1045.88
980.23	1080.88
980.453	1044.88
980.677	1125.88
980.9	1078.88
981.123	997.88
981.346	1093.88
981.569	1095.88
981.792	1093.88
982.015	1072.88
982.238	1037.88
982.461	1065.88
982.684	1032.88
982.907	1011.88
983.129	1014.88
983.352	1064.88
983.575	1062.88
983.797	1063.88
984.02	1009.88
984.242	1002.88
984.465	1045.88
984.687	1059.88
984.91	1100.88
985.132	1039.88
985.354	1077.88
985.577	1079.88
985.799	1052.88
986.021	961.88
986.243	990.88
986.465	1028.88
986.687	1042.88
986.909	1099.88
987.131	1050.88
987.353	1042.88
987.575	1039.88
987.797	1026.88
988.019	960.88
988.241	1021.88
988.462	978.88
988.684	1057.88
988.906	1103.88
989.127	1080.88
989.349	964.88
989.57	1032.88
989.792	1048.88
990.013	1067.88
990.234	1072.88
990.456	1086.88
990.677	1081.88
990.898	1008.88
991.119	1001.88
991.341	1059.88
991.562	999.88
991.783	1023.88
992.004	973.88
992.225	955.88
992.446	1013.88
992.667	944.88
992.887	1020.88
993.108	935.88
993.329	1061.88
993.55	1021.88
993.77	952.88
993.991	986.88
994.212	1003.88
994.432	991.88
994.653	1027.88
994.873	1008.88
995.093	896.88
995.314	961.88
995.534	1019.88
995.754	1044.88
995.975	1026.88
996.195	945.88
996.415	1005.88
996.635	974.88
996.855	1001.88
997.075	983.88
997.295	975.88
997.515	951.88
997.735	1034.88
997.955	991.88
998.174	981.88
998.394	939.88
998.614	1024.88
998.834	954.88
999.053	1052.88
999.273	990.88
999.492	1060.88
999.712	1005.88
999.931	951.88
1000.151	991.88
1000.37	994.88
1000.589	1050.88
1000.809	1002.88
1001.028	1093.88
1001.247	1028.88
1001.466	941.88
1001.685	1094.88
1001.904	1026.88
1002.123	1016.88
1002.342	1021.88
1002.561	999.88
1002.78	1024.88
1002.999	1100.88
1003.218	1019.88
1003.436	1030.88
1003.655	1067.88
1003.874	1023.88
1004.092	1030.88
1004.311	1071.88
1004.53	1059.88
1004.748	1110.88
1004.966	1033.88
1005.185	1119.88
1005.403	1074.88
1005.622	1051.88
1005.84	1117.88
1006.058	1018.88
1006.276	1056.88
1006.494	1528.88
1006.712	1055.88
1006.931	1130.88
1007.149	1040.88
1007.367	1041.88
1007.584	1089.88
1007.802	1061.88
1008.02	1030.88
1008.238	1144.88
1008.456	1130.88
1008.673	989.88
1008.891	1080.88
1009.109	1068.88
1009.326	1118.88
1009.544	1183.88
1009.761	1085.88
1009.979	1157.88
1010.196	1157.88
1010.413	1238.88
1010.631	1241.88
1010.848	1305.88
1011.065	1283.88
1011.282	1240.88
1011.5	1174.88
1011.717	1272.88
1011.934	1236.88
1012.151	1274.88
1012.368	1244.88
1012.585	1195.88
1012.801	1265.88
1013.018	1221.88
1013.235	1198.88
1013.452	1222.88
1013.669	1224.88
1013.885	1193.88
1014.102	1255.88
1014.318	1207.88
1014.535	1166.88
1014.751	1221.88
1014.968	1209.88
1015.184	1247.88
1015.401	1167.88
1015.617	1212.88
1015.833	1152.88
1016.049	1159.88
1016.266	1156.88
1016.482	1159.88
1016.698	1105.88
1016.914	1176.88
1017.13	1122.88
1017.346	1096.88
1017.562	1167.88
1017.778	1104.88
1017.993	1091.88
1018.209	1155.88
1018.425	1140.88
1018.641	1110.88
1018.856	1079.88
1019.072	1135.88
1019.288	1158.88
1019.503	1109.88
1019.719	1029.88
1019.934	1055.88
1020.149	1132.88
1020.365	1051.88
1020.58	1030.88
1020.795	1084.88
1021.011	1015.88
1021.226	1002.88
1021.441	1037.88
1021.656	958.88
1021.871	920.88
1022.086	920.88
1022.301	918.88
1022.516	916.88
1022.731	972.88
1022.946	894.88
1023.16	888.88
1023.375	868.88
1023.59	826.88
1023.804	832.88
1024.019	922.88
1024.234	809.88
1024.448	835.88
1024.663	769.88
1024.877	801.88
1025.092	810.88
1025.306	820.88
1025.52	758.88
1025.734	856.88
1025.949	767.88
1026.163	737.88
1026.377	683.88
1026.591	753.88
1026.805	675.88
1027.019	674.88
1027.233	658.88
1027.447	601.88
1027.661	695.88
1027.875	647.88
1028.088	652.88
1028.302	592.88
1028.516	568.88
1028.73	603.88
1028.943	582.88
1029.157	545.88
1029.37	522.88
1029.584	1.88
1029.797	-2.12
1030.011	-4.12
1030.224	-6.12
