Data from QEP037381__304__11-11-16-590.txt Node

Date: Wed Dec 21 11:11:16 EST 2022
User: dcclab
Spectrometer: QEP03738
Trigger mode: 4
Integration Time (sec): 1.000000E1
Scans to average: 1
Electric dark correction enabled: true
Nonlinearity correction enabled: false
Boxcar width: 0
XAxis mode: Wavelengths
Number of Pixels in Spectrum: 1044
>>>>>Begin Spectral Data<<<<<
784.041	13.62
784.3	3.62
784.558	-1.38
784.817	-7.38
785.075	95617.62
785.334	16884.62
785.592	8024.62
785.851	5576.62
786.109	4194.62
786.368	3288.62
786.626	2649.62
786.884	2186.62
787.143	1839.62
787.401	1506.62
787.659	1392.62
787.917	1160.62
788.175	1052.62
788.433	932.62
788.691	846.62
788.949	779.62
789.207	737.62
789.465	632.62
789.723	611.62
789.98	562.62
790.238	598.62
790.496	552.62
790.753	534.62
791.011	574.62
791.268	517.62
791.526	482.62
791.783	505.62
792.041	493.62
792.298	408.62
792.556	478.62
792.813	453.62
793.07	424.62
793.327	419.62
793.584	498.62
793.841	415.62
794.099	415.62
794.356	494.62
794.613	392.62
794.869	431.62
795.126	401.62
795.383	366.62
795.64	403.62
795.897	342.62
796.153	406.62
796.41	384.62
796.667	375.62
796.923	371.62
797.18	382.62
797.436	404.62
797.693	366.62
797.949	425.62
798.206	432.62
798.462	333.62
798.718	401.62
798.974	370.62
799.231	417.62
799.487	392.62
799.743	413.62
799.999	408.62
800.255	413.62
800.511	381.62
800.767	409.62
801.023	382.62
801.279	402.62
801.534	413.62
801.79	428.62
802.046	410.62
802.302	463.62
802.557	480.62
802.813	542.62
803.068	539.62
803.324	689.62
803.579	787.62
803.835	996.62
804.09	1307.62
804.345	1622.62
804.601	1978.62
804.856	2428.62
805.111	2761.62
805.366	2977.62
805.621	3121.62
805.876	3273.62
806.131	3334.62
806.386	3376.62
806.641	3400.62
806.896	3482.62
807.151	3599.62
807.406	3635.62
807.661	3697.62
807.915	3730.62
808.17	3852.62
808.425	3839.62
808.679	3875.62
808.934	4005.62
809.188	3959.62
809.443	4080.62
809.697	4152.62
809.951	4098.62
810.206	4132.62
810.46	4264.62
810.714	4299.62
810.968	4335.62
811.223	4308.62
811.477	4386.62
811.731	4463.62
811.985	4428.62
812.239	4383.62
812.493	4439.62
812.747	4474.62
813	4459.62
813.254	4517.62
813.508	4534.62
813.762	4528.62
814.015	4601.62
814.269	4572.62
814.522	4701.62
814.776	4735.62
815.03	4773.62
815.283	4882.62
815.536	4961.62
815.79	5051.62
816.043	5114.62
816.296	5184.62
816.55	5233.62
816.803	5295.62
817.056	5460.62
817.309	5441.62
817.562	5503.62
817.815	5619.62
818.068	5602.62
818.321	5662.62
818.574	5763.62
818.827	5906.62
819.079	5856.62
819.332	6073.62
819.585	6173.62
819.838	6282.62
820.09	6249.62
820.343	6307.62
820.595	6304.62
820.848	6365.62
821.1	6345.62
821.353	6408.62
821.605	6373.62
821.857	6405.62
822.11	6304.62
822.362	6324.62
822.614	6311.62
822.866	6354.62
823.118	6343.62
823.37	6455.62
823.622	6480.62
823.874	6479.62
824.126	6517.62
824.378	6465.62
824.63	6495.62
824.882	6541.62
825.134	6559.62
825.385	6524.62
825.637	6485.62
825.888	6548.62
826.14	6419.62
826.392	6390.62
826.643	6330.62
826.895	6401.62
827.146	6274.62
827.397	6343.62
827.649	6288.62
827.9	6269.62
828.151	6210.62
828.402	6257.62
828.653	6358.62
828.905	6354.62
829.156	6375.62
829.407	6363.62
829.658	6381.62
829.909	6454.62
830.159	6410.62
830.41	6437.62
830.661	6441.62
830.912	6324.62
831.162	6371.62
831.413	6415.62
831.664	6394.62
831.914	6379.62
832.165	6333.62
832.415	6377.62
832.666	6337.62
832.916	6398.62
833.167	6339.62
833.417	6388.62
833.667	6369.62
833.917	6299.62
834.168	6340.62
834.418	6355.62
834.668	6275.62
834.918	6284.62
835.168	6310.62
835.418	6204.62
835.668	6245.62
835.918	6240.62
836.167	6217.62
836.417	6157.62
836.667	6163.62
836.917	6207.62
837.166	6208.62
837.416	6213.62
837.666	6273.62
837.915	6193.62
838.165	6137.62
838.414	6084.62
838.663	6132.62
838.913	6178.62
839.162	6130.62
839.411	6237.62
839.661	6175.62
839.91	6183.62
840.159	6195.62
840.408	6187.62
840.657	6194.62
840.906	6236.62
841.155	6292.62
841.404	6215.62
841.653	6239.62
841.902	6211.62
842.15	6307.62
842.399	6350.62
842.648	6264.62
842.897	6252.62
843.145	6245.62
843.394	6155.62
843.642	6087.62
843.891	6098.62
844.139	6056.62
844.388	5957.62
844.636	5948.62
844.884	5961.62
845.133	6029.62
845.381	5980.62
845.629	6064.62
845.877	6052.62
846.125	6036.62
846.373	5982.62
846.621	5923.62
846.869	5991.62
847.117	5917.62
847.365	5878.62
847.613	5879.62
847.861	5910.62
848.108	5956.62
848.356	5926.62
848.604	5905.62
848.851	5899.62
849.099	5921.62
849.346	5928.62
849.594	6090.62
849.841	6097.62
850.089	6063.62
850.336	6181.62
850.583	6197.62
850.831	6244.62
851.078	6170.62
851.325	6171.62
851.572	6273.62
851.819	6144.62
852.066	5879.62
852.313	5773.62
852.56	5683.62
852.807	5660.62
853.054	5686.62
853.301	5725.62
853.548	5692.62
853.794	5913.62
854.041	5803.62
854.288	5845.62
854.534	5939.62
854.781	5894.62
855.028	5875.62
855.274	5900.62
855.52	5807.62
855.767	5818.62
856.013	5922.62
856.26	6144.62
856.506	5783.62
856.752	5810.62
856.998	5803.62
857.244	5787.62
857.49	5868.62
857.736	5865.62
857.982	5880.62
858.228	5867.62
858.474	5742.62
858.72	5726.62
858.966	5716.62
859.212	5630.62
859.458	5571.62
859.703	5557.62
859.949	5420.62
860.195	5480.62
860.44	5471.62
860.686	5418.62
860.931	5481.62
861.177	5322.62
861.422	5368.62
861.667	5305.62
861.913	5251.62
862.158	5290.62
862.403	5395.62
862.648	5412.62
862.893	5440.62
863.138	5375.62
863.384	5286.62
863.629	5356.62
863.873	5351.62
864.118	5383.62
864.363	5269.62
864.608	5317.62
864.853	5332.62
865.098	5290.62
865.342	5268.62
865.587	5213.62
865.832	5223.62
866.076	5272.62
866.321	5190.62
866.565	5228.62
866.81	5187.62
867.054	5196.62
867.298	5226.62
867.543	5157.62
867.787	5207.62
868.031	5229.62
868.275	5197.62
868.519	5200.62
868.764	5177.62
869.008	5163.62
869.252	5285.62
869.496	5204.62
869.739	5238.62
869.983	5263.62
870.227	5271.62
870.471	5254.62
870.715	5376.62
870.958	5365.62
871.202	5363.62
871.446	5373.62
871.689	5328.62
871.933	5408.62
872.176	5374.62
872.42	5324.62
872.663	5351.62
872.906	5363.62
873.15	5330.62
873.393	5332.62
873.636	5355.62
873.879	5390.62
874.122	5275.62
874.366	5229.62
874.609	5111.62
874.852	5127.62
875.095	5103.62
875.337	5049.62
875.58	4963.62
875.823	5010.62
876.066	5012.62
876.309	5046.62
876.551	4937.62
876.794	4924.62
877.037	4926.62
877.279	4905.62
877.522	4892.62
877.764	4856.62
878.007	4823.62
878.249	4874.62
878.491	4780.62
878.734	4837.62
878.976	4804.62
879.218	4777.62
879.46	4782.62
879.702	4755.62
879.945	4676.62
880.187	4622.62
880.429	4626.62
880.671	4616.62
880.912	4630.62
881.154	4578.62
881.396	4518.62
881.638	4572.62
881.88	4595.62
882.121	4529.62
882.363	4557.62
882.605	4611.62
882.846	4595.62
883.088	4682.62
883.329	4599.62
883.571	4659.62
883.812	4720.62
884.053	4980.62
884.295	5123.62
884.536	5296.62
884.777	5284.62
885.018	5227.62
885.259	5182.62
885.5	5124.62
885.742	5320.62
885.982	5088.62
886.223	4956.62
886.464	4947.62
886.705	4854.62
886.946	4768.62
887.187	4619.62
887.428	4577.62
887.668	4482.62
887.909	4363.62
888.15	4327.62
888.39	4330.62
888.631	4331.62
888.871	4237.62
889.111	4195.62
889.352	4182.62
889.592	4102.62
889.833	4108.62
890.073	4075.62
890.313	4148.62
890.553	3991.62
890.793	4033.62
891.033	3933.62
891.273	3944.62
891.513	3972.62
891.753	4026.62
891.993	3985.62
892.233	4015.62
892.473	4022.62
892.713	4036.62
892.952	3975.62
893.192	4049.62
893.432	4043.62
893.671	4118.62
893.911	4058.62
894.15	4003.62
894.39	3933.62
894.629	3966.62
894.869	3980.62
895.108	3937.62
895.347	3912.62
895.587	3985.62
895.826	3906.62
896.065	3912.62
896.304	3941.62
896.543	3953.62
896.782	3879.62
897.021	3948.62
897.26	3931.62
897.499	3986.62
897.738	4011.62
897.977	3948.62
898.216	3939.62
898.454	3867.62
898.693	3866.62
898.932	3932.62
899.17	3886.62
899.409	3901.62
899.647	3904.62
899.886	3916.62
900.124	3903.62
900.363	3909.62
900.601	3962.62
900.839	3958.62
901.078	4040.62
901.316	4057.62
901.554	4132.62
901.792	4179.62
902.03	4169.62
902.268	4170.62
902.506	4254.62
902.744	4147.62
902.982	4144.62
903.22	3955.62
903.458	3898.62
903.695	3866.62
903.933	3803.62
904.171	3639.62
904.409	3621.62
904.646	3576.62
904.884	3479.62
905.121	3502.62
905.359	3368.62
905.596	3339.62
905.833	3291.62
906.071	3310.62
906.308	3310.62
906.545	3290.62
906.783	3253.62
907.02	3266.62
907.257	3190.62
907.494	3215.62
907.731	3258.62
907.968	3210.62
908.205	3161.62
908.442	3140.62
908.679	3180.62
908.915	3135.62
909.152	3152.62
909.389	3028.62
909.626	3061.62
909.862	3020.62
910.099	3007.62
910.335	3062.62
910.572	2946.62
910.808	3008.62
911.045	2935.62
911.281	2963.62
911.518	2988.62
911.754	2920.62
911.99	2946.62
912.226	2872.62
912.463	2836.62
912.699	2866.62
912.935	2869.62
913.171	2860.62
913.407	2832.62
913.643	2842.62
913.879	2814.62
914.114	2778.62
914.35	2711.62
914.586	2734.62
914.822	2655.62
915.057	2808.62
915.293	2621.62
915.529	2610.62
915.764	2694.62
916	2681.62
916.235	2654.62
916.471	2712.62
916.706	2584.62
916.941	2636.62
917.177	2595.62
917.412	2674.62
917.647	2648.62
917.882	2630.62
918.117	2664.62
918.352	2639.62
918.588	2670.62
918.823	2628.62
919.057	2584.62
919.292	2490.62
919.527	2584.62
919.762	2546.62
919.997	2551.62
920.232	2491.62
920.466	2545.62
920.701	2401.62
920.935	2461.62
921.17	2405.62
921.405	2359.62
921.639	2437.62
921.873	2400.62
922.108	2430.62
922.342	2422.62
922.576	2349.62
922.811	2372.62
923.045	2422.62
923.279	2444.62
923.513	2282.62
923.747	2397.62
923.981	2357.62
924.215	2297.62
924.449	2344.62
924.683	2275.62
924.917	2235.62
925.151	2280.62
925.385	2348.62
925.618	2295.62
925.852	2310.62
926.086	2209.62
926.319	2270.62
926.553	2262.62
926.786	2318.62
927.02	2268.62
927.253	2312.62
927.486	2271.62
927.72	2241.62
927.953	2307.62
928.186	2253.62
928.42	2286.62
928.653	2245.62
928.886	2192.62
929.119	2298.62
929.352	2236.62
929.585	2231.62
929.818	2207.62
930.051	2207.62
930.284	2240.62
930.516	2126.62
930.749	2153.62
930.982	2198.62
931.215	2188.62
931.447	2090.62
931.68	2121.62
931.912	2101.62
932.145	2134.62
932.377	2175.62
932.61	2248.62
932.842	2088.62
933.074	2126.62
933.307	2097.62
933.539	2192.62
933.771	2175.62
934.003	2115.62
934.236	2209.62
934.468	2230.62
934.7	2155.62
934.932	2175.62
935.164	2097.62
935.395	2113.62
935.627	2150.62
935.859	2131.62
936.091	2105.62
936.323	2155.62
936.554	2202.62
936.786	2126.62
937.017	2064.62
937.249	2139.62
937.481	2063.62
937.712	2120.62
937.943	2104.62
938.175	2074.62
938.406	2102.62
938.637	2093.62
938.869	2037.62
939.1	2097.62
939.331	2055.62
939.562	2111.62
939.793	2094.62
940.024	2121.62
940.255	2109.62
940.486	2066.62
940.717	2056.62
940.948	2034.62
941.179	2030.62
941.409	2038.62
941.64	2019.62
941.871	2024.62
942.102	2024.62
942.332	2040.62
942.563	2104.62
942.793	2081.62
943.024	1985.62
943.254	2043.62
943.484	2062.62
943.715	2113.62
943.945	2025.62
944.175	1986.62
944.405	1971.62
944.636	2009.62
944.866	2038.62
945.096	2063.62
945.326	1971.62
945.556	2064.62
945.786	2050.62
946.016	2001.62
946.245	1960.62
946.475	1967.62
946.705	1986.62
946.935	1977.62
947.164	1981.62
947.394	1908.62
947.624	1944.62
947.853	1980.62
948.083	1943.62
948.312	1925.62
948.542	1879.62
948.771	1851.62
949	1862.62
949.23	1883.62
949.459	1900.62
949.688	1981.62
949.917	1902.62
950.146	1948.62
950.375	1969.62
950.604	1895.62
950.833	1979.62
951.062	1955.62
951.291	1893.62
951.52	1876.62
951.749	1914.62
951.978	1845.62
952.206	1873.62
952.435	1878.62
952.664	1922.62
952.892	1934.62
953.121	1886.62
953.349	1933.62
953.578	1898.62
953.806	1862.62
954.035	1798.62
954.263	1866.62
954.491	1815.62
954.719	1859.62
954.948	1810.62
955.176	1814.62
955.404	1767.62
955.632	1830.62
955.86	1826.62
956.088	1814.62
956.316	1836.62
956.544	1851.62
956.772	1788.62
956.999	1757.62
957.227	1835.62
957.455	1786.62
957.683	1737.62
957.91	1786.62
958.138	1722.62
958.365	1713.62
958.593	1730.62
958.82	1697.62
959.048	1759.62
959.275	1728.62
959.502	1706.62
959.73	1676.62
959.957	1735.62
960.184	1813.62
960.411	1713.62
960.638	1778.62
960.865	1719.62
961.092	1754.62
961.319	1667.62
961.546	1735.62
961.773	1763.62
962	1722.62
962.227	1751.62
962.454	1705.62
962.68	1708.62
962.907	1742.62
963.134	1667.62
963.36	1716.62
963.587	1738.62
963.813	1641.62
964.04	1700.62
964.266	1672.62
964.493	1704.62
964.719	1711.62
964.945	1716.62
965.171	1598.62
965.398	1668.62
965.624	1668.62
965.85	1600.62
966.076	1582.62
966.302	1646.62
966.528	1626.62
966.754	1653.62
966.98	1611.62
967.206	1634.62
967.431	1557.62
967.657	1653.62
967.883	1648.62
968.109	1629.62
968.334	1574.62
968.56	1571.62
968.785	1555.62
969.011	1547.62
969.236	1594.62
969.462	1555.62
969.687	1559.62
969.912	1613.62
970.138	1635.62
970.363	1550.62
970.588	1584.62
970.813	1555.62
971.038	1546.62
971.263	1604.62
971.488	1557.62
971.713	1607.62
971.938	1603.62
972.163	1501.62
972.388	1541.62
972.613	1525.62
972.838	1554.62
973.062	1503.62
973.287	1493.62
973.512	1451.62
973.736	1513.62
973.961	1491.62
974.185	1504.62
974.41	1521.62
974.634	1448.62
974.858	1470.62
975.083	1485.62
975.307	1498.62
975.531	1466.62
975.755	1427.62
975.98	1436.62
976.204	1378.62
976.428	1378.62
976.652	1390.62
976.876	1372.62
977.1	1411.62
977.324	1379.62
977.547	1412.62
977.771	1413.62
977.995	1410.62
978.219	1346.62
978.442	1469.62
978.666	1404.62
978.89	1397.62
979.113	1398.62
979.337	1394.62
979.56	1382.62
979.783	1434.62
980.007	1323.62
980.23	1386.62
980.453	1376.62
980.677	1384.62
980.9	1369.62
981.123	1309.62
981.346	1369.62
981.569	1377.62
981.792	1372.62
982.015	1345.62
982.238	1329.62
982.461	1345.62
982.684	1322.62
982.907	1293.62
983.129	1283.62
983.352	1366.62
983.575	1326.62
983.797	1327.62
984.02	1311.62
984.242	1304.62
984.465	1325.62
984.687	1326.62
984.91	1360.62
985.132	1338.62
985.354	1342.62
985.577	1341.62
985.799	1317.62
986.021	1235.62
986.243	1283.62
986.465	1311.62
986.687	1346.62
986.909	1371.62
987.131	1296.62
987.353	1270.62
987.575	1338.62
987.797	1265.62
988.019	1222.62
988.241	1275.62
988.462	1235.62
988.684	1314.62
988.906	1353.62
989.127	1348.62
989.349	1218.62
989.57	1286.62
989.792	1302.62
990.013	1336.62
990.234	1327.62
990.456	1357.62
990.677	1342.62
990.898	1303.62
991.119	1316.62
991.341	1308.62
991.562	1259.62
991.783	1300.62
992.004	1233.62
992.225	1228.62
992.446	1253.62
992.667	1188.62
992.887	1262.62
993.108	1189.62
993.329	1312.62
993.55	1264.62
993.77	1202.62
993.991	1206.62
994.212	1258.62
994.432	1228.62
994.653	1257.62
994.873	1253.62
995.093	1162.62
995.314	1196.62
995.534	1285.62
995.754	1258.62
995.975	1289.62
996.195	1190.62
996.415	1266.62
996.635	1213.62
996.855	1254.62
997.075	1231.62
997.295	1236.62
997.515	1202.62
997.735	1268.62
997.955	1240.62
998.174	1221.62
998.394	1199.62
998.614	1229.62
998.834	1225.62
999.053	1300.62
999.273	1249.62
999.492	1303.62
999.712	1217.62
999.931	1184.62
1000.151	1250.62
1000.37	1207.62
1000.589	1285.62
1000.809	1197.62
1001.028	1325.62
1001.247	1277.62
1001.466	1140.62
1001.685	1309.62
1001.904	1250.62
1002.123	1245.62
1002.342	1236.62
1002.561	1232.62
1002.78	1235.62
1002.999	1302.62
1003.218	1223.62
1003.436	1215.62
1003.655	1260.62
1003.874	1202.62
1004.092	1223.62
1004.311	1283.62
1004.53	1236.62
1004.748	1311.62
1004.966	1220.62
1005.185	1305.62
1005.403	1279.62
1005.622	1270.62
1005.84	1340.62
1006.058	1252.62
1006.276	1276.62
1006.494	1753.62
1006.712	1271.62
1006.931	1324.62
1007.149	1259.62
1007.367	1267.62
1007.584	1305.62
1007.802	1326.62
1008.02	1293.62
1008.238	1405.62
1008.456	1397.62
1008.673	1275.62
1008.891	1403.62
1009.109	1370.62
1009.326	1436.62
1009.544	1549.62
1009.761	1455.62
1009.979	1588.62
1010.196	1584.62
1010.413	1711.62
1010.631	1790.62
1010.848	1835.62
1011.065	1854.62
1011.282	1839.62
1011.5	1769.62
1011.717	1886.62
1011.934	1831.62
1012.151	1861.62
1012.368	1861.62
1012.585	1792.62
1012.801	1824.62
1013.018	1850.62
1013.235	1787.62
1013.452	1846.62
1013.669	1867.62
1013.885	1837.62
1014.102	1873.62
1014.318	1848.62
1014.535	1777.62
1014.751	1873.62
1014.968	1857.62
1015.184	1886.62
1015.401	1784.62
1015.617	1807.62
1015.833	1762.62
1016.049	1792.62
1016.266	1764.62
1016.482	1765.62
1016.698	1689.62
1016.914	1759.62
1017.13	1707.62
1017.346	1713.62
1017.562	1768.62
1017.778	1678.62
1017.993	1664.62
1018.209	1731.62
1018.425	1743.62
1018.641	1690.62
1018.856	1645.62
1019.072	1692.62
1019.288	1754.62
1019.503	1679.62
1019.719	1607.62
1019.934	1638.62
1020.149	1692.62
1020.365	1655.62
1020.58	1570.62
1020.795	1629.62
1021.011	1521.62
1021.226	1503.62
1021.441	1521.62
1021.656	1425.62
1021.871	1344.62
1022.086	1352.62
1022.301	1337.62
1022.516	1319.62
1022.731	1387.62
1022.946	1276.62
1023.16	1277.62
1023.375	1238.62
1023.59	1177.62
1023.804	1153.62
1024.019	1252.62
1024.234	1106.62
1024.448	1155.62
1024.663	1087.62
1024.877	1062.62
1025.092	1107.62
1025.306	1084.62
1025.52	999.62
1025.734	1082.62
1025.949	994.62
1026.163	967.62
1026.377	920.62
1026.591	949.62
1026.805	883.62
1027.019	872.62
1027.233	840.62
1027.447	796.62
1027.661	879.62
1027.875	830.62
1028.088	846.62
1028.302	746.62
1028.516	757.62
1028.73	757.62
1028.943	732.62
1029.157	687.62
1029.37	650.62
1029.584	-1.38
1029.797	-1.38
1030.011	-3.38
1030.224	-2.38
