Data from QEP037381__268__11-05-16-589.txt Node

Date: Wed Dec 21 11:05:16 EST 2022
User: dcclab
Spectrometer: QEP03738
Trigger mode: 4
Integration Time (sec): 1.000000E1
Scans to average: 1
Electric dark correction enabled: true
Nonlinearity correction enabled: false
Boxcar width: 0
XAxis mode: Wavelengths
Number of Pixels in Spectrum: 1044
>>>>>Begin Spectral Data<<<<<
784.041	13.75
784.3	-2.25
784.558	-2.25
784.817	-2.25
785.075	98203.75
785.334	16733.75
785.592	7810.75
785.851	5425.75
786.109	4095.75
786.368	3158.75
786.626	2565.75
786.884	2098.75
787.143	1779.75
787.401	1455.75
787.659	1323.75
787.917	1096.75
788.175	1023.75
788.433	887.75
788.691	808.75
788.949	733.75
789.207	711.75
789.465	615.75
789.723	587.75
789.98	564.75
790.238	586.75
790.496	538.75
790.753	510.75
791.011	578.75
791.268	513.75
791.526	489.75
791.783	491.75
792.041	494.75
792.298	392.75
792.556	450.75
792.813	441.75
793.07	416.75
793.327	409.75
793.584	492.75
793.841	396.75
794.099	422.75
794.356	486.75
794.613	385.75
794.869	420.75
795.126	384.75
795.383	355.75
795.64	395.75
795.897	342.75
796.153	411.75
796.41	384.75
796.667	361.75
796.923	368.75
797.18	369.75
797.436	385.75
797.693	357.75
797.949	402.75
798.206	430.75
798.462	339.75
798.718	406.75
798.974	367.75
799.231	407.75
799.487	386.75
799.743	397.75
799.999	415.75
800.255	397.75
800.511	369.75
800.767	409.75
801.023	370.75
801.279	387.75
801.534	399.75
801.79	415.75
802.046	407.75
802.302	455.75
802.557	462.75
802.813	485.75
803.068	480.75
803.324	591.75
803.579	671.75
803.835	807.75
804.09	1047.75
804.345	1233.75
804.601	1502.75
804.856	1783.75
805.111	2022.75
805.366	2192.75
805.621	2321.75
805.876	2373.75
806.131	2423.75
806.386	2485.75
806.641	2465.75
806.896	2529.75
807.151	2633.75
807.406	2622.75
807.661	2662.75
807.915	2696.75
808.17	2748.75
808.425	2787.75
808.679	2738.75
808.934	2875.75
809.188	2803.75
809.443	2937.75
809.697	2954.75
809.951	2897.75
810.206	2897.75
810.46	3006.75
810.714	3049.75
810.968	3047.75
811.223	3023.75
811.477	3120.75
811.731	3119.75
811.985	3038.75
812.239	3042.75
812.493	3079.75
812.747	3129.75
813	3120.75
813.254	3148.75
813.508	3186.75
813.762	3141.75
814.015	3190.75
814.269	3236.75
814.522	3249.75
814.776	3294.75
815.03	3284.75
815.283	3372.75
815.536	3419.75
815.79	3487.75
816.043	3526.75
816.296	3551.75
816.55	3543.75
816.803	3583.75
817.056	3703.75
817.309	3730.75
817.562	3733.75
817.815	3821.75
818.068	3781.75
818.321	3769.75
818.574	3829.75
818.827	3960.75
819.079	3946.75
819.332	4150.75
819.585	4130.75
819.838	4199.75
820.09	4147.75
820.343	4170.75
820.595	4151.75
820.848	4208.75
821.1	4279.75
821.353	4245.75
821.605	4264.75
821.857	4271.75
822.11	4157.75
822.362	4144.75
822.614	4183.75
822.866	4237.75
823.118	4179.75
823.37	4329.75
823.622	4238.75
823.874	4307.75
824.126	4325.75
824.378	4309.75
824.63	4330.75
824.882	4353.75
825.134	4292.75
825.385	4283.75
825.637	4256.75
825.888	4193.75
826.14	4237.75
826.392	4182.75
826.643	4125.75
826.895	4193.75
827.146	4097.75
827.397	4130.75
827.649	4148.75
827.9	4085.75
828.151	4068.75
828.402	4060.75
828.653	4095.75
828.905	4114.75
829.156	4135.75
829.407	4079.75
829.658	4138.75
829.909	4179.75
830.159	4235.75
830.41	4179.75
830.661	4198.75
830.912	4107.75
831.162	4079.75
831.413	4141.75
831.664	4136.75
831.914	4087.75
832.165	4074.75
832.415	4135.75
832.666	4125.75
832.916	4144.75
833.167	4129.75
833.417	4162.75
833.667	4138.75
833.917	4140.75
834.168	4178.75
834.418	4124.75
834.668	4117.75
834.918	4073.75
835.168	4114.75
835.418	4030.75
835.668	4083.75
835.918	4091.75
836.167	4044.75
836.417	3987.75
836.667	4002.75
836.917	4018.75
837.166	4012.75
837.416	4049.75
837.666	4011.75
837.915	3976.75
838.165	3994.75
838.414	3891.75
838.663	3865.75
838.913	3948.75
839.162	3965.75
839.411	4024.75
839.661	3930.75
839.91	3966.75
840.159	3931.75
840.408	3983.75
840.657	3960.75
840.906	3965.75
841.155	4055.75
841.404	3957.75
841.653	3955.75
841.902	3969.75
842.15	3955.75
842.399	3980.75
842.648	4012.75
842.897	3974.75
843.145	3919.75
843.394	3922.75
843.642	3879.75
843.891	3916.75
844.139	3811.75
844.388	3769.75
844.636	3734.75
844.884	3798.75
845.133	3745.75
845.381	3806.75
845.629	3813.75
845.877	3789.75
846.125	3791.75
846.373	3809.75
846.621	3707.75
846.869	3760.75
847.117	3756.75
847.365	3689.75
847.613	3714.75
847.861	3686.75
848.108	3736.75
848.356	3748.75
848.604	3756.75
848.851	3698.75
849.099	3709.75
849.346	3709.75
849.594	3799.75
849.841	3885.75
850.089	3847.75
850.336	3873.75
850.583	3983.75
850.831	3990.75
851.078	3957.75
851.325	3961.75
851.572	4052.75
851.819	3979.75
852.066	3770.75
852.313	3627.75
852.56	3565.75
852.807	3538.75
853.054	3544.75
853.301	3595.75
853.548	3622.75
853.794	3783.75
854.041	3696.75
854.288	3675.75
854.534	3793.75
854.781	3733.75
855.028	3642.75
855.274	3710.75
855.52	3703.75
855.767	3657.75
856.013	3751.75
856.26	4054.75
856.506	3622.75
856.752	3692.75
856.998	3630.75
857.244	3643.75
857.49	3697.75
857.736	3727.75
857.982	3660.75
858.228	3661.75
858.474	3621.75
858.72	3619.75
858.966	3572.75
859.212	3501.75
859.458	3468.75
859.703	3425.75
859.949	3368.75
860.195	3398.75
860.44	3429.75
860.686	3358.75
860.931	3424.75
861.177	3345.75
861.422	3386.75
861.667	3285.75
861.913	3289.75
862.158	3278.75
862.403	3342.75
862.648	3325.75
862.893	3341.75
863.138	3331.75
863.384	3302.75
863.629	3358.75
863.873	3300.75
864.118	3295.75
864.363	3277.75
864.608	3354.75
864.853	3307.75
865.098	3266.75
865.342	3246.75
865.587	3226.75
865.832	3271.75
866.076	3291.75
866.321	3246.75
866.565	3235.75
866.81	3171.75
867.054	3212.75
867.298	3166.75
867.543	3155.75
867.787	3265.75
868.031	3215.75
868.275	3195.75
868.519	3207.75
868.764	3220.75
869.008	3227.75
869.252	3253.75
869.496	3243.75
869.739	3224.75
869.983	3298.75
870.227	3258.75
870.471	3253.75
870.715	3313.75
870.958	3360.75
871.202	3285.75
871.446	3309.75
871.689	3287.75
871.933	3293.75
872.176	3309.75
872.42	3321.75
872.663	3252.75
872.906	3345.75
873.15	3342.75
873.393	3256.75
873.636	3378.75
873.879	3362.75
874.122	3328.75
874.366	3216.75
874.609	3198.75
874.852	3107.75
875.095	3127.75
875.337	3093.75
875.58	3033.75
875.823	3093.75
876.066	3058.75
876.309	3130.75
876.551	2995.75
876.794	3010.75
877.037	3076.75
877.279	2966.75
877.522	2960.75
877.764	3015.75
878.007	2951.75
878.249	2968.75
878.491	2952.75
878.734	2998.75
878.976	2965.75
879.218	2884.75
879.46	2952.75
879.702	2897.75
879.945	2877.75
880.187	2813.75
880.429	2829.75
880.671	2829.75
880.912	2843.75
881.154	2795.75
881.396	2715.75
881.638	2769.75
881.88	2778.75
882.121	2742.75
882.363	2797.75
882.605	2843.75
882.846	2825.75
883.088	2861.75
883.329	2822.75
883.571	2811.75
883.812	2950.75
884.053	3092.75
884.295	3189.75
884.536	3327.75
884.777	3244.75
885.018	3246.75
885.259	3227.75
885.5	3146.75
885.742	3385.75
885.982	3121.75
886.223	3060.75
886.464	2976.75
886.705	2951.75
886.946	2900.75
887.187	2794.75
887.428	2789.75
887.668	2710.75
887.909	2646.75
888.15	2608.75
888.39	2640.75
888.631	2670.75
888.871	2597.75
889.111	2600.75
889.352	2519.75
889.592	2496.75
889.833	2489.75
890.073	2446.75
890.313	2541.75
890.553	2371.75
890.793	2451.75
891.033	2400.75
891.273	2402.75
891.513	2419.75
891.753	2449.75
891.993	2396.75
892.233	2469.75
892.473	2475.75
892.713	2441.75
892.952	2422.75
893.192	2447.75
893.432	2423.75
893.671	2491.75
893.911	2461.75
894.15	2464.75
894.39	2339.75
894.629	2418.75
894.869	2398.75
895.108	2444.75
895.347	2386.75
895.587	2405.75
895.826	2411.75
896.065	2344.75
896.304	2466.75
896.543	2462.75
896.782	2363.75
897.021	2417.75
897.26	2429.75
897.499	2508.75
897.738	2526.75
897.977	2465.75
898.216	2434.75
898.454	2424.75
898.693	2379.75
898.932	2437.75
899.17	2418.75
899.409	2405.75
899.647	2411.75
899.886	2377.75
900.124	2433.75
900.363	2392.75
900.601	2441.75
900.839	2491.75
901.078	2465.75
901.316	2487.75
901.554	2512.75
901.792	2558.75
902.03	2515.75
902.268	2561.75
902.506	2615.75
902.744	2525.75
902.982	2516.75
903.22	2444.75
903.458	2387.75
903.695	2346.75
903.933	2315.75
904.171	2218.75
904.409	2174.75
904.646	2190.75
904.884	2098.75
905.121	2136.75
905.359	2090.75
905.596	2064.75
905.833	1989.75
906.071	2002.75
906.308	2037.75
906.545	2028.75
906.783	1969.75
907.02	1976.75
907.257	1952.75
907.494	1967.75
907.731	1962.75
907.968	1971.75
908.205	1922.75
908.442	1895.75
908.679	1899.75
908.915	1877.75
909.152	1885.75
909.389	1803.75
909.626	1871.75
909.862	1779.75
910.099	1823.75
910.335	1856.75
910.572	1775.75
910.808	1795.75
911.045	1804.75
911.281	1761.75
911.518	1841.75
911.754	1798.75
911.99	1788.75
912.226	1762.75
912.463	1730.75
912.699	1731.75
912.935	1717.75
913.171	1712.75
913.407	1681.75
913.643	1718.75
913.879	1710.75
914.114	1669.75
914.35	1632.75
914.586	1655.75
914.822	1630.75
915.057	1697.75
915.293	1600.75
915.529	1576.75
915.764	1667.75
916	1635.75
916.235	1607.75
916.471	1659.75
916.706	1569.75
916.941	1604.75
917.177	1548.75
917.412	1638.75
917.647	1618.75
917.882	1554.75
918.117	1607.75
918.352	1612.75
918.588	1671.75
918.823	1597.75
919.057	1570.75
919.292	1492.75
919.527	1596.75
919.762	1545.75
919.997	1546.75
920.232	1530.75
920.466	1563.75
920.701	1440.75
920.935	1511.75
921.17	1485.75
921.405	1422.75
921.639	1504.75
921.873	1479.75
922.108	1491.75
922.342	1524.75
922.576	1412.75
922.811	1426.75
923.045	1497.75
923.279	1498.75
923.513	1375.75
923.747	1502.75
923.981	1445.75
924.215	1428.75
924.449	1436.75
924.683	1404.75
924.917	1390.75
925.151	1389.75
925.385	1459.75
925.618	1423.75
925.852	1423.75
926.086	1357.75
926.319	1409.75
926.553	1407.75
926.786	1397.75
927.02	1405.75
927.253	1440.75
927.486	1452.75
927.72	1358.75
927.953	1431.75
928.186	1373.75
928.42	1425.75
928.653	1364.75
928.886	1358.75
929.119	1397.75
929.352	1389.75
929.585	1407.75
929.818	1351.75
930.051	1392.75
930.284	1397.75
930.516	1315.75
930.749	1330.75
930.982	1360.75
931.215	1335.75
931.447	1293.75
931.68	1339.75
931.912	1315.75
932.145	1311.75
932.377	1343.75
932.61	1456.75
932.842	1225.75
933.074	1347.75
933.307	1307.75
933.539	1403.75
933.771	1366.75
934.003	1331.75
934.236	1392.75
934.468	1402.75
934.7	1339.75
934.932	1350.75
935.164	1291.75
935.395	1302.75
935.627	1336.75
935.859	1340.75
936.091	1276.75
936.323	1338.75
936.554	1377.75
936.786	1289.75
937.017	1278.75
937.249	1318.75
937.481	1246.75
937.712	1355.75
937.943	1304.75
938.175	1290.75
938.406	1295.75
938.637	1351.75
938.869	1251.75
939.1	1332.75
939.331	1281.75
939.562	1337.75
939.793	1303.75
940.024	1315.75
940.255	1342.75
940.486	1281.75
940.717	1284.75
940.948	1268.75
941.179	1231.75
941.409	1267.75
941.64	1239.75
941.871	1263.75
942.102	1244.75
942.332	1251.75
942.563	1321.75
942.793	1289.75
943.024	1224.75
943.254	1272.75
943.484	1300.75
943.715	1307.75
943.945	1303.75
944.175	1227.75
944.405	1214.75
944.636	1224.75
944.866	1264.75
945.096	1272.75
945.326	1205.75
945.556	1285.75
945.786	1276.75
946.016	1241.75
946.245	1207.75
946.475	1220.75
946.705	1229.75
946.935	1236.75
947.164	1239.75
947.394	1192.75
947.624	1213.75
947.853	1276.75
948.083	1248.75
948.312	1205.75
948.542	1158.75
948.771	1160.75
949	1191.75
949.23	1182.75
949.459	1187.75
949.688	1250.75
949.917	1187.75
950.146	1209.75
950.375	1247.75
950.604	1172.75
950.833	1271.75
951.062	1250.75
951.291	1216.75
951.52	1167.75
951.749	1183.75
951.978	1154.75
952.206	1160.75
952.435	1158.75
952.664	1178.75
952.892	1206.75
953.121	1172.75
953.349	1216.75
953.578	1204.75
953.806	1190.75
954.035	1131.75
954.263	1176.75
954.491	1123.75
954.719	1186.75
954.948	1139.75
955.176	1126.75
955.404	1077.75
955.632	1142.75
955.86	1126.75
956.088	1147.75
956.316	1192.75
956.544	1202.75
956.772	1135.75
956.999	1133.75
957.227	1198.75
957.455	1105.75
957.683	1133.75
957.91	1087.75
958.138	1105.75
958.365	1080.75
958.593	1110.75
958.82	1024.75
959.048	1138.75
959.275	1115.75
959.502	1092.75
959.73	1062.75
959.957	1131.75
960.184	1148.75
960.411	1115.75
960.638	1148.75
960.865	1102.75
961.092	1140.75
961.319	1036.75
961.546	1131.75
961.773	1138.75
962	1094.75
962.227	1132.75
962.454	1085.75
962.68	1095.75
962.907	1112.75
963.134	1065.75
963.36	1098.75
963.587	1111.75
963.813	1051.75
964.04	1097.75
964.266	1050.75
964.493	1141.75
964.719	1109.75
964.945	1112.75
965.171	1023.75
965.398	1065.75
965.624	1118.75
965.85	1057.75
966.076	1024.75
966.302	1071.75
966.528	1062.75
966.754	1080.75
966.98	1073.75
967.206	1074.75
967.431	1008.75
967.657	1089.75
967.883	1078.75
968.109	1084.75
968.334	1034.75
968.56	998.75
968.785	1040.75
969.011	995.75
969.236	1068.75
969.462	986.75
969.687	1019.75
969.912	1070.75
970.138	1076.75
970.363	1009.75
970.588	1036.75
970.813	1005.75
971.038	992.75
971.263	1052.75
971.488	1038.75
971.713	1073.75
971.938	1066.75
972.163	969.75
972.388	1007.75
972.613	981.75
972.838	1013.75
973.062	1002.75
973.287	1013.75
973.512	941.75
973.736	969.75
973.961	990.75
974.185	946.75
974.41	1030.75
974.634	923.75
974.858	942.75
975.083	986.75
975.307	1021.75
975.531	975.75
975.755	903.75
975.98	949.75
976.204	888.75
976.428	900.75
976.652	894.75
976.876	871.75
977.1	902.75
977.324	887.75
977.547	953.75
977.771	955.75
977.995	927.75
978.219	877.75
978.442	994.75
978.666	932.75
978.89	932.75
979.113	930.75
979.337	915.75
979.56	904.75
979.783	984.75
980.007	880.75
980.23	906.75
980.453	886.75
980.677	922.75
980.9	921.75
981.123	825.75
981.346	953.75
981.569	935.75
981.792	960.75
982.015	898.75
982.238	865.75
982.461	921.75
982.684	884.75
982.907	877.75
983.129	858.75
983.352	912.75
983.575	905.75
983.797	916.75
984.02	878.75
984.242	890.75
984.465	889.75
984.687	904.75
984.91	935.75
985.132	907.75
985.354	941.75
985.577	923.75
985.799	892.75
986.021	826.75
986.243	847.75
986.465	887.75
986.687	921.75
986.909	978.75
987.131	910.75
987.353	883.75
987.575	933.75
987.797	860.75
988.019	832.75
988.241	881.75
988.462	846.75
988.684	918.75
988.906	944.75
989.127	952.75
989.349	848.75
989.57	906.75
989.792	919.75
990.013	947.75
990.234	941.75
990.456	972.75
990.677	968.75
990.898	907.75
991.119	907.75
991.341	938.75
991.562	872.75
991.783	913.75
992.004	875.75
992.225	840.75
992.446	930.75
992.667	833.75
992.887	911.75
993.108	799.75
993.329	947.75
993.55	926.75
993.77	851.75
993.991	855.75
994.212	906.75
994.432	880.75
994.653	918.75
994.873	923.75
995.093	797.75
995.314	846.75
995.534	889.75
995.754	914.75
995.975	978.75
996.195	856.75
996.415	917.75
996.635	884.75
996.855	895.75
997.075	897.75
997.295	863.75
997.515	831.75
997.735	935.75
997.955	918.75
998.174	900.75
998.394	888.75
998.614	939.75
998.834	878.75
999.053	940.75
999.273	923.75
999.492	990.75
999.712	896.75
999.931	879.75
1000.151	908.75
1000.37	907.75
1000.589	979.75
1000.809	900.75
1001.028	1010.75
1001.247	932.75
1001.466	870.75
1001.685	987.75
1001.904	939.75
1002.123	948.75
1002.342	938.75
1002.561	912.75
1002.78	944.75
1002.999	1003.75
1003.218	959.75
1003.436	931.75
1003.655	993.75
1003.874	908.75
1004.092	955.75
1004.311	987.75
1004.53	963.75
1004.748	1040.75
1004.966	950.75
1005.185	1018.75
1005.403	1019.75
1005.622	977.75
1005.84	1061.75
1006.058	976.75
1006.276	990.75
1006.494	1505.75
1006.712	986.75
1006.931	1055.75
1007.149	959.75
1007.367	982.75
1007.584	1017.75
1007.802	1034.75
1008.02	1014.75
1008.238	1094.75
1008.456	1080.75
1008.673	978.75
1008.891	1087.75
1009.109	1047.75
1009.326	1082.75
1009.544	1186.75
1009.761	1100.75
1009.979	1183.75
1010.196	1191.75
1010.413	1280.75
1010.631	1352.75
1010.848	1384.75
1011.065	1358.75
1011.282	1327.75
1011.5	1279.75
1011.717	1389.75
1011.934	1312.75
1012.151	1340.75
1012.368	1363.75
1012.585	1300.75
1012.801	1354.75
1013.018	1314.75
1013.235	1297.75
1013.452	1326.75
1013.669	1329.75
1013.885	1317.75
1014.102	1354.75
1014.318	1332.75
1014.535	1277.75
1014.751	1307.75
1014.968	1325.75
1015.184	1366.75
1015.401	1282.75
1015.617	1318.75
1015.833	1276.75
1016.049	1253.75
1016.266	1284.75
1016.482	1257.75
1016.698	1194.75
1016.914	1248.75
1017.13	1206.75
1017.346	1197.75
1017.562	1273.75
1017.778	1214.75
1017.993	1209.75
1018.209	1231.75
1018.425	1217.75
1018.641	1178.75
1018.856	1171.75
1019.072	1192.75
1019.288	1228.75
1019.503	1201.75
1019.719	1142.75
1019.934	1164.75
1020.149	1226.75
1020.365	1160.75
1020.58	1109.75
1020.795	1143.75
1021.011	1106.75
1021.226	1061.75
1021.441	1123.75
1021.656	1038.75
1021.871	987.75
1022.086	992.75
1022.301	970.75
1022.516	978.75
1022.731	1042.75
1022.946	953.75
1023.16	942.75
1023.375	913.75
1023.59	890.75
1023.804	855.75
1024.019	928.75
1024.234	824.75
1024.448	888.75
1024.663	787.75
1024.877	821.75
1025.092	843.75
1025.306	852.75
1025.52	753.75
1025.734	845.75
1025.949	775.75
1026.163	750.75
1026.377	702.75
1026.591	738.75
1026.805	695.75
1027.019	673.75
1027.233	646.75
1027.447	606.75
1027.661	723.75
1027.875	661.75
1028.088	655.75
1028.302	605.75
1028.516	606.75
1028.73	609.75
1028.943	582.75
1029.157	550.75
1029.37	510.75
1029.584	-3.25
1029.797	-2.25
1030.011	-1.25
1030.224	-0.25
