Data from QEP037381__283__11-07-46-589.txt Node

Date: Wed Dec 21 11:07:46 EST 2022
User: dcclab
Spectrometer: QEP03738
Trigger mode: 4
Integration Time (sec): 1.000000E1
Scans to average: 1
Electric dark correction enabled: true
Nonlinearity correction enabled: false
Boxcar width: 0
XAxis mode: Wavelengths
Number of Pixels in Spectrum: 1044
>>>>>Begin Spectral Data<<<<<
784.041	9.88
784.3	-2.12
784.558	-6.12
784.817	-0.12
785.075	95009.88
785.334	16355.88
785.592	7675.88
785.851	5266.88
786.109	3972.88
786.368	3099.88
786.626	2506.88
786.884	2071.88
787.143	1711.88
787.401	1425.88
787.659	1308.88
787.917	1111.88
788.175	1025.88
788.433	884.88
788.691	791.88
788.949	743.88
789.207	721.88
789.465	611.88
789.723	587.88
789.98	526.88
790.238	571.88
790.496	537.88
790.753	509.88
791.011	562.88
791.268	506.88
791.526	500.88
791.783	508.88
792.041	479.88
792.298	393.88
792.556	462.88
792.813	446.88
793.07	438.88
793.327	410.88
793.584	493.88
793.841	404.88
794.099	418.88
794.356	485.88
794.613	406.88
794.869	415.88
795.126	388.88
795.383	363.88
795.64	387.88
795.897	346.88
796.153	404.88
796.41	375.88
796.667	365.88
796.923	366.88
797.18	371.88
797.436	394.88
797.693	363.88
797.949	397.88
798.206	429.88
798.462	354.88
798.718	414.88
798.974	370.88
799.231	400.88
799.487	384.88
799.743	385.88
799.999	420.88
800.255	406.88
800.511	387.88
800.767	408.88
801.023	390.88
801.279	402.88
801.534	401.88
801.79	430.88
802.046	413.88
802.302	473.88
802.557	468.88
802.813	523.88
803.068	514.88
803.324	625.88
803.579	717.88
803.835	917.88
804.09	1192.88
804.345	1469.88
804.601	1816.88
804.856	2222.88
805.111	2549.88
805.366	2780.88
805.621	2863.88
805.876	3000.88
806.131	3081.88
806.386	3059.88
806.641	3109.88
806.896	3209.88
807.151	3297.88
807.406	3311.88
807.661	3421.88
807.915	3462.88
808.17	3491.88
808.425	3531.88
808.679	3529.88
808.934	3685.88
809.188	3664.88
809.443	3708.88
809.697	3782.88
809.951	3752.88
810.206	3813.88
810.46	3837.88
810.714	3901.88
810.968	4027.88
811.223	3962.88
811.477	4033.88
811.731	4058.88
811.985	3990.88
812.239	3996.88
812.493	4103.88
812.747	4116.88
813	4092.88
813.254	4172.88
813.508	4211.88
813.762	4142.88
814.015	4209.88
814.269	4268.88
814.522	4313.88
814.776	4313.88
815.03	4369.88
815.283	4398.88
815.536	4557.88
815.79	4638.88
816.043	4666.88
816.296	4694.88
816.55	4775.88
816.803	4844.88
817.056	4981.88
817.309	4998.88
817.562	5014.88
817.815	5062.88
818.068	5087.88
818.321	5190.88
818.574	5231.88
818.827	5383.88
819.079	5442.88
819.332	5609.88
819.585	5639.88
819.838	5735.88
820.09	5764.88
820.343	5801.88
820.595	5750.88
820.848	5810.88
821.1	5826.88
821.353	5826.88
821.605	5848.88
821.857	5940.88
822.11	5818.88
822.362	5776.88
822.614	5800.88
822.866	5839.88
823.118	5821.88
823.37	5954.88
823.622	5909.88
823.874	5977.88
824.126	5998.88
824.378	5968.88
824.63	6023.88
824.882	6089.88
825.134	5916.88
825.385	5987.88
825.637	5900.88
825.888	5913.88
826.14	5928.88
826.392	5891.88
826.643	5823.88
826.895	5895.88
827.146	5839.88
827.397	5777.88
827.649	5816.88
827.9	5761.88
828.151	5785.88
828.402	5738.88
828.653	5856.88
828.905	5868.88
829.156	5945.88
829.407	5825.88
829.658	5848.88
829.909	5949.88
830.159	5971.88
830.41	5937.88
830.661	5858.88
830.912	5852.88
831.162	5820.88
831.413	5818.88
831.664	5898.88
831.914	5882.88
832.165	5854.88
832.415	5848.88
832.666	5879.88
832.916	5867.88
833.167	5822.88
833.417	5930.88
833.667	5820.88
833.917	5837.88
834.168	5879.88
834.418	5889.88
834.668	5753.88
834.918	5770.88
835.168	5778.88
835.418	5751.88
835.668	5705.88
835.918	5753.88
836.167	5771.88
836.417	5607.88
836.667	5760.88
836.917	5736.88
837.166	5668.88
837.416	5726.88
837.666	5674.88
837.915	5721.88
838.165	5689.88
838.414	5597.88
838.663	5562.88
838.913	5652.88
839.162	5643.88
839.411	5719.88
839.661	5635.88
839.91	5646.88
840.159	5618.88
840.408	5700.88
840.657	5699.88
840.906	5702.88
841.155	5740.88
841.404	5642.88
841.653	5710.88
841.902	5652.88
842.15	5704.88
842.399	5726.88
842.648	5716.88
842.897	5703.88
843.145	5572.88
843.394	5616.88
843.642	5595.88
843.891	5532.88
844.139	5544.88
844.388	5474.88
844.636	5439.88
844.884	5442.88
845.133	5465.88
845.381	5415.88
845.629	5504.88
845.877	5466.88
846.125	5501.88
846.373	5501.88
846.621	5407.88
846.869	5425.88
847.117	5434.88
847.365	5368.88
847.613	5396.88
847.861	5407.88
848.108	5460.88
848.356	5376.88
848.604	5363.88
848.851	5409.88
849.099	5409.88
849.346	5455.88
849.594	5436.88
849.841	5535.88
850.089	5545.88
850.336	5579.88
850.583	5617.88
850.831	5671.88
851.078	5657.88
851.325	5652.88
851.572	5723.88
851.819	5662.88
852.066	5422.88
852.313	5202.88
852.56	5146.88
852.807	5119.88
853.054	5219.88
853.301	5165.88
853.548	5218.88
853.794	5344.88
854.041	5313.88
854.288	5320.88
854.534	5454.88
854.781	5309.88
855.028	5316.88
855.274	5400.88
855.52	5282.88
855.767	5253.88
856.013	5289.88
856.26	5627.88
856.506	5251.88
856.752	5224.88
856.998	5214.88
857.244	5257.88
857.49	5386.88
857.736	5350.88
857.982	5367.88
858.228	5307.88
858.474	5216.88
858.72	5226.88
858.966	5150.88
859.212	5136.88
859.458	5030.88
859.703	5005.88
859.949	4893.88
860.195	4919.88
860.44	4965.88
860.686	4921.88
860.931	4928.88
861.177	4852.88
861.422	4861.88
861.667	4799.88
861.913	4814.88
862.158	4863.88
862.403	4823.88
862.648	4895.88
862.893	4963.88
863.138	4926.88
863.384	4916.88
863.629	4912.88
863.873	4926.88
864.118	4887.88
864.363	4856.88
864.608	4899.88
864.853	4908.88
865.098	4820.88
865.342	4793.88
865.587	4807.88
865.832	4804.88
866.076	4803.88
866.321	4740.88
866.565	4744.88
866.81	4744.88
867.054	4735.88
867.298	4722.88
867.543	4676.88
867.787	4768.88
868.031	4727.88
868.275	4707.88
868.519	4736.88
868.764	4738.88
869.008	4737.88
869.252	4754.88
869.496	4737.88
869.739	4746.88
869.983	4727.88
870.227	4718.88
870.471	4708.88
870.715	4778.88
870.958	4849.88
871.202	4795.88
871.446	4828.88
871.689	4832.88
871.933	4809.88
872.176	4782.88
872.42	4815.88
872.663	4799.88
872.906	4804.88
873.15	4825.88
873.393	4711.88
873.636	4830.88
873.879	4738.88
874.122	4707.88
874.366	4658.88
874.609	4620.88
874.852	4552.88
875.095	4530.88
875.337	4540.88
875.58	4419.88
875.823	4517.88
876.066	4535.88
876.309	4566.88
876.551	4389.88
876.794	4401.88
877.037	4450.88
877.279	4392.88
877.522	4374.88
877.764	4402.88
878.007	4378.88
878.249	4391.88
878.491	4366.88
878.734	4392.88
878.976	4412.88
879.218	4337.88
879.46	4350.88
879.702	4336.88
879.945	4259.88
880.187	4198.88
880.429	4205.88
880.671	4175.88
880.912	4215.88
881.154	4148.88
881.396	4107.88
881.638	4145.88
881.88	4164.88
882.121	4134.88
882.363	4147.88
882.605	4221.88
882.846	4152.88
883.088	4176.88
883.329	4157.88
883.571	4119.88
883.812	4245.88
884.053	4329.88
884.295	4477.88
884.536	4590.88
884.777	4558.88
885.018	4529.88
885.259	4573.88
885.5	4507.88
885.742	4700.88
885.982	4447.88
886.223	4396.88
886.464	4345.88
886.705	4239.88
886.946	4266.88
887.187	4095.88
887.428	4156.88
887.668	3992.88
887.909	3941.88
888.15	3885.88
888.39	3904.88
888.631	3918.88
888.871	3881.88
889.111	3819.88
889.352	3799.88
889.592	3759.88
889.833	3725.88
890.073	3740.88
890.313	3761.88
890.553	3686.88
890.793	3627.88
891.033	3582.88
891.273	3619.88
891.513	3628.88
891.753	3723.88
891.993	3610.88
892.233	3634.88
892.473	3717.88
892.713	3693.88
892.952	3650.88
893.192	3670.88
893.432	3692.88
893.671	3751.88
893.911	3679.88
894.15	3635.88
894.39	3582.88
894.629	3621.88
894.869	3661.88
895.108	3567.88
895.347	3548.88
895.587	3608.88
895.826	3577.88
896.065	3513.88
896.304	3598.88
896.543	3592.88
896.782	3527.88
897.021	3572.88
897.26	3593.88
897.499	3661.88
897.738	3654.88
897.977	3597.88
898.216	3578.88
898.454	3539.88
898.693	3519.88
898.932	3541.88
899.17	3485.88
899.409	3528.88
899.647	3529.88
899.886	3520.88
900.124	3538.88
900.363	3493.88
900.601	3610.88
900.839	3544.88
901.078	3616.88
901.316	3629.88
901.554	3640.88
901.792	3703.88
902.03	3662.88
902.268	3661.88
902.506	3777.88
902.744	3649.88
902.982	3648.88
903.22	3516.88
903.458	3463.88
903.695	3393.88
903.933	3378.88
904.171	3281.88
904.409	3225.88
904.646	3197.88
904.884	3079.88
905.121	3159.88
905.359	3086.88
905.596	3069.88
905.833	3001.88
906.071	2996.88
906.308	3037.88
906.545	2985.88
906.783	2916.88
907.02	2977.88
907.257	2921.88
907.494	2914.88
907.731	2944.88
907.968	2973.88
908.205	2879.88
908.442	2905.88
908.679	2910.88
908.915	2868.88
909.152	2854.88
909.389	2733.88
909.626	2780.88
909.862	2732.88
910.099	2766.88
910.335	2798.88
910.572	2680.88
910.808	2733.88
911.045	2706.88
911.281	2686.88
911.518	2760.88
911.754	2683.88
911.99	2709.88
912.226	2655.88
912.463	2624.88
912.699	2621.88
912.935	2620.88
913.171	2606.88
913.407	2549.88
913.643	2634.88
913.879	2553.88
914.114	2518.88
914.35	2485.88
914.586	2493.88
914.822	2455.88
915.057	2511.88
915.293	2379.88
915.529	2408.88
915.764	2510.88
916	2471.88
916.235	2441.88
916.471	2465.88
916.706	2370.88
916.941	2425.88
917.177	2414.88
917.412	2480.88
917.647	2450.88
917.882	2379.88
918.117	2442.88
918.352	2434.88
918.588	2472.88
918.823	2418.88
919.057	2394.88
919.292	2260.88
919.527	2406.88
919.762	2321.88
919.997	2337.88
920.232	2246.88
920.466	2321.88
920.701	2208.88
920.935	2237.88
921.17	2221.88
921.405	2176.88
921.639	2268.88
921.873	2205.88
922.108	2222.88
922.342	2218.88
922.576	2160.88
922.811	2194.88
923.045	2251.88
923.279	2256.88
923.513	2103.88
923.747	2201.88
923.981	2183.88
924.215	2113.88
924.449	2131.88
924.683	2063.88
924.917	2073.88
925.151	2106.88
925.385	2165.88
925.618	2113.88
925.852	2111.88
926.086	2036.88
926.319	2095.88
926.553	2087.88
926.786	2114.88
927.02	2084.88
927.253	2100.88
927.486	2107.88
927.72	2041.88
927.953	2099.88
928.186	2070.88
928.42	2117.88
928.653	2027.88
928.886	2023.88
929.119	2069.88
929.352	2082.88
929.585	2049.88
929.818	2018.88
930.051	2046.88
930.284	2022.88
930.516	1954.88
930.749	1956.88
930.982	2007.88
931.215	2015.88
931.447	1938.88
931.68	1977.88
931.912	1946.88
932.145	1958.88
932.377	1962.88
932.61	2099.88
932.842	1895.88
933.074	1956.88
933.307	1935.88
933.539	2024.88
933.771	2007.88
934.003	1956.88
934.236	1998.88
934.468	2065.88
934.7	1973.88
934.932	2004.88
935.164	1982.88
935.395	1954.88
935.627	1954.88
935.859	1968.88
936.091	1924.88
936.323	1959.88
936.554	2017.88
936.786	1934.88
937.017	1912.88
937.249	1935.88
937.481	1891.88
937.712	1948.88
937.943	1910.88
938.175	1896.88
938.406	1894.88
938.637	2017.88
938.869	1868.88
939.1	1966.88
939.331	1880.88
939.562	1933.88
939.793	1906.88
940.024	1933.88
940.255	1953.88
940.486	1884.88
940.717	1899.88
940.948	1862.88
941.179	1844.88
941.409	1875.88
941.64	1851.88
941.871	1891.88
942.102	1858.88
942.332	1877.88
942.563	1905.88
942.793	1861.88
943.024	1832.88
943.254	1843.88
943.484	1902.88
943.715	1915.88
943.945	1860.88
944.175	1817.88
944.405	1783.88
944.636	1834.88
944.866	1845.88
945.096	1899.88
945.326	1821.88
945.556	1882.88
945.786	1880.88
946.016	1833.88
946.245	1795.88
946.475	1808.88
946.705	1803.88
946.935	1846.88
947.164	1821.88
947.394	1783.88
947.624	1784.88
947.853	1815.88
948.083	1808.88
948.312	1778.88
948.542	1720.88
948.771	1688.88
949	1713.88
949.23	1712.88
949.459	1726.88
949.688	1806.88
949.917	1759.88
950.146	1796.88
950.375	1796.88
950.604	1715.88
950.833	1805.88
951.062	1816.88
951.291	1756.88
951.52	1736.88
951.749	1766.88
951.978	1735.88
952.206	1735.88
952.435	1697.88
952.664	1761.88
952.892	1771.88
953.121	1744.88
953.349	1785.88
953.578	1732.88
953.806	1712.88
954.035	1636.88
954.263	1725.88
954.491	1657.88
954.719	1709.88
954.948	1655.88
955.176	1679.88
955.404	1651.88
955.632	1694.88
955.86	1712.88
956.088	1656.88
956.316	1690.88
956.544	1702.88
956.772	1651.88
956.999	1622.88
957.227	1722.88
957.455	1628.88
957.683	1632.88
957.91	1600.88
958.138	1584.88
958.365	1617.88
958.593	1581.88
958.82	1565.88
959.048	1635.88
959.275	1595.88
959.502	1592.88
959.73	1545.88
959.957	1632.88
960.184	1643.88
960.411	1594.88
960.638	1648.88
960.865	1591.88
961.092	1635.88
961.319	1552.88
961.546	1627.88
961.773	1632.88
962	1613.88
962.227	1658.88
962.454	1588.88
962.68	1588.88
962.907	1594.88
963.134	1562.88
963.36	1589.88
963.587	1604.88
963.813	1534.88
964.04	1586.88
964.266	1488.88
964.493	1585.88
964.719	1568.88
964.945	1594.88
965.171	1488.88
965.398	1543.88
965.624	1560.88
965.85	1478.88
966.076	1494.88
966.302	1536.88
966.528	1504.88
966.754	1542.88
966.98	1511.88
967.206	1513.88
967.431	1444.88
967.657	1526.88
967.883	1525.88
968.109	1531.88
968.334	1486.88
968.56	1453.88
968.785	1473.88
969.011	1448.88
969.236	1510.88
969.462	1450.88
969.687	1484.88
969.912	1507.88
970.138	1530.88
970.363	1452.88
970.588	1485.88
970.813	1444.88
971.038	1438.88
971.263	1479.88
971.488	1485.88
971.713	1484.88
971.938	1475.88
972.163	1391.88
972.388	1417.88
972.613	1422.88
972.838	1464.88
973.062	1410.88
973.287	1402.88
973.512	1371.88
973.736	1412.88
973.961	1406.88
974.185	1372.88
974.41	1386.88
974.634	1320.88
974.858	1371.88
975.083	1393.88
975.307	1433.88
975.531	1333.88
975.755	1302.88
975.98	1318.88
976.204	1259.88
976.428	1272.88
976.652	1249.88
976.876	1266.88
977.1	1296.88
977.324	1250.88
977.547	1332.88
977.771	1338.88
977.995	1313.88
978.219	1242.88
978.442	1347.88
978.666	1326.88
978.89	1297.88
979.113	1296.88
979.337	1293.88
979.56	1283.88
979.783	1365.88
980.007	1246.88
980.23	1290.88
980.453	1247.88
980.677	1299.88
980.9	1273.88
981.123	1191.88
981.346	1297.88
981.569	1279.88
981.792	1315.88
982.015	1251.88
982.238	1206.88
982.461	1246.88
982.684	1223.88
982.907	1218.88
983.129	1210.88
983.352	1277.88
983.575	1230.88
983.797	1233.88
984.02	1191.88
984.242	1224.88
984.465	1221.88
984.687	1249.88
984.91	1272.88
985.132	1249.88
985.354	1252.88
985.577	1227.88
985.799	1241.88
986.021	1163.88
986.243	1191.88
986.465	1222.88
986.687	1248.88
986.909	1262.88
987.131	1204.88
987.353	1184.88
987.575	1254.88
987.797	1187.88
988.019	1146.88
988.241	1197.88
988.462	1152.88
988.684	1224.88
988.906	1242.88
989.127	1264.88
989.349	1153.88
989.57	1191.88
989.792	1225.88
990.013	1236.88
990.234	1235.88
990.456	1282.88
990.677	1239.88
990.898	1185.88
991.119	1186.88
991.341	1243.88
991.562	1159.88
991.783	1197.88
992.004	1154.88
992.225	1122.88
992.446	1205.88
992.667	1110.88
992.887	1211.88
993.108	1092.88
993.329	1225.88
993.55	1183.88
993.77	1118.88
993.991	1112.88
994.212	1168.88
994.432	1151.88
994.653	1161.88
994.873	1167.88
995.093	1058.88
995.314	1117.88
995.534	1192.88
995.754	1220.88
995.975	1218.88
996.195	1087.88
996.415	1199.88
996.635	1144.88
996.855	1179.88
997.075	1135.88
997.295	1147.88
997.515	1109.88
997.735	1182.88
997.955	1150.88
998.174	1133.88
998.394	1125.88
998.614	1148.88
998.834	1095.88
999.053	1188.88
999.273	1174.88
999.492	1201.88
999.712	1125.88
999.931	1107.88
1000.151	1158.88
1000.37	1146.88
1000.589	1202.88
1000.809	1117.88
1001.028	1244.88
1001.247	1191.88
1001.466	1098.88
1001.685	1227.88
1001.904	1168.88
1002.123	1164.88
1002.342	1178.88
1002.561	1130.88
1002.78	1153.88
1002.999	1241.88
1003.218	1169.88
1003.436	1130.88
1003.655	1176.88
1003.874	1140.88
1004.092	1171.88
1004.311	1182.88
1004.53	1155.88
1004.748	1255.88
1004.966	1160.88
1005.185	1224.88
1005.403	1204.88
1005.622	1186.88
1005.84	1292.88
1006.058	1164.88
1006.276	1199.88
1006.494	1689.88
1006.712	1170.88
1006.931	1233.88
1007.149	1175.88
1007.367	1182.88
1007.584	1217.88
1007.802	1228.88
1008.02	1192.88
1008.238	1272.88
1008.456	1305.88
1008.673	1142.88
1008.891	1248.88
1009.109	1213.88
1009.326	1276.88
1009.544	1349.88
1009.761	1256.88
1009.979	1354.88
1010.196	1364.88
1010.413	1434.88
1010.631	1517.88
1010.848	1524.88
1011.065	1535.88
1011.282	1487.88
1011.5	1432.88
1011.717	1561.88
1011.934	1518.88
1012.151	1530.88
1012.368	1526.88
1012.585	1494.88
1012.801	1530.88
1013.018	1491.88
1013.235	1500.88
1013.452	1491.88
1013.669	1489.88
1013.885	1490.88
1014.102	1521.88
1014.318	1494.88
1014.535	1451.88
1014.751	1495.88
1014.968	1515.88
1015.184	1526.88
1015.401	1444.88
1015.617	1467.88
1015.833	1410.88
1016.049	1461.88
1016.266	1435.88
1016.482	1433.88
1016.698	1360.88
1016.914	1405.88
1017.13	1383.88
1017.346	1380.88
1017.562	1427.88
1017.778	1382.88
1017.993	1377.88
1018.209	1419.88
1018.425	1385.88
1018.641	1348.88
1018.856	1350.88
1019.072	1359.88
1019.288	1421.88
1019.503	1381.88
1019.719	1274.88
1019.934	1327.88
1020.149	1398.88
1020.365	1360.88
1020.58	1301.88
1020.795	1351.88
1021.011	1247.88
1021.226	1254.88
1021.441	1266.88
1021.656	1201.88
1021.871	1129.88
1022.086	1114.88
1022.301	1104.88
1022.516	1100.88
1022.731	1191.88
1022.946	1074.88
1023.16	1055.88
1023.375	1033.88
1023.59	1009.88
1023.804	990.88
1024.019	1085.88
1024.234	958.88
1024.448	994.88
1024.663	931.88
1024.877	946.88
1025.092	968.88
1025.306	965.88
1025.52	859.88
1025.734	966.88
1025.949	881.88
1026.163	840.88
1026.377	788.88
1026.591	843.88
1026.805	763.88
1027.019	766.88
1027.233	733.88
1027.447	681.88
1027.661	795.88
1027.875	757.88
1028.088	750.88
1028.302	674.88
1028.516	667.88
1028.73	670.88
1028.943	673.88
1029.157	625.88
1029.37	573.88
1029.584	-0.12
1029.797	0.88
1030.011	-2.12
1030.224	-0.12
