Data from QEP037381__320__11-13-56-591.txt Node

Date: Wed Dec 21 11:13:56 EST 2022
User: dcclab
Spectrometer: QEP03738
Trigger mode: 4
Integration Time (sec): 1.000000E1
Scans to average: 1
Electric dark correction enabled: true
Nonlinearity correction enabled: false
Boxcar width: 0
XAxis mode: Wavelengths
Number of Pixels in Spectrum: 1044
>>>>>Begin Spectral Data<<<<<
784.041	16
784.3	-2
784.558	-1
784.817	-6
785.075	96511
785.334	16894
785.592	7949
785.851	5484
786.109	4135
786.368	3197
786.626	2579
786.884	2174
787.143	1812
787.401	1521
787.659	1346
787.917	1184
788.175	1074
788.433	917
788.691	824
788.949	771
789.207	745
789.465	626
789.723	589
789.98	564
790.238	602
790.496	549
790.753	525
791.011	575
791.268	520
791.526	500
791.783	511
792.041	485
792.298	421
792.556	467
792.813	463
793.07	429
793.327	401
793.584	506
793.841	424
794.099	431
794.356	487
794.613	406
794.869	434
795.126	393
795.383	366
795.64	392
795.897	349
796.153	388
796.41	394
796.667	377
796.923	376
797.18	374
797.436	407
797.693	358
797.949	410
798.206	433
798.462	359
798.718	408
798.974	386
799.231	423
799.487	399
799.743	397
799.999	425
800.255	405
800.511	391
800.767	412
801.023	396
801.279	405
801.534	422
801.79	435
802.046	421
802.302	497
802.557	483
802.813	555
803.068	549
803.324	689
803.579	809
803.835	1004
804.09	1357
804.345	1706
804.601	2088
804.856	2528
805.111	2922
805.366	3114
805.621	3341
805.876	3430
806.131	3554
806.386	3608
806.641	3621
806.896	3702
807.151	3865
807.406	3848
807.661	3963
807.915	3991
808.17	4069
808.425	4130
808.679	4101
808.934	4251
809.188	4247
809.443	4357
809.697	4396
809.951	4403
810.206	4439
810.46	4536
810.714	4559
810.968	4618
811.223	4550
811.477	4627
811.731	4740
811.985	4654
812.239	4671
812.493	4718
812.747	4728
813	4673
813.254	4794
813.508	4843
813.762	4856
814.015	4809
814.269	4904
814.522	4990
814.776	5006
815.03	5073
815.283	5200
815.536	5254
815.79	5304
816.043	5423
816.296	5467
816.55	5502
816.803	5589
817.056	5776
817.309	5744
817.562	5806
817.815	5922
818.068	5883
818.321	5968
818.574	6024
818.827	6208
819.079	6185
819.332	6475
819.585	6530
819.838	6576
820.09	6519
820.343	6588
820.595	6565
820.848	6706
821.1	6761
821.353	6715
821.605	6612
821.857	6708
822.11	6594
822.362	6585
822.614	6605
822.866	6648
823.118	6646
823.37	6744
823.622	6758
823.874	6742
824.126	6869
824.378	6857
824.63	6878
824.882	6913
825.134	6833
825.385	6827
825.637	6750
825.888	6752
826.14	6727
826.392	6704
826.643	6654
826.895	6698
827.146	6574
827.397	6571
827.649	6625
827.9	6568
828.151	6533
828.402	6587
828.653	6605
828.905	6647
829.156	6707
829.407	6672
829.658	6746
829.909	6777
830.159	6836
830.41	6841
830.661	6775
830.912	6677
831.162	6656
831.413	6679
831.664	6736
831.914	6723
832.165	6671
832.415	6697
832.666	6670
832.916	6735
833.167	6703
833.417	6677
833.667	6709
833.917	6609
834.168	6698
834.418	6677
834.668	6638
834.918	6613
835.168	6644
835.418	6543
835.668	6578
835.918	6556
836.167	6509
836.417	6479
836.667	6501
836.917	6605
837.166	6572
837.416	6512
837.666	6556
837.915	6509
838.165	6534
838.414	6439
838.663	6457
838.913	6512
839.162	6504
839.411	6589
839.661	6506
839.91	6535
840.159	6519
840.408	6569
840.657	6581
840.906	6604
841.155	6626
841.404	6588
841.653	6571
841.902	6562
842.15	6673
842.399	6620
842.648	6699
842.897	6636
843.145	6522
843.394	6464
843.642	6442
843.891	6429
844.139	6395
844.388	6336
844.636	6270
844.884	6338
845.133	6328
845.381	6330
845.629	6361
845.877	6327
846.125	6347
846.373	6320
846.621	6279
846.869	6302
847.117	6308
847.365	6226
847.613	6161
847.861	6251
848.108	6273
848.356	6231
848.604	6232
848.851	6287
849.099	6288
849.346	6265
849.594	6354
849.841	6410
850.089	6445
850.336	6530
850.583	6563
850.831	6621
851.078	6558
851.325	6533
851.572	6617
851.819	6513
852.066	6323
852.313	6094
852.56	6004
852.807	6028
853.054	5991
853.301	6004
853.548	6058
853.794	6182
854.041	6174
854.288	6153
854.534	6311
854.781	6210
855.028	6206
855.274	6267
855.52	6207
855.767	6208
856.013	6377
856.26	6612
856.506	6189
856.752	6231
856.998	6206
857.244	6172
857.49	6240
857.736	6232
857.982	6345
858.228	6262
858.474	6188
858.72	6082
858.966	6079
859.212	6003
859.458	5968
859.703	5926
859.949	5851
860.195	5735
860.44	5762
860.686	5762
860.931	5837
861.177	5728
861.422	5668
861.667	5636
861.913	5588
862.158	5636
862.403	5650
862.648	5712
862.893	5702
863.138	5651
863.384	5576
863.629	5671
863.873	5738
864.118	5671
864.363	5611
864.608	5639
864.853	5652
865.098	5607
865.342	5574
865.587	5522
865.832	5600
866.076	5574
866.321	5517
866.565	5520
866.81	5464
867.054	5513
867.298	5529
867.543	5420
867.787	5474
868.031	5504
868.275	5495
868.519	5492
868.764	5502
869.008	5518
869.252	5556
869.496	5549
869.739	5561
869.983	5590
870.227	5587
870.471	5632
870.715	5684
870.958	5683
871.202	5630
871.446	5763
871.689	5722
871.933	5689
872.176	5721
872.42	5674
872.663	5691
872.906	5749
873.15	5771
873.393	5727
873.636	5817
873.879	5775
874.122	5714
874.366	5557
874.609	5539
874.852	5461
875.095	5425
875.337	5335
875.58	5293
875.823	5340
876.066	5338
876.309	5345
876.551	5196
876.794	5192
877.037	5249
877.279	5115
877.522	5177
877.764	5236
878.007	5109
878.249	5178
878.491	5082
878.734	5165
878.976	5102
879.218	5040
879.46	5021
879.702	5063
879.945	5001
880.187	4893
880.429	4928
880.671	4860
880.912	4918
881.154	4842
881.396	4769
881.638	4884
881.88	4841
882.121	4868
882.363	4858
882.605	4929
882.846	4858
883.088	4918
883.329	4920
883.571	4944
883.812	5134
884.053	5318
884.295	5558
884.536	5763
884.777	5708
885.018	5658
885.259	5591
885.5	5523
885.742	5714
885.982	5481
886.223	5381
886.464	5341
886.705	5225
886.946	5127
887.187	4944
887.428	4987
887.668	4755
887.909	4659
888.15	4588
888.39	4633
888.631	4621
888.871	4497
889.111	4474
889.352	4435
889.592	4353
889.833	4358
890.073	4296
890.313	4384
890.553	4228
890.793	4247
891.033	4221
891.273	4178
891.513	4192
891.753	4274
891.993	4267
892.233	4192
892.473	4311
892.713	4268
892.952	4218
893.192	4256
893.432	4267
893.671	4333
893.911	4241
894.15	4262
894.39	4127
894.629	4202
894.869	4204
895.108	4202
895.347	4151
895.587	4200
895.826	4125
896.065	4146
896.304	4193
896.543	4217
896.782	4082
897.021	4180
897.26	4182
897.499	4219
897.738	4253
897.977	4204
898.216	4144
898.454	4145
898.693	4124
898.932	4150
899.17	4088
899.409	4093
899.647	4106
899.886	4084
900.124	4165
900.363	4206
900.601	4233
900.839	4223
901.078	4261
901.316	4338
901.554	4406
901.792	4412
902.03	4436
902.268	4500
902.506	4507
902.744	4410
902.982	4394
903.22	4230
903.458	4146
903.695	4104
903.933	4034
904.171	3884
904.409	3812
904.646	3788
904.884	3707
905.121	3698
905.359	3608
905.596	3564
905.833	3487
906.071	3516
906.308	3521
906.545	3515
906.783	3447
907.02	3513
907.257	3406
907.494	3449
907.731	3424
907.968	3470
908.205	3362
908.442	3328
908.679	3319
908.915	3295
909.152	3262
909.389	3204
909.626	3222
909.862	3189
910.099	3179
910.335	3204
910.572	3108
910.808	3184
911.045	3153
911.281	3083
911.518	3178
911.754	3088
911.99	3071
912.226	3073
912.463	3027
912.699	3021
912.935	3000
913.171	2974
913.407	2954
913.643	2995
913.879	2933
914.114	2930
914.35	2913
914.586	2847
914.822	2792
915.057	2929
915.293	2800
915.529	2778
915.764	2852
916	2846
916.235	2831
916.471	2850
916.706	2755
916.941	2768
917.177	2783
917.412	2808
917.647	2810
917.882	2751
918.117	2815
918.352	2764
918.588	2839
918.823	2710
919.057	2730
919.292	2630
919.527	2720
919.762	2621
919.997	2732
920.232	2623
920.466	2653
920.701	2527
920.935	2626
921.17	2555
921.405	2543
921.639	2594
921.873	2526
922.108	2575
922.342	2565
922.576	2503
922.811	2465
923.045	2555
923.279	2577
923.513	2421
923.747	2515
923.981	2461
924.215	2434
924.449	2452
924.683	2410
924.917	2414
925.151	2412
925.385	2486
925.618	2450
925.852	2448
926.086	2360
926.319	2407
926.553	2406
926.786	2441
927.02	2421
927.253	2455
927.486	2465
927.72	2380
927.953	2417
928.186	2376
928.42	2429
928.653	2325
928.886	2361
929.119	2354
929.352	2364
929.585	2397
929.818	2316
930.051	2311
930.284	2359
930.516	2255
930.749	2268
930.982	2323
931.215	2317
931.447	2251
931.68	2254
931.912	2234
932.145	2267
932.377	2297
932.61	2393
932.842	2222
933.074	2282
933.307	2228
933.539	2332
933.771	2298
934.003	2267
934.236	2360
934.468	2365
934.7	2262
934.932	2305
935.164	2220
935.395	2211
935.627	2248
935.859	2254
936.091	2209
936.323	2263
936.554	2293
936.786	2246
937.017	2181
937.249	2221
937.481	2158
937.712	2258
937.943	2228
938.175	2215
938.406	2219
938.637	2283
938.869	2160
939.1	2237
939.331	2181
939.562	2231
939.793	2209
940.024	2217
940.255	2237
940.486	2197
940.717	2183
940.948	2167
941.179	2114
941.409	2144
941.64	2150
941.871	2151
942.102	2108
942.332	2123
942.563	2194
942.793	2127
943.024	2116
943.254	2143
943.484	2201
943.715	2187
943.945	2150
944.175	2104
944.405	2091
944.636	2128
944.866	2144
945.096	2179
945.326	2146
945.556	2148
945.786	2156
946.016	2112
946.245	2095
946.475	2100
946.705	2077
946.935	2085
947.164	2094
947.394	2046
947.624	2063
947.853	2102
948.083	2069
948.312	2018
948.542	1990
948.771	1984
949	2000
949.23	1978
949.459	2022
949.688	2055
949.917	2029
950.146	2038
950.375	2079
950.604	1955
950.833	2042
951.062	2059
951.291	2020
951.52	2016
951.749	2006
951.978	1964
952.206	1985
952.435	1956
952.664	2001
952.892	2017
953.121	1959
953.349	2000
953.578	1996
953.806	1939
954.035	1923
954.263	1954
954.491	1911
954.719	1941
954.948	1909
955.176	1906
955.404	1873
955.632	1942
955.86	1910
956.088	1928
956.316	1925
956.544	1946
956.772	1890
956.999	1892
957.227	1946
957.455	1853
957.683	1874
957.91	1834
958.138	1843
958.365	1844
958.593	1823
958.82	1784
959.048	1851
959.275	1844
959.502	1822
959.73	1803
959.957	1854
960.184	1886
960.411	1777
960.638	1896
960.865	1843
961.092	1835
961.319	1747
961.546	1841
961.773	1857
962	1818
962.227	1863
962.454	1814
962.68	1798
962.907	1792
963.134	1755
963.36	1824
963.587	1799
963.813	1754
964.04	1785
964.266	1715
964.493	1812
964.719	1791
964.945	1803
965.171	1682
965.398	1766
965.624	1728
965.85	1684
966.076	1697
966.302	1737
966.528	1705
966.754	1755
966.98	1732
967.206	1709
967.431	1650
967.657	1702
967.883	1734
968.109	1710
968.334	1671
968.56	1647
968.785	1668
969.011	1583
969.236	1699
969.462	1642
969.687	1656
969.912	1701
970.138	1719
970.363	1640
970.588	1672
970.813	1630
971.038	1627
971.263	1654
971.488	1658
971.713	1667
971.938	1657
972.163	1586
972.388	1633
972.613	1589
972.838	1618
973.062	1593
973.287	1619
973.512	1525
973.736	1584
973.961	1574
974.185	1556
974.41	1597
974.634	1489
974.858	1548
975.083	1556
975.307	1583
975.531	1519
975.755	1451
975.98	1517
976.204	1453
976.428	1446
976.652	1469
976.876	1438
977.1	1476
977.324	1425
977.547	1486
977.771	1518
977.995	1485
978.219	1397
978.442	1555
978.666	1488
978.89	1461
979.113	1432
979.337	1472
979.56	1450
979.783	1502
980.007	1441
980.23	1458
980.453	1390
980.677	1440
980.9	1432
981.123	1351
981.346	1451
981.569	1445
981.792	1467
982.015	1401
982.238	1409
982.461	1402
982.684	1373
982.907	1352
983.129	1347
983.352	1436
983.575	1385
983.797	1415
984.02	1360
984.242	1334
984.465	1364
984.687	1405
984.91	1411
985.132	1397
985.354	1427
985.577	1403
985.799	1385
986.021	1302
986.243	1342
986.465	1344
986.687	1400
986.909	1434
987.131	1391
987.353	1332
987.575	1355
987.797	1347
988.019	1274
988.241	1364
988.462	1295
988.684	1383
988.906	1383
989.127	1385
989.349	1300
989.57	1330
989.792	1347
990.013	1379
990.234	1371
990.456	1393
990.677	1381
990.898	1325
991.119	1323
991.341	1367
991.562	1293
991.783	1386
992.004	1299
992.225	1272
992.446	1327
992.667	1248
992.887	1327
993.108	1230
993.329	1353
993.55	1309
993.77	1263
993.991	1267
994.212	1308
994.432	1287
994.653	1315
994.873	1316
995.093	1195
995.314	1235
995.534	1324
995.754	1343
995.975	1368
996.195	1257
996.415	1308
996.635	1311
996.855	1316
997.075	1312
997.295	1294
997.515	1255
997.735	1331
997.955	1305
998.174	1273
998.394	1268
998.614	1342
998.834	1278
999.053	1355
999.273	1309
999.492	1344
999.712	1299
999.931	1255
1000.151	1305
1000.37	1295
1000.589	1335
1000.809	1259
1001.028	1376
1001.247	1293
1001.466	1213
1001.685	1333
1001.904	1325
1002.123	1290
1002.342	1288
1002.561	1246
1002.78	1289
1002.999	1331
1003.218	1309
1003.436	1243
1003.655	1329
1003.874	1266
1004.092	1275
1004.311	1340
1004.53	1312
1004.748	1357
1004.966	1279
1005.185	1341
1005.403	1355
1005.622	1325
1005.84	1400
1006.058	1300
1006.276	1339
1006.494	1817
1006.712	1322
1006.931	1412
1007.149	1313
1007.367	1326
1007.584	1373
1007.802	1419
1008.02	1358
1008.238	1479
1008.456	1473
1008.673	1369
1008.891	1484
1009.109	1481
1009.326	1553
1009.544	1668
1009.761	1599
1009.979	1727
1010.196	1758
1010.413	1916
1010.631	1990
1010.848	2060
1011.065	2062
1011.282	2069
1011.5	1995
1011.717	2086
1011.934	2052
1012.151	2041
1012.368	2041
1012.585	1987
1012.801	2073
1013.018	2018
1013.235	2036
1013.452	2044
1013.669	2069
1013.885	2026
1014.102	2099
1014.318	2067
1014.535	2032
1014.751	2044
1014.968	2057
1015.184	2079
1015.401	1984
1015.617	2020
1015.833	1940
1016.049	1995
1016.266	1951
1016.482	1965
1016.698	1864
1016.914	1896
1017.13	1854
1017.346	1859
1017.562	1903
1017.778	1831
1017.993	1834
1018.209	1894
1018.425	1875
1018.641	1847
1018.856	1802
1019.072	1856
1019.288	1895
1019.503	1841
1019.719	1779
1019.934	1788
1020.149	1833
1020.365	1750
1020.58	1683
1020.795	1747
1021.011	1646
1021.226	1617
1021.441	1638
1021.656	1520
1021.871	1460
1022.086	1453
1022.301	1437
1022.516	1420
1022.731	1483
1022.946	1382
1023.16	1354
1023.375	1304
1023.59	1294
1023.804	1236
1024.019	1305
1024.234	1166
1024.448	1189
1024.663	1113
1024.877	1135
1025.092	1146
1025.306	1166
1025.52	1048
1025.734	1112
1025.949	1038
1026.163	990
1026.377	935
1026.591	997
1026.805	900
1027.019	924
1027.233	876
1027.447	805
1027.661	929
1027.875	875
1028.088	859
1028.302	801
1028.516	784
1028.73	773
1028.943	761
1029.157	693
1029.37	655
1029.584	-1
1029.797	-1
1030.011	-4
1030.224	-1
