Data from QEP037381__310__11-12-16-589.txt Node

Date: Wed Dec 21 11:12:16 EST 2022
User: dcclab
Spectrometer: QEP03738
Trigger mode: 4
Integration Time (sec): 1.000000E1
Scans to average: 1
Electric dark correction enabled: true
Nonlinearity correction enabled: false
Boxcar width: 0
XAxis mode: Wavelengths
Number of Pixels in Spectrum: 1044
>>>>>Begin Spectral Data<<<<<
784.041	13.62
784.3	-0.38
784.558	-2.38
784.817	-4.38
785.075	100220.62
785.334	17175.62
785.592	7922.62
785.851	5432.62
786.109	4105.62
786.368	3188.62
786.626	2605.62
786.884	2161.62
787.143	1774.62
787.401	1495.62
787.659	1339.62
787.917	1157.62
788.175	1034.62
788.433	909.62
788.691	834.62
788.949	752.62
789.207	738.62
789.465	621.62
789.723	608.62
789.98	539.62
790.238	605.62
790.496	575.62
790.753	541.62
791.011	574.62
791.268	503.62
791.526	482.62
791.783	513.62
792.041	481.62
792.298	409.62
792.556	468.62
792.813	464.62
793.07	424.62
793.327	421.62
793.584	481.62
793.841	414.62
794.099	426.62
794.356	489.62
794.613	385.62
794.869	424.62
795.126	385.62
795.383	370.62
795.64	394.62
795.897	344.62
796.153	407.62
796.41	386.62
796.667	377.62
796.923	375.62
797.18	357.62
797.436	411.62
797.693	360.62
797.949	409.62
798.206	438.62
798.462	347.62
798.718	401.62
798.974	375.62
799.231	403.62
799.487	410.62
799.743	404.62
799.999	420.62
800.255	408.62
800.511	374.62
800.767	427.62
801.023	401.62
801.279	405.62
801.534	417.62
801.79	436.62
802.046	415.62
802.302	481.62
802.557	483.62
802.813	542.62
803.068	535.62
803.324	681.62
803.579	799.62
803.835	1000.62
804.09	1309.62
804.345	1584.62
804.601	1936.62
804.856	2365.62
805.111	2694.62
805.366	2929.62
805.621	3078.62
805.876	3213.62
806.131	3257.62
806.386	3263.62
806.641	3333.62
806.896	3385.62
807.151	3483.62
807.406	3531.62
807.661	3544.62
807.915	3648.62
808.17	3679.62
808.425	3757.62
808.679	3757.62
808.934	3887.62
809.188	3864.62
809.443	3940.62
809.697	4006.62
809.951	3965.62
810.206	4054.62
810.46	4101.62
810.714	4153.62
810.968	4189.62
811.223	4143.62
811.477	4232.62
811.731	4273.62
811.985	4251.62
812.239	4207.62
812.493	4333.62
812.747	4355.62
813	4290.62
813.254	4379.62
813.508	4475.62
813.762	4415.62
814.015	4441.62
814.269	4515.62
814.522	4543.62
814.776	4614.62
815.03	4631.62
815.283	4693.62
815.536	4804.62
815.79	4870.62
816.043	4880.62
816.296	5006.62
816.55	5030.62
816.803	5123.62
817.056	5222.62
817.309	5257.62
817.562	5280.62
817.815	5382.62
818.068	5361.62
818.321	5450.62
818.574	5501.62
818.827	5619.62
819.079	5685.62
819.332	5894.62
819.585	5892.62
819.838	6015.62
820.09	5968.62
820.343	6037.62
820.595	5996.62
820.848	6130.62
821.1	6133.62
821.353	6091.62
821.605	6136.62
821.857	6184.62
822.11	6088.62
822.362	6042.62
822.614	6039.62
822.866	6137.62
823.118	6097.62
823.37	6256.62
823.622	6199.62
823.874	6202.62
824.126	6342.62
824.378	6266.62
824.63	6317.62
824.882	6268.62
825.134	6252.62
825.385	6239.62
825.637	6247.62
825.888	6147.62
826.14	6169.62
826.392	6187.62
826.643	6100.62
826.895	6162.62
827.146	6059.62
827.397	6054.62
827.649	6098.62
827.9	6019.62
828.151	6044.62
828.402	6076.62
828.653	6062.62
828.905	6127.62
829.156	6181.62
829.407	6132.62
829.658	6139.62
829.909	6184.62
830.159	6236.62
830.41	6158.62
830.661	6126.62
830.912	6113.62
831.162	6092.62
831.413	6084.62
831.664	6195.62
831.914	6069.62
832.165	6114.62
832.415	6103.62
832.666	6172.62
832.916	6184.62
833.167	6105.62
833.417	6159.62
833.667	6102.62
833.917	6061.62
834.168	6077.62
834.418	6085.62
834.668	6085.62
834.918	6072.62
835.168	6104.62
835.418	6032.62
835.668	6044.62
835.918	5978.62
836.167	5989.62
836.417	5990.62
836.667	5955.62
836.917	6010.62
837.166	5951.62
837.416	6025.62
837.666	5985.62
837.915	5945.62
838.165	5937.62
838.414	5904.62
838.663	5824.62
838.913	5958.62
839.162	5900.62
839.411	5971.62
839.661	5889.62
839.91	5993.62
840.159	5938.62
840.408	5945.62
840.657	5963.62
840.906	5986.62
841.155	6029.62
841.404	5998.62
841.653	5998.62
841.902	5945.62
842.15	5955.62
842.399	5993.62
842.648	6014.62
842.897	6009.62
843.145	5924.62
843.394	5867.62
843.642	5921.62
843.891	5883.62
844.139	5826.62
844.388	5794.62
844.636	5727.62
844.884	5746.62
845.133	5756.62
845.381	5741.62
845.629	5771.62
845.877	5719.62
846.125	5723.62
846.373	5861.62
846.621	5695.62
846.869	5771.62
847.117	5701.62
847.365	5662.62
847.613	5648.62
847.861	5699.62
848.108	5695.62
848.356	5658.62
848.604	5654.62
848.851	5685.62
849.099	5723.62
849.346	5659.62
849.594	5784.62
849.841	5838.62
850.089	5871.62
850.336	5889.62
850.583	6024.62
850.831	5986.62
851.078	5949.62
851.325	5980.62
851.572	6022.62
851.819	5929.62
852.066	5673.62
852.313	5608.62
852.56	5468.62
852.807	5499.62
853.054	5475.62
853.301	5526.62
853.548	5533.62
853.794	5643.62
854.041	5577.62
854.288	5616.62
854.534	5788.62
854.781	5658.62
855.028	5669.62
855.274	5708.62
855.52	5630.62
855.767	5621.62
856.013	5691.62
856.26	5923.62
856.506	5556.62
856.752	5583.62
856.998	5595.62
857.244	5542.62
857.49	5600.62
857.736	5629.62
857.982	5676.62
858.228	5611.62
858.474	5551.62
858.72	5530.62
858.966	5509.62
859.212	5439.62
859.458	5364.62
859.703	5271.62
859.949	5240.62
860.195	5269.62
860.44	5228.62
860.686	5197.62
860.931	5226.62
861.177	5189.62
861.422	5143.62
861.667	5088.62
861.913	5097.62
862.158	5153.62
862.403	5163.62
862.648	5209.62
862.893	5263.62
863.138	5166.62
863.384	5134.62
863.629	5182.62
863.873	5209.62
864.118	5126.62
864.363	5053.62
864.608	5157.62
864.853	5182.62
865.098	5028.62
865.342	5101.62
865.587	5032.62
865.832	5129.62
866.076	5085.62
866.321	4995.62
866.565	4993.62
866.81	4955.62
867.054	4969.62
867.298	5005.62
867.543	5002.62
867.787	5012.62
868.031	5010.62
868.275	4996.62
868.519	5006.62
868.764	5020.62
869.008	4985.62
869.252	5044.62
869.496	5028.62
869.739	5047.62
869.983	5039.62
870.227	5062.62
870.471	5045.62
870.715	5051.62
870.958	5101.62
871.202	5115.62
871.446	5197.62
871.689	5101.62
871.933	5136.62
872.176	5167.62
872.42	5124.62
872.663	5132.62
872.906	5202.62
873.15	5120.62
873.393	5089.62
873.636	5206.62
873.879	5129.62
874.122	5093.62
874.366	4962.62
874.609	4958.62
874.852	4910.62
875.095	4890.62
875.337	4813.62
875.58	4766.62
875.823	4838.62
876.066	4792.62
876.309	4851.62
876.551	4732.62
876.794	4713.62
877.037	4740.62
877.279	4702.62
877.522	4680.62
877.764	4708.62
878.007	4682.62
878.249	4717.62
878.491	4590.62
878.734	4708.62
878.976	4665.62
879.218	4589.62
879.46	4621.62
879.702	4606.62
879.945	4515.62
880.187	4423.62
880.429	4455.62
880.671	4420.62
880.912	4421.62
881.154	4435.62
881.396	4379.62
881.638	4426.62
881.88	4404.62
882.121	4406.62
882.363	4461.62
882.605	4436.62
882.846	4454.62
883.088	4415.62
883.329	4498.62
883.571	4486.62
883.812	4539.62
884.053	4758.62
884.295	4911.62
884.536	5074.62
884.777	4993.62
885.018	5046.62
885.259	4960.62
885.5	4876.62
885.742	5100.62
885.982	4860.62
886.223	4722.62
886.464	4761.62
886.705	4600.62
886.946	4619.62
887.187	4475.62
887.428	4452.62
887.668	4299.62
887.909	4232.62
888.15	4125.62
888.39	4165.62
888.631	4198.62
888.871	4075.62
889.111	4108.62
889.352	4031.62
889.592	3947.62
889.833	3981.62
890.073	3997.62
890.313	4020.62
890.553	3863.62
890.793	3915.62
891.033	3823.62
891.273	3828.62
891.513	3817.62
891.753	3867.62
891.993	3894.62
892.233	3872.62
892.473	4001.62
892.713	3929.62
892.952	3847.62
893.192	3901.62
893.432	3914.62
893.671	3958.62
893.911	3906.62
894.15	3891.62
894.39	3803.62
894.629	3833.62
894.869	3815.62
895.108	3849.62
895.347	3810.62
895.587	3829.62
895.826	3811.62
896.065	3750.62
896.304	3818.62
896.543	3860.62
896.782	3812.62
897.021	3850.62
897.26	3807.62
897.499	3889.62
897.738	3913.62
897.977	3826.62
898.216	3817.62
898.454	3770.62
898.693	3740.62
898.932	3808.62
899.17	3793.62
899.409	3773.62
899.647	3786.62
899.886	3789.62
900.124	3789.62
900.363	3748.62
900.601	3829.62
900.839	3821.62
901.078	3869.62
901.316	3895.62
901.554	3950.62
901.792	3972.62
902.03	3950.62
902.268	4052.62
902.506	4107.62
902.744	3968.62
902.982	3983.62
903.22	3817.62
903.458	3727.62
903.695	3743.62
903.933	3634.62
904.171	3559.62
904.409	3480.62
904.646	3446.62
904.884	3353.62
905.121	3389.62
905.359	3318.62
905.596	3327.62
905.833	3182.62
906.071	3238.62
906.308	3242.62
906.545	3192.62
906.783	3112.62
907.02	3163.62
907.257	3092.62
907.494	3139.62
907.731	3162.62
907.968	3127.62
908.205	3083.62
908.442	3064.62
908.679	3030.62
908.915	2997.62
909.152	3029.62
909.389	2924.62
909.626	2992.62
909.862	2923.62
910.099	2949.62
910.335	2943.62
910.572	2840.62
910.808	2928.62
911.045	2855.62
911.281	2829.62
911.518	2924.62
911.754	2863.62
911.99	2862.62
912.226	2840.62
912.463	2782.62
912.699	2764.62
912.935	2756.62
913.171	2761.62
913.407	2707.62
913.643	2763.62
913.879	2765.62
914.114	2724.62
914.35	2662.62
914.586	2646.62
914.822	2613.62
915.057	2698.62
915.293	2513.62
915.529	2565.62
915.764	2608.62
916	2600.62
916.235	2613.62
916.471	2579.62
916.706	2563.62
916.941	2581.62
917.177	2586.62
917.412	2557.62
917.647	2562.62
917.882	2535.62
918.117	2600.62
918.352	2580.62
918.588	2598.62
918.823	2516.62
919.057	2531.62
919.292	2445.62
919.527	2562.62
919.762	2484.62
919.997	2497.62
920.232	2452.62
920.466	2451.62
920.701	2321.62
920.935	2409.62
921.17	2344.62
921.405	2325.62
921.639	2402.62
921.873	2346.62
922.108	2360.62
922.342	2391.62
922.576	2314.62
922.811	2308.62
923.045	2342.62
923.279	2389.62
923.513	2258.62
923.747	2346.62
923.981	2332.62
924.215	2270.62
924.449	2254.62
924.683	2206.62
924.917	2261.62
925.151	2202.62
925.385	2325.62
925.618	2249.62
925.852	2231.62
926.086	2185.62
926.319	2203.62
926.553	2204.62
926.786	2218.62
927.02	2219.62
927.253	2266.62
927.486	2265.62
927.72	2174.62
927.953	2234.62
928.186	2240.62
928.42	2242.62
928.653	2177.62
928.886	2169.62
929.119	2204.62
929.352	2205.62
929.585	2188.62
929.818	2161.62
930.051	2189.62
930.284	2152.62
930.516	2084.62
930.749	2114.62
930.982	2166.62
931.215	2142.62
931.447	2074.62
931.68	2088.62
931.912	2039.62
932.145	2092.62
932.377	2080.62
932.61	2245.62
932.842	2030.62
933.074	2103.62
933.307	2080.62
933.539	2135.62
933.771	2149.62
934.003	2086.62
934.236	2154.62
934.468	2182.62
934.7	2078.62
934.932	2120.62
935.164	2077.62
935.395	2059.62
935.627	2102.62
935.859	2105.62
936.091	2029.62
936.323	2097.62
936.554	2115.62
936.786	2056.62
937.017	1996.62
937.249	2068.62
937.481	1993.62
937.712	2111.62
937.943	2046.62
938.175	2043.62
938.406	2050.62
938.637	2115.62
938.869	2022.62
939.1	2068.62
939.331	2028.62
939.562	2062.62
939.793	2065.62
940.024	2032.62
940.255	2061.62
940.486	2021.62
940.717	2024.62
940.948	1998.62
941.179	1960.62
941.409	1995.62
941.64	1965.62
941.871	2037.62
942.102	1977.62
942.332	1967.62
942.563	2048.62
942.793	2014.62
943.024	1937.62
943.254	1990.62
943.484	2023.62
943.715	2061.62
943.945	2020.62
944.175	1962.62
944.405	1918.62
944.636	1957.62
944.866	1976.62
945.096	2007.62
945.326	1933.62
945.556	1981.62
945.786	2032.62
946.016	1944.62
946.245	1908.62
946.475	1937.62
946.705	1951.62
946.935	1962.62
947.164	1950.62
947.394	1904.62
947.624	1916.62
947.853	1963.62
948.083	1901.62
948.312	1881.62
948.542	1828.62
948.771	1827.62
949	1859.62
949.23	1872.62
949.459	1843.62
949.688	1951.62
949.917	1884.62
950.146	1863.62
950.375	1915.62
950.604	1835.62
950.833	1938.62
951.062	1939.62
951.291	1846.62
951.52	1828.62
951.749	1855.62
951.978	1817.62
952.206	1849.62
952.435	1814.62
952.664	1871.62
952.892	1871.62
953.121	1838.62
953.349	1882.62
953.578	1856.62
953.806	1855.62
954.035	1790.62
954.263	1831.62
954.491	1772.62
954.719	1846.62
954.948	1773.62
955.176	1787.62
955.404	1718.62
955.632	1803.62
955.86	1792.62
956.088	1776.62
956.316	1805.62
956.544	1840.62
956.772	1761.62
956.999	1727.62
957.227	1819.62
957.455	1733.62
957.683	1754.62
957.91	1697.62
958.138	1706.62
958.365	1721.62
958.593	1723.62
958.82	1611.62
959.048	1720.62
959.275	1676.62
959.502	1703.62
959.73	1693.62
959.957	1730.62
960.184	1754.62
960.411	1711.62
960.638	1744.62
960.865	1695.62
961.092	1727.62
961.319	1615.62
961.546	1706.62
961.773	1720.62
962	1688.62
962.227	1726.62
962.454	1690.62
962.68	1667.62
962.907	1691.62
963.134	1663.62
963.36	1675.62
963.587	1706.62
963.813	1631.62
964.04	1679.62
964.266	1600.62
964.493	1682.62
964.719	1679.62
964.945	1688.62
965.171	1564.62
965.398	1634.62
965.624	1625.62
965.85	1588.62
966.076	1588.62
966.302	1635.62
966.528	1598.62
966.754	1610.62
966.98	1642.62
967.206	1622.62
967.431	1559.62
967.657	1626.62
967.883	1640.62
968.109	1599.62
968.334	1532.62
968.56	1521.62
968.785	1576.62
969.011	1553.62
969.236	1585.62
969.462	1525.62
969.687	1572.62
969.912	1588.62
970.138	1602.62
970.363	1523.62
970.588	1567.62
970.813	1549.62
971.038	1518.62
971.263	1543.62
971.488	1522.62
971.713	1603.62
971.938	1559.62
972.163	1493.62
972.388	1501.62
972.613	1487.62
972.838	1487.62
973.062	1492.62
973.287	1524.62
973.512	1423.62
973.736	1470.62
973.961	1470.62
974.185	1449.62
974.41	1494.62
974.634	1409.62
974.858	1422.62
975.083	1445.62
975.307	1488.62
975.531	1431.62
975.755	1386.62
975.98	1382.62
976.204	1335.62
976.428	1354.62
976.652	1370.62
976.876	1344.62
977.1	1393.62
977.324	1344.62
977.547	1393.62
977.771	1432.62
977.995	1370.62
978.219	1319.62
978.442	1438.62
978.666	1387.62
978.89	1382.62
979.113	1378.62
979.337	1366.62
979.56	1310.62
979.783	1447.62
980.007	1324.62
980.23	1352.62
980.453	1313.62
980.677	1334.62
980.9	1367.62
981.123	1262.62
981.346	1361.62
981.569	1347.62
981.792	1361.62
982.015	1313.62
982.238	1274.62
982.461	1325.62
982.684	1301.62
982.907	1307.62
983.129	1273.62
983.352	1314.62
983.575	1304.62
983.797	1338.62
984.02	1282.62
984.242	1275.62
984.465	1294.62
984.687	1310.62
984.91	1344.62
985.132	1298.62
985.354	1344.62
985.577	1284.62
985.799	1310.62
986.021	1226.62
986.243	1261.62
986.465	1293.62
986.687	1321.62
986.909	1355.62
987.131	1303.62
987.353	1259.62
987.575	1271.62
987.797	1262.62
988.019	1186.62
988.241	1276.62
988.462	1211.62
988.684	1276.62
988.906	1300.62
989.127	1357.62
989.349	1205.62
989.57	1248.62
989.792	1297.62
990.013	1318.62
990.234	1302.62
990.456	1320.62
990.677	1315.62
990.898	1259.62
991.119	1256.62
991.341	1269.62
991.562	1211.62
991.783	1281.62
992.004	1233.62
992.225	1189.62
992.446	1271.62
992.667	1192.62
992.887	1265.62
993.108	1162.62
993.329	1270.62
993.55	1247.62
993.77	1193.62
993.991	1193.62
994.212	1237.62
994.432	1213.62
994.653	1241.62
994.873	1215.62
995.093	1107.62
995.314	1191.62
995.534	1241.62
995.754	1242.62
995.975	1268.62
996.195	1179.62
996.415	1231.62
996.635	1205.62
996.855	1232.62
997.075	1192.62
997.295	1200.62
997.515	1194.62
997.735	1261.62
997.955	1208.62
998.174	1199.62
998.394	1168.62
998.614	1238.62
998.834	1201.62
999.053	1254.62
999.273	1219.62
999.492	1280.62
999.712	1212.62
999.931	1179.62
1000.151	1238.62
1000.37	1186.62
1000.589	1261.62
1000.809	1189.62
1001.028	1320.62
1001.247	1222.62
1001.466	1151.62
1001.685	1281.62
1001.904	1210.62
1002.123	1222.62
1002.342	1230.62
1002.561	1196.62
1002.78	1212.62
1002.999	1255.62
1003.218	1215.62
1003.436	1202.62
1003.655	1247.62
1003.874	1175.62
1004.092	1202.62
1004.311	1270.62
1004.53	1202.62
1004.748	1309.62
1004.966	1210.62
1005.185	1294.62
1005.403	1263.62
1005.622	1254.62
1005.84	1334.62
1006.058	1225.62
1006.276	1238.62
1006.494	1750.62
1006.712	1236.62
1006.931	1294.62
1007.149	1235.62
1007.367	1233.62
1007.584	1274.62
1007.802	1321.62
1008.02	1276.62
1008.238	1379.62
1008.456	1364.62
1008.673	1238.62
1008.891	1368.62
1009.109	1307.62
1009.326	1376.62
1009.544	1502.62
1009.761	1407.62
1009.979	1491.62
1010.196	1532.62
1010.413	1637.62
1010.631	1714.62
1010.848	1764.62
1011.065	1760.62
1011.282	1753.62
1011.5	1679.62
1011.717	1781.62
1011.934	1718.62
1012.151	1730.62
1012.368	1745.62
1012.585	1668.62
1012.801	1729.62
1013.018	1703.62
1013.235	1713.62
1013.452	1734.62
1013.669	1732.62
1013.885	1711.62
1014.102	1747.62
1014.318	1727.62
1014.535	1698.62
1014.751	1737.62
1014.968	1724.62
1015.184	1755.62
1015.401	1684.62
1015.617	1713.62
1015.833	1645.62
1016.049	1661.62
1016.266	1640.62
1016.482	1638.62
1016.698	1574.62
1016.914	1648.62
1017.13	1601.62
1017.346	1583.62
1017.562	1638.62
1017.778	1579.62
1017.993	1567.62
1018.209	1616.62
1018.425	1590.62
1018.641	1559.62
1018.856	1531.62
1019.072	1595.62
1019.288	1620.62
1019.503	1561.62
1019.719	1523.62
1019.934	1515.62
1020.149	1597.62
1020.365	1532.62
1020.58	1469.62
1020.795	1523.62
1021.011	1448.62
1021.226	1403.62
1021.441	1411.62
1021.656	1318.62
1021.871	1257.62
1022.086	1272.62
1022.301	1265.62
1022.516	1241.62
1022.731	1282.62
1022.946	1207.62
1023.16	1197.62
1023.375	1176.62
1023.59	1124.62
1023.804	1119.62
1024.019	1223.62
1024.234	1056.62
1024.448	1098.62
1024.663	1027.62
1024.877	1062.62
1025.092	1061.62
1025.306	1039.62
1025.52	948.62
1025.734	1037.62
1025.949	963.62
1026.163	922.62
1026.377	887.62
1026.591	913.62
1026.805	849.62
1027.019	853.62
1027.233	809.62
1027.447	763.62
1027.661	864.62
1027.875	812.62
1028.088	811.62
1028.302	741.62
1028.516	741.62
1028.73	748.62
1028.943	702.62
1029.157	670.62
1029.37	622.62
1029.584	-3.38
1029.797	-3.38
1030.011	-1.38
1030.224	1.62
