Data from QEP037381__276__11-06-36-589.txt Node

Date: Wed Dec 21 11:06:36 EST 2022
User: dcclab
Spectrometer: QEP03738
Trigger mode: 4
Integration Time (sec): 1.000000E1
Scans to average: 1
Electric dark correction enabled: true
Nonlinearity correction enabled: false
Boxcar width: 0
XAxis mode: Wavelengths
Number of Pixels in Spectrum: 1044
>>>>>Begin Spectral Data<<<<<
784.041	11.75
784.3	-2.25
784.558	-4.25
784.817	-4.25
785.075	102238.75
785.334	16971.75
785.592	7873.75
785.851	5400.75
786.109	4118.75
786.368	3223.75
786.626	2596.75
786.884	2161.75
787.143	1802.75
787.401	1481.75
787.659	1342.75
787.917	1130.75
788.175	1049.75
788.433	918.75
788.691	826.75
788.949	745.75
789.207	705.75
789.465	611.75
789.723	605.75
789.98	537.75
790.238	584.75
790.496	542.75
790.753	512.75
791.011	568.75
791.268	498.75
791.526	469.75
791.783	476.75
792.041	478.75
792.298	390.75
792.556	454.75
792.813	446.75
793.07	423.75
793.327	417.75
793.584	476.75
793.841	409.75
794.099	413.75
794.356	475.75
794.613	384.75
794.869	423.75
795.126	379.75
795.383	353.75
795.64	398.75
795.897	343.75
796.153	405.75
796.41	385.75
796.667	361.75
796.923	374.75
797.18	371.75
797.436	396.75
797.693	362.75
797.949	391.75
798.206	429.75
798.462	338.75
798.718	405.75
798.974	373.75
799.231	406.75
799.487	380.75
799.743	394.75
799.999	414.75
800.255	398.75
800.511	378.75
800.767	409.75
801.023	377.75
801.279	398.75
801.534	409.75
801.79	430.75
802.046	379.75
802.302	461.75
802.557	449.75
802.813	520.75
803.068	511.75
803.324	633.75
803.579	719.75
803.835	874.75
804.09	1156.75
804.345	1407.75
804.601	1732.75
804.856	2088.75
805.111	2404.75
805.366	2617.75
805.621	2720.75
805.876	2804.75
806.131	2845.75
806.386	2874.75
806.641	2937.75
806.896	2961.75
807.151	3085.75
807.406	3053.75
807.661	3117.75
807.915	3171.75
808.17	3238.75
808.425	3242.75
808.679	3235.75
808.934	3353.75
809.188	3328.75
809.443	3418.75
809.697	3483.75
809.951	3490.75
810.206	3535.75
810.46	3566.75
810.714	3565.75
810.968	3668.75
811.223	3605.75
811.477	3671.75
811.731	3685.75
811.985	3673.75
812.239	3652.75
812.493	3726.75
812.747	3741.75
813	3740.75
813.254	3781.75
813.508	3798.75
813.762	3805.75
814.015	3818.75
814.269	3857.75
814.522	3933.75
814.776	3973.75
815.03	4032.75
815.283	4051.75
815.536	4142.75
815.79	4193.75
816.043	4238.75
816.296	4294.75
816.55	4324.75
816.803	4391.75
817.056	4514.75
817.309	4476.75
817.562	4541.75
817.815	4646.75
818.068	4579.75
818.321	4677.75
818.574	4725.75
818.827	4852.75
819.079	4899.75
819.332	5036.75
819.585	5084.75
819.838	5226.75
820.09	5118.75
820.343	5263.75
820.595	5204.75
820.848	5247.75
821.1	5258.75
821.353	5235.75
821.605	5252.75
821.857	5319.75
822.11	5124.75
822.362	5196.75
822.614	5192.75
822.866	5233.75
823.118	5174.75
823.37	5350.75
823.622	5283.75
823.874	5309.75
824.126	5381.75
824.378	5326.75
824.63	5356.75
824.882	5446.75
825.134	5393.75
825.385	5362.75
825.637	5342.75
825.888	5261.75
826.14	5280.75
826.392	5300.75
826.643	5208.75
826.895	5308.75
827.146	5133.75
827.397	5126.75
827.649	5217.75
827.9	5166.75
828.151	5112.75
828.402	5164.75
828.653	5168.75
828.905	5195.75
829.156	5312.75
829.407	5157.75
829.658	5252.75
829.909	5293.75
830.159	5279.75
830.41	5288.75
830.661	5203.75
830.912	5188.75
831.162	5191.75
831.413	5192.75
831.664	5228.75
831.914	5224.75
832.165	5201.75
832.415	5243.75
832.666	5292.75
832.916	5251.75
833.167	5191.75
833.417	5297.75
833.667	5238.75
833.917	5209.75
834.168	5276.75
834.418	5224.75
834.668	5171.75
834.918	5158.75
835.168	5160.75
835.418	5098.75
835.668	5118.75
835.918	5121.75
836.167	5117.75
836.417	5059.75
836.667	5116.75
836.917	5084.75
837.166	5043.75
837.416	5148.75
837.666	5113.75
837.915	5034.75
838.165	5063.75
838.414	4962.75
838.663	4958.75
838.913	5070.75
839.162	5025.75
839.411	5040.75
839.661	4983.75
839.91	5030.75
840.159	5004.75
840.408	5048.75
840.657	5041.75
840.906	5113.75
841.155	5067.75
841.404	5011.75
841.653	5036.75
841.902	5060.75
842.15	5077.75
842.399	5106.75
842.648	5048.75
842.897	5055.75
843.145	4952.75
843.394	4916.75
843.642	4906.75
843.891	4916.75
844.139	4870.75
844.388	4864.75
844.636	4805.75
844.884	4826.75
845.133	4846.75
845.381	4807.75
845.629	4877.75
845.877	4819.75
846.125	4801.75
846.373	4879.75
846.621	4780.75
846.869	4819.75
847.117	4784.75
847.365	4765.75
847.613	4790.75
847.861	4793.75
848.108	4812.75
848.356	4739.75
848.604	4725.75
848.851	4766.75
849.099	4763.75
849.346	4809.75
849.594	4838.75
849.841	4955.75
850.089	4909.75
850.336	4912.75
850.583	4978.75
850.831	4924.75
851.078	5049.75
851.325	5004.75
851.572	5099.75
851.819	4957.75
852.066	4773.75
852.313	4590.75
852.56	4588.75
852.807	4544.75
853.054	4553.75
853.301	4568.75
853.548	4600.75
853.794	4762.75
854.041	4710.75
854.288	4674.75
854.534	4835.75
854.781	4792.75
855.028	4722.75
855.274	4761.75
855.52	4693.75
855.767	4654.75
856.013	4732.75
856.26	4968.75
856.506	4633.75
856.752	4661.75
856.998	4643.75
857.244	4617.75
857.49	4669.75
857.736	4645.75
857.982	4679.75
858.228	4680.75
858.474	4619.75
858.72	4636.75
858.966	4538.75
859.212	4544.75
859.458	4432.75
859.703	4419.75
859.949	4367.75
860.195	4355.75
860.44	4357.75
860.686	4309.75
860.931	4406.75
861.177	4277.75
861.422	4316.75
861.667	4219.75
861.913	4233.75
862.158	4301.75
862.403	4349.75
862.648	4357.75
862.893	4363.75
863.138	4337.75
863.384	4333.75
863.629	4312.75
863.873	4304.75
864.118	4299.75
864.363	4246.75
864.608	4280.75
864.853	4290.75
865.098	4225.75
865.342	4229.75
865.587	4179.75
865.832	4240.75
866.076	4249.75
866.321	4167.75
866.565	4204.75
866.81	4085.75
867.054	4159.75
867.298	4150.75
867.543	4119.75
867.787	4197.75
868.031	4173.75
868.275	4162.75
868.519	4130.75
868.764	4174.75
869.008	4125.75
869.252	4192.75
869.496	4144.75
869.739	4191.75
869.983	4215.75
870.227	4213.75
870.471	4134.75
870.715	4220.75
870.958	4209.75
871.202	4216.75
871.446	4231.75
871.689	4216.75
871.933	4226.75
872.176	4214.75
872.42	4240.75
872.663	4167.75
872.906	4241.75
873.15	4217.75
873.393	4178.75
873.636	4260.75
873.879	4184.75
874.122	4169.75
874.366	4069.75
874.609	4058.75
874.852	3966.75
875.095	4021.75
875.337	4019.75
875.58	3905.75
875.823	3992.75
876.066	4009.75
876.309	4037.75
876.551	3929.75
876.794	3882.75
877.037	3923.75
877.279	3851.75
877.522	3848.75
877.764	3865.75
878.007	3854.75
878.249	3898.75
878.491	3837.75
878.734	3850.75
878.976	3796.75
879.218	3757.75
879.46	3787.75
879.702	3784.75
879.945	3756.75
880.187	3657.75
880.429	3701.75
880.671	3685.75
880.912	3679.75
881.154	3688.75
881.396	3576.75
881.638	3622.75
881.88	3639.75
882.121	3566.75
882.363	3619.75
882.605	3689.75
882.846	3721.75
883.088	3709.75
883.329	3674.75
883.571	3644.75
883.812	3753.75
884.053	3812.75
884.295	3897.75
884.536	4047.75
884.777	4034.75
885.018	4032.75
885.259	3979.75
885.5	3919.75
885.742	4130.75
885.982	3941.75
886.223	3793.75
886.464	3827.75
886.705	3749.75
886.946	3680.75
887.187	3605.75
887.428	3625.75
887.668	3529.75
887.909	3449.75
888.15	3368.75
888.39	3450.75
888.631	3466.75
888.871	3408.75
889.111	3325.75
889.352	3339.75
889.592	3288.75
889.833	3262.75
890.073	3248.75
890.313	3302.75
890.553	3173.75
890.793	3177.75
891.033	3156.75
891.273	3132.75
891.513	3178.75
891.753	3227.75
891.993	3175.75
892.233	3199.75
892.473	3248.75
892.713	3221.75
892.952	3167.75
893.192	3236.75
893.432	3194.75
893.671	3282.75
893.911	3229.75
894.15	3214.75
894.39	3168.75
894.629	3143.75
894.869	3155.75
895.108	3122.75
895.347	3070.75
895.587	3123.75
895.826	3066.75
896.065	3101.75
896.304	3154.75
896.543	3163.75
896.782	3050.75
897.021	3098.75
897.26	3122.75
897.499	3193.75
897.738	3193.75
897.977	3158.75
898.216	3106.75
898.454	3068.75
898.693	3029.75
898.932	3113.75
899.17	3077.75
899.409	3080.75
899.647	3034.75
899.886	3055.75
900.124	3113.75
900.363	3073.75
900.601	3110.75
900.839	3080.75
901.078	3130.75
901.316	3129.75
901.554	3181.75
901.792	3219.75
902.03	3190.75
902.268	3210.75
902.506	3279.75
902.744	3167.75
902.982	3163.75
903.22	3032.75
903.458	3056.75
903.695	2991.75
903.933	2962.75
904.171	2852.75
904.409	2812.75
904.646	2839.75
904.884	2739.75
905.121	2736.75
905.359	2715.75
905.596	2667.75
905.833	2607.75
906.071	2605.75
906.308	2637.75
906.545	2668.75
906.783	2559.75
907.02	2557.75
907.257	2524.75
907.494	2549.75
907.731	2561.75
907.968	2595.75
908.205	2517.75
908.442	2512.75
908.679	2534.75
908.915	2511.75
909.152	2453.75
909.389	2418.75
909.626	2420.75
909.862	2400.75
910.099	2366.75
910.335	2449.75
910.572	2373.75
910.808	2421.75
911.045	2377.75
911.281	2340.75
911.518	2438.75
911.754	2363.75
911.99	2383.75
912.226	2332.75
912.463	2262.75
912.699	2281.75
912.935	2277.75
913.171	2269.75
913.407	2246.75
913.643	2302.75
913.879	2246.75
914.114	2266.75
914.35	2199.75
914.586	2215.75
914.822	2157.75
915.057	2235.75
915.293	2116.75
915.529	2105.75
915.764	2192.75
916	2158.75
916.235	2154.75
916.471	2151.75
916.706	2074.75
916.941	2100.75
917.177	2124.75
917.412	2137.75
917.647	2166.75
917.882	2091.75
918.117	2147.75
918.352	2117.75
918.588	2166.75
918.823	2108.75
919.057	2069.75
919.292	1994.75
919.527	2107.75
919.762	2055.75
919.997	2055.75
920.232	1999.75
920.466	2029.75
920.701	1919.75
920.935	1969.75
921.17	1956.75
921.405	1921.75
921.639	1975.75
921.873	1944.75
922.108	1946.75
922.342	1984.75
922.576	1901.75
922.811	1913.75
923.045	1954.75
923.279	1936.75
923.513	1846.75
923.747	1934.75
923.981	1923.75
924.215	1852.75
924.449	1861.75
924.683	1844.75
924.917	1864.75
925.151	1823.75
925.385	1869.75
925.618	1872.75
925.852	1864.75
926.086	1808.75
926.319	1882.75
926.553	1836.75
926.786	1858.75
927.02	1817.75
927.253	1891.75
927.486	1879.75
927.72	1822.75
927.953	1858.75
928.186	1806.75
928.42	1851.75
928.653	1802.75
928.886	1803.75
929.119	1841.75
929.352	1795.75
929.585	1814.75
929.818	1771.75
930.051	1801.75
930.284	1811.75
930.516	1697.75
930.749	1739.75
930.982	1789.75
931.215	1791.75
931.447	1679.75
931.68	1726.75
931.912	1714.75
932.145	1711.75
932.377	1754.75
932.61	1851.75
932.842	1667.75
933.074	1732.75
933.307	1725.75
933.539	1796.75
933.771	1799.75
934.003	1723.75
934.236	1790.75
934.468	1815.75
934.7	1707.75
934.932	1779.75
935.164	1697.75
935.395	1676.75
935.627	1748.75
935.859	1747.75
936.091	1670.75
936.323	1736.75
936.554	1768.75
936.786	1745.75
937.017	1653.75
937.249	1693.75
937.481	1649.75
937.712	1708.75
937.943	1671.75
938.175	1687.75
938.406	1668.75
938.637	1739.75
938.869	1658.75
939.1	1723.75
939.331	1660.75
939.562	1693.75
939.793	1684.75
940.024	1727.75
940.255	1704.75
940.486	1661.75
940.717	1660.75
940.948	1635.75
941.179	1603.75
941.409	1633.75
941.64	1623.75
941.871	1629.75
942.102	1638.75
942.332	1624.75
942.563	1703.75
942.793	1691.75
943.024	1583.75
943.254	1655.75
943.484	1682.75
943.715	1661.75
943.945	1666.75
944.175	1587.75
944.405	1583.75
944.636	1605.75
944.866	1640.75
945.096	1640.75
945.326	1576.75
945.556	1644.75
945.786	1677.75
946.016	1620.75
946.245	1577.75
946.475	1587.75
946.705	1609.75
946.935	1581.75
947.164	1583.75
947.394	1552.75
947.624	1573.75
947.853	1618.75
948.083	1558.75
948.312	1562.75
948.542	1492.75
948.771	1496.75
949	1528.75
949.23	1565.75
949.459	1542.75
949.688	1591.75
949.917	1562.75
950.146	1558.75
950.375	1631.75
950.604	1497.75
950.833	1617.75
951.062	1590.75
951.291	1553.75
951.52	1525.75
951.749	1527.75
951.978	1509.75
952.206	1532.75
952.435	1508.75
952.664	1531.75
952.892	1566.75
953.121	1534.75
953.349	1548.75
953.578	1539.75
953.806	1512.75
954.035	1463.75
954.263	1508.75
954.491	1482.75
954.719	1503.75
954.948	1462.75
955.176	1471.75
955.404	1416.75
955.632	1472.75
955.86	1480.75
956.088	1465.75
956.316	1488.75
956.544	1514.75
956.772	1442.75
956.999	1446.75
957.227	1540.75
957.455	1425.75
957.683	1451.75
957.91	1430.75
958.138	1390.75
958.365	1412.75
958.593	1413.75
958.82	1385.75
959.048	1452.75
959.275	1394.75
959.502	1394.75
959.73	1378.75
959.957	1418.75
960.184	1464.75
960.411	1411.75
960.638	1504.75
960.865	1441.75
961.092	1455.75
961.319	1339.75
961.546	1468.75
961.773	1443.75
962	1421.75
962.227	1427.75
962.454	1421.75
962.68	1371.75
962.907	1403.75
963.134	1375.75
963.36	1398.75
963.587	1413.75
963.813	1381.75
964.04	1427.75
964.266	1329.75
964.493	1433.75
964.719	1408.75
964.945	1402.75
965.171	1303.75
965.398	1369.75
965.624	1384.75
965.85	1330.75
966.076	1322.75
966.302	1370.75
966.528	1342.75
966.754	1387.75
966.98	1353.75
967.206	1373.75
967.431	1274.75
967.657	1379.75
967.883	1376.75
968.109	1344.75
968.334	1299.75
968.56	1305.75
968.785	1289.75
969.011	1251.75
969.236	1340.75
969.462	1282.75
969.687	1306.75
969.912	1374.75
970.138	1379.75
970.363	1258.75
970.588	1324.75
970.813	1287.75
971.038	1275.75
971.263	1297.75
971.488	1337.75
971.713	1357.75
971.938	1351.75
972.163	1239.75
972.388	1253.75
972.613	1272.75
972.838	1253.75
973.062	1218.75
973.287	1259.75
973.512	1178.75
973.736	1243.75
973.961	1228.75
974.185	1244.75
974.41	1260.75
974.634	1178.75
974.858	1203.75
975.083	1235.75
975.307	1257.75
975.531	1197.75
975.755	1164.75
975.98	1180.75
976.204	1133.75
976.428	1147.75
976.652	1158.75
976.876	1128.75
977.1	1152.75
977.324	1125.75
977.547	1178.75
977.771	1177.75
977.995	1161.75
978.219	1118.75
978.442	1225.75
978.666	1157.75
978.89	1153.75
979.113	1166.75
979.337	1145.75
979.56	1103.75
979.783	1228.75
980.007	1098.75
980.23	1161.75
980.453	1107.75
980.677	1140.75
980.9	1141.75
981.123	1057.75
981.346	1181.75
981.569	1139.75
981.792	1153.75
982.015	1117.75
982.238	1122.75
982.461	1107.75
982.684	1086.75
982.907	1070.75
983.129	1058.75
983.352	1104.75
983.575	1087.75
983.797	1146.75
984.02	1096.75
984.242	1084.75
984.465	1083.75
984.687	1122.75
984.91	1145.75
985.132	1098.75
985.354	1127.75
985.577	1095.75
985.799	1117.75
986.021	1038.75
986.243	1060.75
986.465	1082.75
986.687	1109.75
986.909	1153.75
987.131	1103.75
987.353	1067.75
987.575	1105.75
987.797	1067.75
988.019	1020.75
988.241	1078.75
988.462	1052.75
988.684	1126.75
988.906	1122.75
989.127	1144.75
989.349	1024.75
989.57	1072.75
989.792	1115.75
990.013	1125.75
990.234	1124.75
990.456	1160.75
990.677	1121.75
990.898	1077.75
991.119	1086.75
991.341	1114.75
991.562	1057.75
991.783	1093.75
992.004	1024.75
992.225	1012.75
992.446	1092.75
992.667	1003.75
992.887	1104.75
993.108	977.75
993.329	1145.75
993.55	1081.75
993.77	1028.75
993.991	1035.75
994.212	1065.75
994.432	1071.75
994.653	1069.75
994.873	1041.75
995.093	963.75
995.314	1018.75
995.534	1088.75
995.754	1092.75
995.975	1095.75
996.195	1035.75
996.415	1062.75
996.635	1047.75
996.855	1057.75
997.075	1045.75
997.295	1047.75
997.515	1006.75
997.735	1060.75
997.955	1045.75
998.174	1020.75
998.394	1016.75
998.614	1067.75
998.834	1013.75
999.053	1085.75
999.273	1079.75
999.492	1112.75
999.712	1068.75
999.931	1040.75
1000.151	1080.75
1000.37	1052.75
1000.589	1113.75
1000.809	1053.75
1001.028	1136.75
1001.247	1100.75
1001.466	979.75
1001.685	1135.75
1001.904	1076.75
1002.123	1063.75
1002.342	1082.75
1002.561	1039.75
1002.78	1068.75
1002.999	1106.75
1003.218	1076.75
1003.436	1071.75
1003.655	1117.75
1003.874	1033.75
1004.092	1087.75
1004.311	1094.75
1004.53	1073.75
1004.748	1156.75
1004.966	1069.75
1005.185	1137.75
1005.403	1129.75
1005.622	1100.75
1005.84	1163.75
1006.058	1070.75
1006.276	1089.75
1006.494	1608.75
1006.712	1100.75
1006.931	1177.75
1007.149	1072.75
1007.367	1091.75
1007.584	1111.75
1007.802	1156.75
1008.02	1102.75
1008.238	1205.75
1008.456	1166.75
1008.673	1054.75
1008.891	1162.75
1009.109	1122.75
1009.326	1174.75
1009.544	1266.75
1009.761	1163.75
1009.979	1262.75
1010.196	1248.75
1010.413	1334.75
1010.631	1384.75
1010.848	1407.75
1011.065	1414.75
1011.282	1369.75
1011.5	1334.75
1011.717	1418.75
1011.934	1358.75
1012.151	1403.75
1012.368	1405.75
1012.585	1349.75
1012.801	1364.75
1013.018	1363.75
1013.235	1331.75
1013.452	1346.75
1013.669	1353.75
1013.885	1347.75
1014.102	1372.75
1014.318	1353.75
1014.535	1321.75
1014.751	1376.75
1014.968	1316.75
1015.184	1380.75
1015.401	1313.75
1015.617	1351.75
1015.833	1275.75
1016.049	1303.75
1016.266	1257.75
1016.482	1294.75
1016.698	1214.75
1016.914	1290.75
1017.13	1229.75
1017.346	1269.75
1017.562	1312.75
1017.778	1240.75
1017.993	1199.75
1018.209	1258.75
1018.425	1260.75
1018.641	1235.75
1018.856	1204.75
1019.072	1227.75
1019.288	1277.75
1019.503	1249.75
1019.719	1147.75
1019.934	1182.75
1020.149	1273.75
1020.365	1207.75
1020.58	1144.75
1020.795	1185.75
1021.011	1104.75
1021.226	1123.75
1021.441	1130.75
1021.656	1072.75
1021.871	1041.75
1022.086	1015.75
1022.301	1007.75
1022.516	997.75
1022.731	1071.75
1022.946	996.75
1023.16	962.75
1023.375	926.75
1023.59	946.75
1023.804	904.75
1024.019	983.75
1024.234	886.75
1024.448	903.75
1024.663	836.75
1024.877	832.75
1025.092	866.75
1025.306	903.75
1025.52	821.75
1025.734	892.75
1025.949	806.75
1026.163	772.75
1026.377	732.75
1026.591	788.75
1026.805	720.75
1027.019	719.75
1027.233	692.75
1027.447	647.75
1027.661	741.75
1027.875	666.75
1028.088	686.75
1028.302	607.75
1028.516	627.75
1028.73	624.75
1028.943	615.75
1029.157	556.75
1029.37	551.75
1029.584	-1.25
1029.797	-0.25
1030.011	-1.25
1030.224	1.75
