Data from QEP037381__286__11-08-16-590.txt Node

Date: Wed Dec 21 11:08:16 EST 2022
User: dcclab
Spectrometer: QEP03738
Trigger mode: 4
Integration Time (sec): 1.000000E1
Scans to average: 1
Electric dark correction enabled: true
Nonlinearity correction enabled: false
Boxcar width: 0
XAxis mode: Wavelengths
Number of Pixels in Spectrum: 1044
>>>>>Begin Spectral Data<<<<<
784.041	13.38
784.3	0.38
784.558	-5.62
784.817	-3.62
785.075	98262.38
785.334	17064.38
785.592	8097.38
785.851	5554.38
786.109	4228.38
786.368	3286.38
786.626	2659.38
786.884	2194.38
787.143	1827.38
787.401	1530.38
787.659	1352.38
787.917	1148.38
788.175	1054.38
788.433	914.38
788.691	843.38
788.949	751.38
789.207	728.38
789.465	628.38
789.723	605.38
789.98	549.38
790.238	577.38
790.496	539.38
790.753	516.38
791.011	580.38
791.268	497.38
791.526	478.38
791.783	501.38
792.041	478.38
792.298	398.38
792.556	463.38
792.813	452.38
793.07	424.38
793.327	409.38
793.584	491.38
793.841	400.38
794.099	429.38
794.356	483.38
794.613	382.38
794.869	423.38
795.126	389.38
795.383	381.38
795.64	390.38
795.897	343.38
796.153	399.38
796.41	395.38
796.667	363.38
796.923	381.38
797.18	373.38
797.436	402.38
797.693	358.38
797.949	412.38
798.206	437.38
798.462	348.38
798.718	391.38
798.974	369.38
799.231	411.38
799.487	402.38
799.743	398.38
799.999	413.38
800.255	411.38
800.511	383.38
800.767	416.38
801.023	382.38
801.279	409.38
801.534	422.38
801.79	433.38
802.046	413.38
802.302	474.38
802.557	477.38
802.813	537.38
803.068	523.38
803.324	662.38
803.579	765.38
803.835	968.38
804.09	1296.38
804.345	1599.38
804.601	1981.38
804.856	2395.38
805.111	2756.38
805.366	2992.38
805.621	3166.38
805.876	3285.38
806.131	3366.38
806.386	3381.38
806.641	3383.38
806.896	3472.38
807.151	3599.38
807.406	3586.38
807.661	3680.38
807.915	3703.38
808.17	3838.38
808.425	3874.38
808.679	3885.38
808.934	4015.38
809.188	3983.38
809.443	4112.38
809.697	4147.38
809.951	4144.38
810.206	4196.38
810.46	4294.38
810.714	4325.38
810.968	4340.38
811.223	4280.38
811.477	4423.38
811.731	4412.38
811.985	4397.38
812.239	4384.38
812.493	4421.38
812.747	4497.38
813	4432.38
813.254	4542.38
813.508	4580.38
813.762	4535.38
814.015	4589.38
814.269	4649.38
814.522	4694.38
814.776	4757.38
815.03	4826.38
815.283	4871.38
815.536	5021.38
815.79	5055.38
816.043	5154.38
816.296	5151.38
816.55	5250.38
816.803	5303.38
817.056	5487.38
817.309	5420.38
817.562	5560.38
817.815	5623.38
818.068	5573.38
818.321	5683.38
818.574	5749.38
818.827	5850.38
819.079	5902.38
819.332	6103.38
819.585	6102.38
819.838	6278.38
820.09	6224.38
820.343	6323.38
820.595	6264.38
820.848	6395.38
821.1	6445.38
821.353	6399.38
821.605	6433.38
821.857	6416.38
822.11	6327.38
822.362	6354.38
822.614	6346.38
822.866	6377.38
823.118	6390.38
823.37	6516.38
823.622	6468.38
823.874	6489.38
824.126	6530.38
824.378	6499.38
824.63	6534.38
824.882	6619.38
825.134	6619.38
825.385	6566.38
825.637	6507.38
825.888	6446.38
826.14	6488.38
826.392	6459.38
826.643	6339.38
826.895	6434.38
827.146	6354.38
827.397	6305.38
827.649	6372.38
827.9	6400.38
828.151	6357.38
828.402	6375.38
828.653	6358.38
828.905	6450.38
829.156	6457.38
829.407	6386.38
829.658	6460.38
829.909	6445.38
830.159	6495.38
830.41	6493.38
830.661	6433.38
830.912	6371.38
831.162	6380.38
831.413	6417.38
831.664	6471.38
831.914	6427.38
832.165	6411.38
832.415	6401.38
832.666	6496.38
832.916	6443.38
833.167	6354.38
833.417	6475.38
833.667	6424.38
833.917	6426.38
834.168	6443.38
834.418	6365.38
834.668	6371.38
834.918	6335.38
835.168	6350.38
835.418	6263.38
835.668	6305.38
835.918	6294.38
836.167	6273.38
836.417	6204.38
836.667	6281.38
836.917	6296.38
837.166	6215.38
837.416	6236.38
837.666	6230.38
837.915	6206.38
838.165	6170.38
838.414	6157.38
838.663	6097.38
838.913	6210.38
839.162	6152.38
839.411	6244.38
839.661	6154.38
839.91	6210.38
840.159	6139.38
840.408	6221.38
840.657	6222.38
840.906	6198.38
841.155	6275.38
841.404	6209.38
841.653	6239.38
841.902	6180.38
842.15	6266.38
842.399	6283.38
842.648	6258.38
842.897	6285.38
843.145	6189.38
843.394	6157.38
843.642	6137.38
843.891	6136.38
844.139	6037.38
844.388	5993.38
844.636	5962.38
844.884	6017.38
845.133	5975.38
845.381	5966.38
845.629	6008.38
845.877	5988.38
846.125	5944.38
846.373	6001.38
846.621	5948.38
846.869	5994.38
847.117	5956.38
847.365	5881.38
847.613	5872.38
847.861	5912.38
848.108	5941.38
848.356	5876.38
848.604	5885.38
848.851	5951.38
849.099	5912.38
849.346	5975.38
849.594	6057.38
849.841	6056.38
850.089	6096.38
850.336	6095.38
850.583	6197.38
850.831	6181.38
851.078	6182.38
851.325	6245.38
851.572	6272.38
851.819	6177.38
852.066	5889.38
852.313	5737.38
852.56	5710.38
852.807	5646.38
853.054	5641.38
853.301	5706.38
853.548	5744.38
853.794	5782.38
854.041	5850.38
854.288	5799.38
854.534	5955.38
854.781	5876.38
855.028	5864.38
855.274	5880.38
855.52	5856.38
855.767	5800.38
856.013	5900.38
856.26	6091.38
856.506	5808.38
856.752	5765.38
856.998	5728.38
857.244	5780.38
857.49	5814.38
857.736	5845.38
857.982	5848.38
858.228	5829.38
858.474	5710.38
858.72	5743.38
858.966	5681.38
859.212	5685.38
859.458	5578.38
859.703	5501.38
859.949	5447.38
860.195	5463.38
860.44	5423.38
860.686	5328.38
860.931	5446.38
861.177	5330.38
861.422	5332.38
861.667	5288.38
861.913	5302.38
862.158	5334.38
862.403	5399.38
862.648	5360.38
862.893	5392.38
863.138	5377.38
863.384	5383.38
863.629	5364.38
863.873	5341.38
864.118	5377.38
864.363	5317.38
864.608	5336.38
864.853	5318.38
865.098	5269.38
865.342	5271.38
865.587	5228.38
865.832	5268.38
866.076	5275.38
866.321	5181.38
866.565	5177.38
866.81	5100.38
867.054	5160.38
867.298	5180.38
867.543	5170.38
867.787	5190.38
868.031	5194.38
868.275	5195.38
868.519	5226.38
868.764	5194.38
869.008	5211.38
869.252	5211.38
869.496	5182.38
869.739	5221.38
869.983	5204.38
870.227	5220.38
870.471	5209.38
870.715	5300.38
870.958	5323.38
871.202	5317.38
871.446	5267.38
871.689	5264.38
871.933	5264.38
872.176	5287.38
872.42	5292.38
872.663	5262.38
872.906	5293.38
873.15	5288.38
873.393	5173.38
873.636	5349.38
873.879	5209.38
874.122	5218.38
874.366	5124.38
874.609	5085.38
874.852	5006.38
875.095	5071.38
875.337	4973.38
875.58	4876.38
875.823	4910.38
876.066	4953.38
876.309	4974.38
876.551	4834.38
876.794	4837.38
877.037	4894.38
877.279	4820.38
877.522	4839.38
877.764	4863.38
878.007	4801.38
878.249	4811.38
878.491	4815.38
878.734	4844.38
878.976	4831.38
879.218	4738.38
879.46	4752.38
879.702	4721.38
879.945	4655.38
880.187	4651.38
880.429	4650.38
880.671	4575.38
880.912	4590.38
881.154	4576.38
881.396	4497.38
881.638	4558.38
881.88	4550.38
882.121	4519.38
882.363	4520.38
882.605	4643.38
882.846	4614.38
883.088	4609.38
883.329	4566.38
883.571	4610.38
883.812	4681.38
884.053	4807.38
884.295	5000.38
884.536	5126.38
884.777	5045.38
885.018	4989.38
885.259	5025.38
885.5	4936.38
885.742	5187.38
885.982	4929.38
886.223	4847.38
886.464	4781.38
886.705	4746.38
886.946	4677.38
887.187	4588.38
887.428	4526.38
887.668	4432.38
887.909	4333.38
888.15	4276.38
888.39	4336.38
888.631	4275.38
888.871	4277.38
889.111	4236.38
889.352	4186.38
889.592	4117.38
889.833	4081.38
890.073	4079.38
890.313	4136.38
890.553	4021.38
890.793	3994.38
891.033	3966.38
891.273	3974.38
891.513	3987.38
891.753	4062.38
891.993	3985.38
892.233	4016.38
892.473	4047.38
892.713	4022.38
892.952	3988.38
893.192	4044.38
893.432	4035.38
893.671	4135.38
893.911	4044.38
894.15	4020.38
894.39	3943.38
894.629	3925.38
894.869	3970.38
895.108	3922.38
895.347	3903.38
895.587	3944.38
895.826	3915.38
896.065	3886.38
896.304	3937.38
896.543	3933.38
896.782	3845.38
897.021	3963.38
897.26	3968.38
897.499	4015.38
897.738	3986.38
897.977	3930.38
898.216	3901.38
898.454	3918.38
898.693	3872.38
898.932	3885.38
899.17	3854.38
899.409	3889.38
899.647	3884.38
899.886	3896.38
900.124	3923.38
900.363	3842.38
900.601	3900.38
900.839	3952.38
901.078	3919.38
901.316	3965.38
901.554	4023.38
901.792	4100.38
902.03	4066.38
902.268	4071.38
902.506	4102.38
902.744	4022.38
902.982	4030.38
903.22	3888.38
903.458	3825.38
903.695	3807.38
903.933	3724.38
904.171	3630.38
904.409	3544.38
904.646	3588.38
904.884	3447.38
905.121	3492.38
905.359	3392.38
905.596	3357.38
905.833	3280.38
906.071	3259.38
906.308	3343.38
906.545	3325.38
906.783	3252.38
907.02	3291.38
907.257	3182.38
907.494	3261.38
907.731	3262.38
907.968	3231.38
908.205	3191.38
908.442	3209.38
908.679	3155.38
908.915	3128.38
909.152	3132.38
909.389	3018.38
909.626	3057.38
909.862	3037.38
910.099	3028.38
910.335	3074.38
910.572	2970.38
910.808	3038.38
911.045	2958.38
911.281	2982.38
911.518	3069.38
911.754	2953.38
911.99	2975.38
912.226	2936.38
912.463	2859.38
912.699	2897.38
912.935	2867.38
913.171	2831.38
913.407	2827.38
913.643	2882.38
913.879	2826.38
914.114	2799.38
914.35	2753.38
914.586	2761.38
914.822	2698.38
915.057	2756.38
915.293	2621.38
915.529	2636.38
915.764	2706.38
916	2706.38
916.235	2692.38
916.471	2711.38
916.706	2610.38
916.941	2654.38
917.177	2631.38
917.412	2681.38
917.647	2673.38
917.882	2643.38
918.117	2689.38
918.352	2641.38
918.588	2679.38
918.823	2615.38
919.057	2602.38
919.292	2523.38
919.527	2629.38
919.762	2511.38
919.997	2591.38
920.232	2505.38
920.466	2537.38
920.701	2401.38
920.935	2513.38
921.17	2442.38
921.405	2404.38
921.639	2458.38
921.873	2419.38
922.108	2401.38
922.342	2465.38
922.576	2388.38
922.811	2365.38
923.045	2420.38
923.279	2431.38
923.513	2304.38
923.747	2428.38
923.981	2329.38
924.215	2345.38
924.449	2349.38
924.683	2311.38
924.917	2303.38
925.151	2302.38
925.385	2361.38
925.618	2303.38
925.852	2333.38
926.086	2249.38
926.319	2298.38
926.553	2295.38
926.786	2309.38
927.02	2267.38
927.253	2349.38
927.486	2343.38
927.72	2246.38
927.953	2330.38
928.186	2272.38
928.42	2304.38
928.653	2234.38
928.886	2225.38
929.119	2277.38
929.352	2289.38
929.585	2281.38
929.818	2206.38
930.051	2211.38
930.284	2230.38
930.516	2138.38
930.749	2164.38
930.982	2224.38
931.215	2208.38
931.447	2126.38
931.68	2153.38
931.912	2125.38
932.145	2162.38
932.377	2148.38
932.61	2286.38
932.842	2094.38
933.074	2191.38
933.307	2136.38
933.539	2254.38
933.771	2279.38
934.003	2268.38
934.236	2402.38
934.468	2475.38
934.7	2460.38
934.932	2466.38
935.164	2376.38
935.395	2312.38
935.627	2277.38
935.859	2228.38
936.091	2111.38
936.323	2179.38
936.554	2214.38
936.786	2167.38
937.017	2130.38
937.249	2139.38
937.481	2085.38
937.712	2157.38
937.943	2179.38
938.175	2141.38
938.406	2167.38
938.637	2221.38
938.869	2114.38
939.1	2255.38
939.331	2224.38
939.562	2298.38
939.793	2433.38
940.024	2946.38
940.255	3679.38
940.486	4136.38
940.717	4084.38
940.948	3671.38
941.179	3197.38
941.409	2768.38
941.64	2496.38
941.871	2279.38
942.102	2192.38
942.332	2158.38
942.563	2143.38
942.793	2101.38
943.024	2044.38
943.254	2108.38
943.484	2127.38
943.715	2129.38
943.945	2117.38
944.175	2024.38
944.405	1995.38
944.636	1992.38
944.866	2058.38
945.096	2098.38
945.326	1978.38
945.556	2076.38
945.786	2069.38
946.016	2034.38
946.245	1972.38
946.475	1988.38
946.705	1968.38
946.935	1980.38
947.164	2016.38
947.394	1943.38
947.624	1955.38
947.853	2019.38
948.083	1976.38
948.312	1901.38
948.542	1909.38
948.771	1858.38
949	1891.38
949.23	1899.38
949.459	1923.38
949.688	1983.38
949.917	1907.38
950.146	1953.38
950.375	1977.38
950.604	1932.38
950.833	1966.38
951.062	1951.38
951.291	1935.38
951.52	1898.38
951.749	1910.38
951.978	1918.38
952.206	1895.38
952.435	1888.38
952.664	1938.38
952.892	1917.38
953.121	1902.38
953.349	1929.38
953.578	1923.38
953.806	1878.38
954.035	1830.38
954.263	1876.38
954.491	1823.38
954.719	1886.38
954.948	1822.38
955.176	1808.38
955.404	1761.38
955.632	1860.38
955.86	1834.38
956.088	1803.38
956.316	1842.38
956.544	1869.38
956.772	1799.38
956.999	1777.38
957.227	1872.38
957.455	1785.38
957.683	1786.38
957.91	1783.38
958.138	1755.38
958.365	1749.38
958.593	1760.38
958.82	1697.38
959.048	1767.38
959.275	1749.38
959.502	1741.38
959.73	1706.38
959.957	1798.38
960.184	1818.38
960.411	1733.38
960.638	1807.38
960.865	1753.38
961.092	1759.38
961.319	1673.38
961.546	1760.38
961.773	1754.38
962	1740.38
962.227	1766.38
962.454	1744.38
962.68	1729.38
962.907	1749.38
963.134	1688.38
963.36	1705.38
963.587	1714.38
963.813	1703.38
964.04	1689.38
964.266	1661.38
964.493	1737.38
964.719	1716.38
964.945	1718.38
965.171	1619.38
965.398	1686.38
965.624	1687.38
965.85	1617.38
966.076	1600.38
966.302	1679.38
966.528	1622.38
966.754	1642.38
966.98	1661.38
967.206	1628.38
967.431	1574.38
967.657	1661.38
967.883	1637.38
968.109	1628.38
968.334	1562.38
968.56	1590.38
968.785	1598.38
969.011	1549.38
969.236	1603.38
969.462	1543.38
969.687	1561.38
969.912	1643.38
970.138	1658.38
970.363	1577.38
970.588	1563.38
970.813	1573.38
971.038	1545.38
971.263	1613.38
971.488	1584.38
971.713	1617.38
971.938	1622.38
972.163	1495.38
972.388	1549.38
972.613	1526.38
972.838	1556.38
973.062	1523.38
973.287	1554.38
973.512	1494.38
973.736	1523.38
973.961	1494.38
974.185	1491.38
974.41	1534.38
974.634	1444.38
974.858	1444.38
975.083	1497.38
975.307	1516.38
975.531	1457.38
975.755	1386.38
975.98	1424.38
976.204	1391.38
976.428	1388.38
976.652	1394.38
976.876	1386.38
977.1	1435.38
977.324	1365.38
977.547	1434.38
977.771	1430.38
977.995	1428.38
978.219	1349.38
978.442	1482.38
978.666	1397.38
978.89	1422.38
979.113	1397.38
979.337	1423.38
979.56	1334.38
979.783	1467.38
980.007	1349.38
980.23	1389.38
980.453	1333.38
980.677	1391.38
980.9	1363.38
981.123	1296.38
981.346	1392.38
981.569	1388.38
981.792	1404.38
982.015	1353.38
982.238	1349.38
982.461	1355.38
982.684	1325.38
982.907	1317.38
983.129	1316.38
983.352	1358.38
983.575	1321.38
983.797	1347.38
984.02	1304.38
984.242	1291.38
984.465	1302.38
984.687	1372.38
984.91	1380.38
985.132	1335.38
985.354	1366.38
985.577	1326.38
985.799	1325.38
986.021	1235.38
986.243	1271.38
986.465	1275.38
986.687	1356.38
986.909	1378.38
987.131	1326.38
987.353	1287.38
987.575	1317.38
987.797	1292.38
988.019	1206.38
988.241	1282.38
988.462	1266.38
988.684	1285.38
988.906	1323.38
989.127	1355.38
989.349	1240.38
989.57	1255.38
989.792	1293.38
990.013	1298.38
990.234	1315.38
990.456	1356.38
990.677	1341.38
990.898	1282.38
991.119	1311.38
991.341	1296.38
991.562	1222.38
991.783	1283.38
992.004	1228.38
992.225	1207.38
992.446	1306.38
992.667	1188.38
992.887	1251.38
993.108	1172.38
993.329	1291.38
993.55	1267.38
993.77	1187.38
993.991	1210.38
994.212	1237.38
994.432	1242.38
994.653	1256.38
994.873	1238.38
995.093	1130.38
995.314	1213.38
995.534	1279.38
995.754	1266.38
995.975	1273.38
996.195	1210.38
996.415	1244.38
996.635	1202.38
996.855	1239.38
997.075	1221.38
997.295	1204.38
997.515	1202.38
997.735	1249.38
997.955	1236.38
998.174	1222.38
998.394	1183.38
998.614	1216.38
998.834	1203.38
999.053	1272.38
999.273	1233.38
999.492	1278.38
999.712	1203.38
999.931	1178.38
1000.151	1230.38
1000.37	1210.38
1000.589	1280.38
1000.809	1182.38
1001.028	1296.38
1001.247	1268.38
1001.466	1141.38
1001.685	1291.38
1001.904	1244.38
1002.123	1216.38
1002.342	1223.38
1002.561	1209.38
1002.78	1229.38
1002.999	1285.38
1003.218	1223.38
1003.436	1218.38
1003.655	1236.38
1003.874	1206.38
1004.092	1210.38
1004.311	1258.38
1004.53	1246.38
1004.748	1286.38
1004.966	1239.38
1005.185	1269.38
1005.403	1262.38
1005.622	1257.38
1005.84	1340.38
1006.058	1259.38
1006.276	1261.38
1006.494	1736.38
1006.712	1266.38
1006.931	1351.38
1007.149	1207.38
1007.367	1228.38
1007.584	1284.38
1007.802	1294.38
1008.02	1263.38
1008.238	1345.38
1008.456	1353.38
1008.673	1225.38
1008.891	1367.38
1009.109	1299.38
1009.326	1370.38
1009.544	1436.38
1009.761	1366.38
1009.979	1463.38
1010.196	1462.38
1010.413	1588.38
1010.631	1619.38
1010.848	1676.38
1011.065	1680.38
1011.282	1636.38
1011.5	1594.38
1011.717	1678.38
1011.934	1635.38
1012.151	1662.38
1012.368	1653.38
1012.585	1594.38
1012.801	1652.38
1013.018	1626.38
1013.235	1587.38
1013.452	1636.38
1013.669	1645.38
1013.885	1635.38
1014.102	1650.38
1014.318	1650.38
1014.535	1606.38
1014.751	1630.38
1014.968	1643.38
1015.184	1662.38
1015.401	1573.38
1015.617	1632.38
1015.833	1565.38
1016.049	1556.38
1016.266	1574.38
1016.482	1583.38
1016.698	1504.38
1016.914	1569.38
1017.13	1508.38
1017.346	1508.38
1017.562	1543.38
1017.778	1532.38
1017.993	1483.38
1018.209	1543.38
1018.425	1540.38
1018.641	1466.38
1018.856	1467.38
1019.072	1480.38
1019.288	1551.38
1019.503	1481.38
1019.719	1403.38
1019.934	1440.38
1020.149	1531.38
1020.365	1461.38
1020.58	1388.38
1020.795	1445.38
1021.011	1385.38
1021.226	1338.38
1021.441	1367.38
1021.656	1286.38
1021.871	1233.38
1022.086	1247.38
1022.301	1217.38
1022.516	1211.38
1022.731	1271.38
1022.946	1158.38
1023.16	1152.38
1023.375	1113.38
1023.59	1120.38
1023.804	1083.38
1024.019	1167.38
1024.234	1057.38
1024.448	1077.38
1024.663	981.38
1024.877	1027.38
1025.092	1029.38
1025.306	1049.38
1025.52	930.38
1025.734	1025.38
1025.949	940.38
1026.163	899.38
1026.377	849.38
1026.591	907.38
1026.805	818.38
1027.019	836.38
1027.233	793.38
1027.447	758.38
1027.661	867.38
1027.875	795.38
1028.088	805.38
1028.302	730.38
1028.516	707.38
1028.73	721.38
1028.943	707.38
1029.157	663.38
1029.37	603.38
1029.584	-1.62
1029.797	-2.62
1030.011	-0.62
1030.224	0.38
