Data from QEP037381__275__11-06-26-589.txt Node

Date: Wed Dec 21 11:06:26 EST 2022
User: dcclab
Spectrometer: QEP03738
Trigger mode: 4
Integration Time (sec): 1.000000E1
Scans to average: 1
Electric dark correction enabled: true
Nonlinearity correction enabled: false
Boxcar width: 0
XAxis mode: Wavelengths
Number of Pixels in Spectrum: 1044
>>>>>Begin Spectral Data<<<<<
784.041	13.25
784.3	-0.75
784.558	-2.75
784.817	-4.75
785.075	95993.25
785.334	16736.25
785.592	7806.25
785.851	5304.25
786.109	4014.25
786.368	3088.25
786.626	2497.25
786.884	2069.25
787.143	1778.25
787.401	1481.25
787.659	1317.25
787.917	1129.25
788.175	1033.25
788.433	913.25
788.691	794.25
788.949	743.25
789.207	718.25
789.465	610.25
789.723	601.25
789.98	546.25
790.238	574.25
790.496	549.25
790.753	518.25
791.011	542.25
791.268	496.25
791.526	467.25
791.783	501.25
792.041	481.25
792.298	386.25
792.556	459.25
792.813	443.25
793.07	427.25
793.327	421.25
793.584	491.25
793.841	409.25
794.099	439.25
794.356	482.25
794.613	372.25
794.869	408.25
795.126	379.25
795.383	365.25
795.64	384.25
795.897	337.25
796.153	388.25
796.41	382.25
796.667	369.25
796.923	368.25
797.18	362.25
797.436	401.25
797.693	343.25
797.949	391.25
798.206	426.25
798.462	344.25
798.718	393.25
798.974	372.25
799.231	408.25
799.487	403.25
799.743	389.25
799.999	408.25
800.255	385.25
800.511	388.25
800.767	395.25
801.023	366.25
801.279	404.25
801.534	411.25
801.79	413.25
802.046	393.25
802.302	467.25
802.557	468.25
802.813	504.25
803.068	472.25
803.324	595.25
803.579	693.25
803.835	842.25
804.09	1088.25
804.345	1362.25
804.601	1621.25
804.856	1952.25
805.111	2233.25
805.366	2393.25
805.621	2531.25
805.876	2629.25
806.131	2646.25
806.386	2701.25
806.641	2727.25
806.896	2757.25
807.151	2909.25
807.406	2872.25
807.661	2922.25
807.915	2936.25
808.17	3032.25
808.425	3047.25
808.679	3057.25
808.934	3157.25
809.188	3150.25
809.443	3204.25
809.697	3229.25
809.951	3199.25
810.206	3263.25
810.46	3375.25
810.714	3359.25
810.968	3431.25
811.223	3366.25
811.477	3432.25
811.731	3470.25
811.985	3422.25
812.239	3393.25
812.493	3468.25
812.747	3515.25
813	3478.25
813.254	3544.25
813.508	3574.25
813.762	3556.25
814.015	3544.25
814.269	3641.25
814.522	3639.25
814.776	3746.25
815.03	3735.25
815.283	3812.25
815.536	3840.25
815.79	3894.25
816.043	3977.25
816.296	4004.25
816.55	4018.25
816.803	4075.25
817.056	4218.25
817.309	4220.25
817.562	4236.25
817.815	4354.25
818.068	4283.25
818.321	4365.25
818.574	4391.25
818.827	4547.25
819.079	4509.25
819.332	4750.25
819.585	4652.25
819.838	4812.25
820.09	4738.25
820.343	4823.25
820.595	4841.25
820.848	4822.25
821.1	4891.25
821.353	4871.25
821.605	4854.25
821.857	4923.25
822.11	4809.25
822.362	4868.25
822.614	4827.25
822.866	4835.25
823.118	4859.25
823.37	4985.25
823.622	4938.25
823.874	4953.25
824.126	5047.25
824.378	4964.25
824.63	4990.25
824.882	5015.25
825.134	4966.25
825.385	4977.25
825.637	4951.25
825.888	4913.25
826.14	4912.25
826.392	4850.25
826.643	4800.25
826.895	4863.25
827.146	4784.25
827.397	4798.25
827.649	4862.25
827.9	4771.25
828.151	4763.25
828.402	4782.25
828.653	4835.25
828.905	4816.25
829.156	4875.25
829.407	4788.25
829.658	4776.25
829.909	4910.25
830.159	4928.25
830.41	4884.25
830.661	4831.25
830.912	4798.25
831.162	4817.25
831.413	4832.25
831.664	4845.25
831.914	4833.25
832.165	4836.25
832.415	4854.25
832.666	4820.25
832.916	4815.25
833.167	4800.25
833.417	4887.25
833.667	4805.25
833.917	4814.25
834.168	4865.25
834.418	4826.25
834.668	4813.25
834.918	4762.25
835.168	4767.25
835.418	4749.25
835.668	4768.25
835.918	4768.25
836.167	4718.25
836.417	4618.25
836.667	4765.25
836.917	4738.25
837.166	4673.25
837.416	4735.25
837.666	4720.25
837.915	4633.25
838.165	4648.25
838.414	4583.25
838.663	4562.25
838.913	4660.25
839.162	4614.25
839.411	4725.25
839.661	4580.25
839.91	4684.25
840.159	4610.25
840.408	4662.25
840.657	4671.25
840.906	4682.25
841.155	4717.25
841.404	4662.25
841.653	4710.25
841.902	4621.25
842.15	4702.25
842.399	4706.25
842.648	4683.25
842.897	4682.25
843.145	4546.25
843.394	4560.25
843.642	4545.25
843.891	4544.25
844.139	4547.25
844.388	4495.25
844.636	4460.25
844.884	4452.25
845.133	4455.25
845.381	4510.25
845.629	4509.25
845.877	4487.25
846.125	4441.25
846.373	4489.25
846.621	4408.25
846.869	4437.25
847.117	4393.25
847.365	4370.25
847.613	4408.25
847.861	4420.25
848.108	4399.25
848.356	4397.25
848.604	4384.25
848.851	4374.25
849.099	4434.25
849.346	4405.25
849.594	4499.25
849.841	4533.25
850.089	4486.25
850.336	4558.25
850.583	4634.25
850.831	4664.25
851.078	4611.25
851.325	4672.25
851.572	4675.25
851.819	4642.25
852.066	4451.25
852.313	4278.25
852.56	4227.25
852.807	4215.25
853.054	4211.25
853.301	4231.25
853.548	4301.25
853.794	4358.25
854.041	4371.25
854.288	4255.25
854.534	4425.25
854.781	4394.25
855.028	4375.25
855.274	4417.25
855.52	4344.25
855.767	4303.25
856.013	4301.25
856.26	4631.25
856.506	4335.25
856.752	4313.25
856.998	4279.25
857.244	4266.25
857.49	4342.25
857.736	4364.25
857.982	4333.25
858.228	4311.25
858.474	4225.25
858.72	4264.25
858.966	4199.25
859.212	4155.25
859.458	4115.25
859.703	4090.25
859.949	4017.25
860.195	4025.25
860.44	4016.25
860.686	3963.25
860.931	4059.25
861.177	3943.25
861.422	3986.25
861.667	3919.25
861.913	3962.25
862.158	3910.25
862.403	4008.25
862.648	4027.25
862.893	4051.25
863.138	4004.25
863.384	3951.25
863.629	3968.25
863.873	3931.25
864.118	3935.25
864.363	3886.25
864.608	3940.25
864.853	3971.25
865.098	3959.25
865.342	3906.25
865.587	3866.25
865.832	3898.25
866.076	3904.25
866.321	3882.25
866.565	3889.25
866.81	3788.25
867.054	3870.25
867.298	3836.25
867.543	3797.25
867.787	3805.25
868.031	3862.25
868.275	3818.25
868.519	3863.25
868.764	3877.25
869.008	3794.25
869.252	3881.25
869.496	3833.25
869.739	3837.25
869.983	3931.25
870.227	3860.25
870.471	3864.25
870.715	3897.25
870.958	3899.25
871.202	3944.25
871.446	3920.25
871.689	3886.25
871.933	3909.25
872.176	3859.25
872.42	3865.25
872.663	3889.25
872.906	3917.25
873.15	3915.25
873.393	3837.25
873.636	3939.25
873.879	3929.25
874.122	3883.25
874.366	3766.25
874.609	3790.25
874.852	3723.25
875.095	3698.25
875.337	3679.25
875.58	3591.25
875.823	3651.25
876.066	3671.25
876.309	3703.25
876.551	3571.25
876.794	3528.25
877.037	3614.25
877.279	3564.25
877.522	3563.25
877.764	3549.25
878.007	3550.25
878.249	3581.25
878.491	3489.25
878.734	3552.25
878.976	3527.25
879.218	3463.25
879.46	3503.25
879.702	3510.25
879.945	3447.25
880.187	3393.25
880.429	3405.25
880.671	3359.25
880.912	3402.25
881.154	3344.25
881.396	3268.25
881.638	3385.25
881.88	3348.25
882.121	3329.25
882.363	3287.25
882.605	3371.25
882.846	3350.25
883.088	3445.25
883.329	3360.25
883.571	3325.25
883.812	3462.25
884.053	3526.25
884.295	3662.25
884.536	3785.25
884.777	3721.25
885.018	3749.25
885.259	3726.25
885.5	3629.25
885.742	3887.25
885.982	3637.25
886.223	3585.25
886.464	3541.25
886.705	3450.25
886.946	3413.25
887.187	3297.25
887.428	3325.25
887.668	3236.25
887.909	3202.25
888.15	3149.25
888.39	3187.25
888.631	3204.25
888.871	3146.25
889.111	3089.25
889.352	3061.25
889.592	3035.25
889.833	3010.25
890.073	3035.25
890.313	3053.25
890.553	2922.25
890.793	2966.25
891.033	2938.25
891.273	2919.25
891.513	2933.25
891.753	2958.25
891.993	2908.25
892.233	2933.25
892.473	3029.25
892.713	2952.25
892.952	2916.25
893.192	2984.25
893.432	2929.25
893.671	3015.25
893.911	2964.25
894.15	2935.25
894.39	2891.25
894.629	2903.25
894.869	2898.25
895.108	2884.25
895.347	2854.25
895.587	2886.25
895.826	2860.25
896.065	2857.25
896.304	2948.25
896.543	2939.25
896.782	2817.25
897.021	2930.25
897.26	2896.25
897.499	2932.25
897.738	2974.25
897.977	2876.25
898.216	2886.25
898.454	2805.25
898.693	2831.25
898.932	2890.25
899.17	2804.25
899.409	2829.25
899.647	2816.25
899.886	2802.25
900.124	2842.25
900.363	2806.25
900.601	2876.25
900.839	2921.25
901.078	2945.25
901.316	2943.25
901.554	2963.25
901.792	2999.25
902.03	2932.25
902.268	2990.25
902.506	3007.25
902.744	2976.25
902.982	2953.25
903.22	2847.25
903.458	2792.25
903.695	2749.25
903.933	2749.25
904.171	2665.25
904.409	2644.25
904.646	2597.25
904.884	2505.25
905.121	2540.25
905.359	2524.25
905.596	2480.25
905.833	2407.25
906.071	2412.25
906.308	2485.25
906.545	2417.25
906.783	2374.25
907.02	2384.25
907.257	2321.25
907.494	2378.25
907.731	2411.25
907.968	2368.25
908.205	2340.25
908.442	2319.25
908.679	2357.25
908.915	2327.25
909.152	2304.25
909.389	2204.25
909.626	2249.25
909.862	2218.25
910.099	2255.25
910.335	2255.25
910.572	2152.25
910.808	2212.25
911.045	2175.25
911.281	2172.25
911.518	2252.25
911.754	2144.25
911.99	2207.25
912.226	2131.25
912.463	2084.25
912.699	2125.25
912.935	2105.25
913.171	2121.25
913.407	2044.25
913.643	2076.25
913.879	2052.25
914.114	2029.25
914.35	2028.25
914.586	2029.25
914.822	1956.25
915.057	2061.25
915.293	1924.25
915.529	1940.25
915.764	2009.25
916	1976.25
916.235	1967.25
916.471	1994.25
916.706	1909.25
916.941	1971.25
917.177	1938.25
917.412	1982.25
917.647	1989.25
917.882	1907.25
918.117	1952.25
918.352	1959.25
918.588	1974.25
918.823	1920.25
919.057	1916.25
919.292	1853.25
919.527	1954.25
919.762	1858.25
919.997	1888.25
920.232	1851.25
920.466	1873.25
920.701	1781.25
920.935	1792.25
921.17	1788.25
921.405	1753.25
921.639	1817.25
921.873	1785.25
922.108	1810.25
922.342	1816.25
922.576	1761.25
922.811	1737.25
923.045	1795.25
923.279	1835.25
923.513	1712.25
923.747	1789.25
923.981	1756.25
924.215	1705.25
924.449	1727.25
924.683	1688.25
924.917	1674.25
925.151	1710.25
925.385	1753.25
925.618	1702.25
925.852	1696.25
926.086	1647.25
926.319	1697.25
926.553	1660.25
926.786	1685.25
927.02	1707.25
927.253	1724.25
927.486	1717.25
927.72	1673.25
927.953	1715.25
928.186	1670.25
928.42	1697.25
928.653	1681.25
928.886	1626.25
929.119	1668.25
929.352	1667.25
929.585	1665.25
929.818	1640.25
930.051	1663.25
930.284	1686.25
930.516	1547.25
930.749	1597.25
930.982	1663.25
931.215	1651.25
931.447	1562.25
931.68	1594.25
931.912	1550.25
932.145	1553.25
932.377	1597.25
932.61	1730.25
932.842	1552.25
933.074	1590.25
933.307	1577.25
933.539	1654.25
933.771	1649.25
934.003	1603.25
934.236	1673.25
934.468	1707.25
934.7	1589.25
934.932	1624.25
935.164	1581.25
935.395	1609.25
935.627	1587.25
935.859	1595.25
936.091	1535.25
936.323	1593.25
936.554	1637.25
936.786	1592.25
937.017	1534.25
937.249	1586.25
937.481	1515.25
937.712	1572.25
937.943	1578.25
938.175	1544.25
938.406	1525.25
938.637	1607.25
938.869	1519.25
939.1	1585.25
939.331	1517.25
939.562	1576.25
939.793	1559.25
940.024	1584.25
940.255	1606.25
940.486	1530.25
940.717	1534.25
940.948	1521.25
941.179	1518.25
941.409	1538.25
941.64	1474.25
941.871	1546.25
942.102	1505.25
942.332	1503.25
942.563	1537.25
942.793	1541.25
943.024	1472.25
943.254	1520.25
943.484	1549.25
943.715	1571.25
943.945	1559.25
944.175	1497.25
944.405	1455.25
944.636	1484.25
944.866	1530.25
945.096	1525.25
945.326	1446.25
945.556	1529.25
945.786	1552.25
946.016	1475.25
946.245	1446.25
946.475	1461.25
946.705	1482.25
946.935	1493.25
947.164	1460.25
947.394	1444.25
947.624	1455.25
947.853	1495.25
948.083	1482.25
948.312	1451.25
948.542	1405.25
948.771	1390.25
949	1400.25
949.23	1428.25
949.459	1415.25
949.688	1491.25
949.917	1421.25
950.146	1427.25
950.375	1489.25
950.604	1410.25
950.833	1488.25
951.062	1494.25
951.291	1391.25
951.52	1395.25
951.749	1425.25
951.978	1376.25
952.206	1381.25
952.435	1384.25
952.664	1429.25
952.892	1447.25
953.121	1404.25
953.349	1448.25
953.578	1448.25
953.806	1421.25
954.035	1348.25
954.263	1390.25
954.491	1365.25
954.719	1405.25
954.948	1331.25
955.176	1352.25
955.404	1327.25
955.632	1344.25
955.86	1385.25
956.088	1351.25
956.316	1391.25
956.544	1397.25
956.772	1344.25
956.999	1305.25
957.227	1452.25
957.455	1333.25
957.683	1354.25
957.91	1327.25
958.138	1326.25
958.365	1314.25
958.593	1315.25
958.82	1276.25
959.048	1348.25
959.275	1313.25
959.502	1304.25
959.73	1287.25
959.957	1313.25
960.184	1376.25
960.411	1311.25
960.638	1383.25
960.865	1292.25
961.092	1346.25
961.319	1238.25
961.546	1315.25
961.773	1346.25
962	1311.25
962.227	1322.25
962.454	1318.25
962.68	1300.25
962.907	1322.25
963.134	1263.25
963.36	1300.25
963.587	1319.25
963.813	1250.25
964.04	1312.25
964.266	1258.25
964.493	1352.25
964.719	1286.25
964.945	1329.25
965.171	1211.25
965.398	1279.25
965.624	1296.25
965.85	1237.25
966.076	1246.25
966.302	1274.25
966.528	1248.25
966.754	1290.25
966.98	1265.25
967.206	1265.25
967.431	1194.25
967.657	1272.25
967.883	1247.25
968.109	1263.25
968.334	1221.25
968.56	1208.25
968.785	1236.25
969.011	1199.25
969.236	1257.25
969.462	1179.25
969.687	1222.25
969.912	1233.25
970.138	1291.25
970.363	1175.25
970.588	1235.25
970.813	1205.25
971.038	1192.25
971.263	1217.25
971.488	1187.25
971.713	1261.25
971.938	1243.25
972.163	1145.25
972.388	1194.25
972.613	1167.25
972.838	1181.25
973.062	1183.25
973.287	1193.25
973.512	1101.25
973.736	1148.25
973.961	1174.25
974.185	1156.25
974.41	1172.25
974.634	1083.25
974.858	1113.25
975.083	1144.25
975.307	1181.25
975.531	1142.25
975.755	1080.25
975.98	1114.25
976.204	1062.25
976.428	1059.25
976.652	1061.25
976.876	1043.25
977.1	1095.25
977.324	1040.25
977.547	1103.25
977.771	1102.25
977.995	1083.25
978.219	1043.25
978.442	1164.25
978.666	1106.25
978.89	1099.25
979.113	1109.25
979.337	1082.25
979.56	1049.25
979.783	1141.25
980.007	1031.25
980.23	1070.25
980.453	1055.25
980.677	1063.25
980.9	1074.25
981.123	1005.25
981.346	1090.25
981.569	1071.25
981.792	1098.25
982.015	1045.25
982.238	1020.25
982.461	1072.25
982.684	1038.25
982.907	1029.25
983.129	989.25
983.352	1072.25
983.575	1036.25
983.797	1055.25
984.02	1003.25
984.242	1027.25
984.465	1024.25
984.687	1061.25
984.91	1067.25
985.132	1048.25
985.354	1081.25
985.577	1059.25
985.799	1026.25
986.021	975.25
986.243	1014.25
986.465	1008.25
986.687	1051.25
986.909	1121.25
987.131	1045.25
987.353	1000.25
987.575	1039.25
987.797	1011.25
988.019	964.25
988.241	1013.25
988.462	979.25
988.684	1041.25
988.906	1091.25
989.127	1102.25
989.349	961.25
989.57	1037.25
989.792	1072.25
990.013	1081.25
990.234	1070.25
990.456	1079.25
990.677	1081.25
990.898	1036.25
991.119	1009.25
991.341	1053.25
991.562	988.25
991.783	1061.25
992.004	994.25
992.225	1000.25
992.446	1011.25
992.667	939.25
992.887	1046.25
993.108	908.25
993.329	1075.25
993.55	1046.25
993.77	976.25
993.991	987.25
994.212	996.25
994.432	998.25
994.653	1018.25
994.873	996.25
995.093	923.25
995.314	938.25
995.534	1025.25
995.754	1033.25
995.975	1060.25
996.195	955.25
996.415	1012.25
996.635	999.25
996.855	990.25
997.075	986.25
997.295	990.25
997.515	951.25
997.735	1002.25
997.955	1003.25
998.174	974.25
998.394	966.25
998.614	1017.25
998.834	956.25
999.053	1055.25
999.273	1000.25
999.492	1053.25
999.712	1012.25
999.931	971.25
1000.151	1013.25
1000.37	996.25
1000.589	1059.25
1000.809	992.25
1001.028	1104.25
1001.247	1067.25
1001.466	968.25
1001.685	1118.25
1001.904	1045.25
1002.123	1021.25
1002.342	1032.25
1002.561	994.25
1002.78	1008.25
1002.999	1068.25
1003.218	1038.25
1003.436	1022.25
1003.655	1056.25
1003.874	1001.25
1004.092	1033.25
1004.311	1085.25
1004.53	1028.25
1004.748	1130.25
1004.966	1041.25
1005.185	1096.25
1005.403	1080.25
1005.622	1080.25
1005.84	1144.25
1006.058	1037.25
1006.276	1083.25
1006.494	1568.25
1006.712	1068.25
1006.931	1118.25
1007.149	1035.25
1007.367	1048.25
1007.584	1079.25
1007.802	1118.25
1008.02	1076.25
1008.238	1163.25
1008.456	1181.25
1008.673	1033.25
1008.891	1124.25
1009.109	1107.25
1009.326	1147.25
1009.544	1228.25
1009.761	1143.25
1009.979	1241.25
1010.196	1247.25
1010.413	1299.25
1010.631	1355.25
1010.848	1389.25
1011.065	1394.25
1011.282	1319.25
1011.5	1290.25
1011.717	1400.25
1011.934	1322.25
1012.151	1371.25
1012.368	1345.25
1012.585	1314.25
1012.801	1369.25
1013.018	1319.25
1013.235	1306.25
1013.452	1337.25
1013.669	1350.25
1013.885	1305.25
1014.102	1355.25
1014.318	1340.25
1014.535	1286.25
1014.751	1321.25
1014.968	1319.25
1015.184	1375.25
1015.401	1262.25
1015.617	1322.25
1015.833	1261.25
1016.049	1265.25
1016.266	1267.25
1016.482	1270.25
1016.698	1206.25
1016.914	1267.25
1017.13	1214.25
1017.346	1199.25
1017.562	1273.25
1017.778	1214.25
1017.993	1193.25
1018.209	1269.25
1018.425	1252.25
1018.641	1183.25
1018.856	1182.25
1019.072	1208.25
1019.288	1262.25
1019.503	1204.25
1019.719	1133.25
1019.934	1158.25
1020.149	1240.25
1020.365	1174.25
1020.58	1107.25
1020.795	1165.25
1021.011	1114.25
1021.226	1089.25
1021.441	1122.25
1021.656	1053.25
1021.871	978.25
1022.086	993.25
1022.301	1004.25
1022.516	986.25
1022.731	1050.25
1022.946	957.25
1023.16	938.25
1023.375	915.25
1023.59	915.25
1023.804	871.25
1024.019	972.25
1024.234	835.25
1024.448	897.25
1024.663	813.25
1024.877	821.25
1025.092	859.25
1025.306	863.25
1025.52	767.25
1025.734	872.25
1025.949	794.25
1026.163	765.25
1026.377	723.25
1026.591	743.25
1026.805	690.25
1027.019	691.25
1027.233	654.25
1027.447	622.25
1027.661	715.25
1027.875	662.25
1028.088	675.25
1028.302	623.25
1028.516	606.25
1028.73	612.25
1028.943	584.25
1029.157	541.25
1029.37	515.25
1029.584	0.25
1029.797	-1.75
1030.011	-1.75
1030.224	-1.75
