Data from QEP037381__305__11-11-26-590.txt Node

Date: Wed Dec 21 11:11:26 EST 2022
User: dcclab
Spectrometer: QEP03738
Trigger mode: 4
Integration Time (sec): 1.000000E1
Scans to average: 1
Electric dark correction enabled: true
Nonlinearity correction enabled: false
Boxcar width: 0
XAxis mode: Wavelengths
Number of Pixels in Spectrum: 1044
>>>>>Begin Spectral Data<<<<<
784.041	11.88
784.3	-3.12
784.558	-1.12
784.817	-1.12
785.075	100730.88
785.334	17248.88
785.592	7930.88
785.851	5500.88
786.109	4175.88
786.368	3260.88
786.626	2636.88
786.884	2180.88
787.143	1847.88
787.401	1494.88
787.659	1365.88
787.917	1163.88
788.175	1030.88
788.433	924.88
788.691	832.88
788.949	765.88
789.207	739.88
789.465	630.88
789.723	610.88
789.98	552.88
790.238	585.88
790.496	555.88
790.753	509.88
791.011	580.88
791.268	506.88
791.526	485.88
791.783	509.88
792.041	488.88
792.298	402.88
792.556	466.88
792.813	460.88
793.07	425.88
793.327	406.88
793.584	502.88
793.841	417.88
794.099	428.88
794.356	474.88
794.613	390.88
794.869	434.88
795.126	385.88
795.383	370.88
795.64	400.88
795.897	353.88
796.153	396.88
796.41	383.88
796.667	376.88
796.923	368.88
797.18	380.88
797.436	402.88
797.693	359.88
797.949	408.88
798.206	436.88
798.462	351.88
798.718	411.88
798.974	373.88
799.231	418.88
799.487	400.88
799.743	407.88
799.999	420.88
800.255	415.88
800.511	392.88
800.767	425.88
801.023	405.88
801.279	417.88
801.534	430.88
801.79	457.88
802.046	432.88
802.302	489.88
802.557	497.88
802.813	543.88
803.068	574.88
803.324	712.88
803.579	829.88
803.835	1047.88
804.09	1403.88
804.345	1735.88
804.601	2148.88
804.856	2637.88
805.111	3047.88
805.366	3321.88
805.621	3477.88
805.876	3635.88
806.131	3705.88
806.386	3718.88
806.641	3814.88
806.896	3866.88
807.151	4013.88
807.406	3987.88
807.661	4074.88
807.915	4169.88
808.17	4262.88
808.425	4338.88
808.679	4350.88
808.934	4477.88
809.188	4466.88
809.443	4548.88
809.697	4647.88
809.951	4593.88
810.206	4658.88
810.46	4713.88
810.714	4742.88
810.968	4855.88
811.223	4837.88
811.477	4895.88
811.731	4942.88
811.985	4914.88
812.239	4982.88
812.493	4980.88
812.747	5034.88
813	5014.88
813.254	5101.88
813.508	5155.88
813.762	5158.88
814.015	5168.88
814.269	5216.88
814.522	5331.88
814.776	5303.88
815.03	5385.88
815.283	5498.88
815.536	5590.88
815.79	5649.88
816.043	5762.88
816.296	5843.88
816.55	5919.88
816.803	5996.88
817.056	6153.88
817.309	6130.88
817.562	6171.88
817.815	6329.88
818.068	6354.88
818.321	6423.88
818.574	6455.88
818.827	6659.88
819.079	6758.88
819.332	6982.88
819.585	7006.88
819.838	7125.88
820.09	7048.88
820.343	7183.88
820.595	7142.88
820.848	7186.88
821.1	7277.88
821.353	7240.88
821.605	7188.88
821.857	7325.88
822.11	7191.88
822.362	7280.88
822.614	7190.88
822.866	7258.88
823.118	7281.88
823.37	7347.88
823.622	7398.88
823.874	7423.88
824.126	7494.88
824.378	7443.88
824.63	7534.88
824.882	7493.88
825.134	7451.88
825.385	7427.88
825.637	7382.88
825.888	7415.88
826.14	7375.88
826.392	7314.88
826.643	7252.88
826.895	7331.88
827.146	7248.88
827.397	7180.88
827.649	7307.88
827.9	7189.88
828.151	7201.88
828.402	7229.88
828.653	7339.88
828.905	7340.88
829.156	7381.88
829.407	7319.88
829.658	7362.88
829.909	7396.88
830.159	7494.88
830.41	7452.88
830.661	7354.88
830.912	7295.88
831.162	7320.88
831.413	7351.88
831.664	7377.88
831.914	7357.88
832.165	7367.88
832.415	7323.88
832.666	7327.88
832.916	7349.88
833.167	7383.88
833.417	7370.88
833.667	7319.88
833.917	7347.88
834.168	7350.88
834.418	7358.88
834.668	7337.88
834.918	7275.88
835.168	7281.88
835.418	7171.88
835.668	7200.88
835.918	7255.88
836.167	7187.88
836.417	7154.88
836.667	7246.88
836.917	7189.88
837.166	7153.88
837.416	7177.88
837.666	7210.88
837.915	7187.88
838.165	7171.88
838.414	7117.88
838.663	7102.88
838.913	7216.88
839.162	7148.88
839.411	7238.88
839.661	7142.88
839.91	7154.88
840.159	7199.88
840.408	7182.88
840.657	7247.88
840.906	7218.88
841.155	7300.88
841.404	7211.88
841.653	7218.88
841.902	7307.88
842.15	7297.88
842.399	7354.88
842.648	7342.88
842.897	7279.88
843.145	7185.88
843.394	7138.88
843.642	7110.88
843.891	7140.88
844.139	7054.88
844.388	7037.88
844.636	6999.88
844.884	6998.88
845.133	6974.88
845.381	7035.88
845.629	6997.88
845.877	7058.88
846.125	7025.88
846.373	7024.88
846.621	6949.88
846.869	7014.88
847.117	6956.88
847.365	6925.88
847.613	7009.88
847.861	6934.88
848.108	6969.88
848.356	6933.88
848.604	6921.88
848.851	6922.88
849.099	7004.88
849.346	7024.88
849.594	7062.88
849.841	7173.88
850.089	7168.88
850.336	7225.88
850.583	7264.88
850.831	7298.88
851.078	7261.88
851.325	7273.88
851.572	7361.88
851.819	7208.88
852.066	6994.88
852.313	6795.88
852.56	6759.88
852.807	6668.88
853.054	6677.88
853.301	6678.88
853.548	6759.88
853.794	6903.88
854.041	6805.88
854.288	6889.88
854.534	6971.88
854.781	6941.88
855.028	6891.88
855.274	6986.88
855.52	6908.88
855.767	6918.88
856.013	6918.88
856.26	7184.88
856.506	6785.88
856.752	6839.88
856.998	6837.88
857.244	6788.88
857.49	6908.88
857.736	6928.88
857.982	6929.88
858.228	6942.88
858.474	6854.88
858.72	6838.88
858.966	6726.88
859.212	6658.88
859.458	6604.88
859.703	6484.88
859.949	6448.88
860.195	6463.88
860.44	6462.88
860.686	6435.88
860.931	6464.88
861.177	6364.88
861.422	6390.88
861.667	6288.88
861.913	6272.88
862.158	6309.88
862.403	6326.88
862.648	6453.88
862.893	6458.88
863.138	6462.88
863.384	6379.88
863.629	6419.88
863.873	6333.88
864.118	6351.88
864.363	6312.88
864.608	6386.88
864.853	6307.88
865.098	6262.88
865.342	6256.88
865.587	6233.88
865.832	6292.88
866.076	6280.88
866.321	6239.88
866.565	6220.88
866.81	6176.88
867.054	6225.88
867.298	6203.88
867.543	6233.88
867.787	6279.88
868.031	6185.88
868.275	6211.88
868.519	6253.88
868.764	6265.88
869.008	6296.88
869.252	6325.88
869.496	6244.88
869.739	6289.88
869.983	6357.88
870.227	6380.88
870.471	6328.88
870.715	6375.88
870.958	6440.88
871.202	6351.88
871.446	6472.88
871.689	6443.88
871.933	6369.88
872.176	6416.88
872.42	6450.88
872.663	6368.88
872.906	6453.88
873.15	6469.88
873.393	6358.88
873.636	6456.88
873.879	6347.88
874.122	6285.88
874.366	6170.88
874.609	6224.88
874.852	6080.88
875.095	6070.88
875.337	6056.88
875.58	5987.88
875.823	6019.88
876.066	6071.88
876.309	6060.88
876.551	5887.88
876.794	5906.88
877.037	5949.88
877.279	5934.88
877.522	5880.88
877.764	5931.88
878.007	5883.88
878.249	5890.88
878.491	5840.88
878.734	5888.88
878.976	5832.88
879.218	5821.88
879.46	5809.88
879.702	5729.88
879.945	5697.88
880.187	5638.88
880.429	5655.88
880.671	5609.88
880.912	5647.88
881.154	5583.88
881.396	5460.88
881.638	5529.88
881.88	5629.88
882.121	5628.88
882.363	5589.88
882.605	5703.88
882.846	5673.88
883.088	5661.88
883.329	5656.88
883.571	5680.88
883.812	5781.88
884.053	5930.88
884.295	6106.88
884.536	6325.88
884.777	6244.88
885.018	6236.88
885.259	6240.88
885.5	6140.88
885.742	6338.88
885.982	6181.88
886.223	6021.88
886.464	5953.88
886.705	5856.88
886.946	5763.88
887.187	5659.88
887.428	5545.88
887.668	5400.88
887.909	5336.88
888.15	5242.88
888.39	5309.88
888.631	5339.88
888.871	5204.88
889.111	5147.88
889.352	5135.88
889.592	5078.88
889.833	5041.88
890.073	4964.88
890.313	5081.88
890.553	4909.88
890.793	4901.88
891.033	4943.88
891.273	4869.88
891.513	4923.88
891.753	4945.88
891.993	4916.88
892.233	4964.88
892.473	4976.88
892.713	4938.88
892.952	4960.88
893.192	5012.88
893.432	4924.88
893.671	4974.88
893.911	4935.88
894.15	4928.88
894.39	4833.88
894.629	4900.88
894.869	4911.88
895.108	4874.88
895.347	4802.88
895.587	4832.88
895.826	4861.88
896.065	4827.88
896.304	4863.88
896.543	4855.88
896.782	4798.88
897.021	4796.88
897.26	4879.88
897.499	4898.88
897.738	4994.88
897.977	4866.88
898.216	4849.88
898.454	4865.88
898.693	4767.88
898.932	4776.88
899.17	4740.88
899.409	4730.88
899.647	4799.88
899.886	4771.88
900.124	4859.88
900.363	4757.88
900.601	4881.88
900.839	4925.88
901.078	4932.88
901.316	5046.88
901.554	5059.88
901.792	5152.88
902.03	5130.88
902.268	5197.88
902.506	5171.88
902.744	5077.88
902.982	5033.88
903.22	4886.88
903.458	4756.88
903.695	4733.88
903.933	4614.88
904.171	4448.88
904.409	4450.88
904.646	4436.88
904.884	4345.88
905.121	4296.88
905.359	4233.88
905.596	4201.88
905.833	4075.88
906.071	4102.88
906.308	4095.88
906.545	4106.88
906.783	4037.88
907.02	4027.88
907.257	3991.88
907.494	3999.88
907.731	4022.88
907.968	3972.88
908.205	3963.88
908.442	3909.88
908.679	3951.88
908.915	3900.88
909.152	3902.88
909.389	3804.88
909.626	3830.88
909.862	3730.88
910.099	3748.88
910.335	3745.88
910.572	3705.88
910.808	3737.88
911.045	3675.88
911.281	3650.88
911.518	3704.88
911.754	3666.88
911.99	3648.88
912.226	3628.88
912.463	3621.88
912.699	3573.88
912.935	3556.88
913.171	3553.88
913.407	3504.88
913.643	3560.88
913.879	3499.88
914.114	3446.88
914.35	3457.88
914.586	3400.88
914.822	3353.88
915.057	3444.88
915.293	3301.88
915.529	3273.88
915.764	3352.88
916	3309.88
916.235	3355.88
916.471	3339.88
916.706	3267.88
916.941	3302.88
917.177	3295.88
917.412	3326.88
917.647	3317.88
917.882	3294.88
918.117	3291.88
918.352	3328.88
918.588	3345.88
918.823	3247.88
919.057	3208.88
919.292	3114.88
919.527	3242.88
919.762	3155.88
919.997	3211.88
920.232	3116.88
920.466	3144.88
920.701	2975.88
920.935	3089.88
921.17	3041.88
921.405	2960.88
921.639	3041.88
921.873	3028.88
922.108	3010.88
922.342	3023.88
922.576	2942.88
922.811	2963.88
923.045	3025.88
923.279	3000.88
923.513	2907.88
923.747	3015.88
923.981	2947.88
924.215	2912.88
924.449	2899.88
924.683	2870.88
924.917	2876.88
925.151	2870.88
925.385	2932.88
925.618	2890.88
925.852	2876.88
926.086	2814.88
926.319	2854.88
926.553	2844.88
926.786	2882.88
927.02	2860.88
927.253	2887.88
927.486	2881.88
927.72	2819.88
927.953	2905.88
928.186	2841.88
928.42	2847.88
928.653	2816.88
928.886	2804.88
929.119	2823.88
929.352	2847.88
929.585	2830.88
929.818	2776.88
930.051	2803.88
930.284	2819.88
930.516	2704.88
930.749	2677.88
930.982	2740.88
931.215	2696.88
931.447	2674.88
931.68	2678.88
931.912	2666.88
932.145	2666.88
932.377	2689.88
932.61	2837.88
932.842	2594.88
933.074	2688.88
933.307	2645.88
933.539	2777.88
933.771	2737.88
934.003	2673.88
934.236	2778.88
934.468	2813.88
934.7	2683.88
934.932	2717.88
935.164	2682.88
935.395	2677.88
935.627	2686.88
935.859	2691.88
936.091	2633.88
936.323	2634.88
936.554	2722.88
936.786	2648.88
937.017	2599.88
937.249	2643.88
937.481	2595.88
937.712	2683.88
937.943	2626.88
938.175	2641.88
938.406	2628.88
938.637	2674.88
938.869	2581.88
939.1	2625.88
939.331	2598.88
939.562	2649.88
939.793	2601.88
940.024	2679.88
940.255	2607.88
940.486	2588.88
940.717	2587.88
940.948	2583.88
941.179	2507.88
941.409	2577.88
941.64	2541.88
941.871	2579.88
942.102	2533.88
942.332	2559.88
942.563	2611.88
942.793	2600.88
943.024	2545.88
943.254	2563.88
943.484	2549.88
943.715	2631.88
943.945	2616.88
944.175	2541.88
944.405	2467.88
944.636	2524.88
944.866	2583.88
945.096	2582.88
945.326	2522.88
945.556	2582.88
945.786	2581.88
946.016	2514.88
946.245	2499.88
946.475	2498.88
946.705	2491.88
946.935	2500.88
947.164	2466.88
947.394	2443.88
947.624	2429.88
947.853	2486.88
948.083	2479.88
948.312	2446.88
948.542	2366.88
948.771	2378.88
949	2392.88
949.23	2390.88
949.459	2423.88
949.688	2451.88
949.917	2397.88
950.146	2409.88
950.375	2482.88
950.604	2375.88
950.833	2460.88
951.062	2453.88
951.291	2431.88
951.52	2372.88
951.749	2425.88
951.978	2349.88
952.206	2337.88
952.435	2350.88
952.664	2421.88
952.892	2377.88
953.121	2366.88
953.349	2379.88
953.578	2394.88
953.806	2340.88
954.035	2307.88
954.263	2322.88
954.491	2286.88
954.719	2295.88
954.948	2279.88
955.176	2276.88
955.404	2213.88
955.632	2287.88
955.86	2281.88
956.088	2296.88
956.316	2314.88
956.544	2326.88
956.772	2256.88
956.999	2246.88
957.227	2339.88
957.455	2195.88
957.683	2222.88
957.91	2197.88
958.138	2208.88
958.365	2213.88
958.593	2160.88
958.82	2103.88
959.048	2197.88
959.275	2158.88
959.502	2185.88
959.73	2150.88
959.957	2188.88
960.184	2228.88
960.411	2180.88
960.638	2236.88
960.865	2172.88
961.092	2214.88
961.319	2109.88
961.546	2210.88
961.773	2179.88
962	2162.88
962.227	2228.88
962.454	2157.88
962.68	2131.88
962.907	2162.88
963.134	2109.88
963.36	2128.88
963.587	2157.88
963.813	2069.88
964.04	2139.88
964.266	2072.88
964.493	2140.88
964.719	2148.88
964.945	2129.88
965.171	2007.88
965.398	2096.88
965.624	2104.88
965.85	2032.88
966.076	2029.88
966.302	2049.88
966.528	2013.88
966.754	2067.88
966.98	2050.88
967.206	2028.88
967.431	1989.88
967.657	2064.88
967.883	2025.88
968.109	2024.88
968.334	1997.88
968.56	1986.88
968.785	1989.88
969.011	1979.88
969.236	2011.88
969.462	1944.88
969.687	1974.88
969.912	2021.88
970.138	2084.88
970.363	1950.88
970.588	2004.88
970.813	1977.88
971.038	1915.88
971.263	1956.88
971.488	1982.88
971.713	1969.88
971.938	1998.88
972.163	1874.88
972.388	1913.88
972.613	1891.88
972.838	1919.88
973.062	1903.88
973.287	1897.88
973.512	1845.88
973.736	1873.88
973.961	1836.88
974.185	1847.88
974.41	1878.88
974.634	1806.88
974.858	1788.88
975.083	1845.88
975.307	1887.88
975.531	1803.88
975.755	1772.88
975.98	1781.88
976.204	1711.88
976.428	1721.88
976.652	1763.88
976.876	1716.88
977.1	1772.88
977.324	1734.88
977.547	1777.88
977.771	1788.88
977.995	1762.88
978.219	1666.88
978.442	1796.88
978.666	1724.88
978.89	1719.88
979.113	1706.88
979.337	1731.88
979.56	1683.88
979.783	1786.88
980.007	1681.88
980.23	1686.88
980.453	1688.88
980.677	1686.88
980.9	1696.88
981.123	1632.88
981.346	1715.88
981.569	1695.88
981.792	1710.88
982.015	1686.88
982.238	1619.88
982.461	1653.88
982.684	1653.88
982.907	1621.88
983.129	1604.88
983.352	1665.88
983.575	1633.88
983.797	1626.88
984.02	1596.88
984.242	1569.88
984.465	1628.88
984.687	1644.88
984.91	1670.88
985.132	1667.88
985.354	1659.88
985.577	1617.88
985.799	1651.88
986.021	1542.88
986.243	1547.88
986.465	1579.88
986.687	1612.88
986.909	1664.88
987.131	1597.88
987.353	1581.88
987.575	1599.88
987.797	1564.88
988.019	1493.88
988.241	1561.88
988.462	1536.88
988.684	1573.88
988.906	1593.88
989.127	1672.88
989.349	1525.88
989.57	1556.88
989.792	1570.88
990.013	1621.88
990.234	1619.88
990.456	1641.88
990.677	1608.88
990.898	1546.88
991.119	1546.88
991.341	1592.88
991.562	1519.88
991.783	1563.88
992.004	1491.88
992.225	1488.88
992.446	1537.88
992.667	1451.88
992.887	1554.88
993.108	1438.88
993.329	1574.88
993.55	1496.88
993.77	1451.88
993.991	1443.88
994.212	1505.88
994.432	1484.88
994.653	1466.88
994.873	1477.88
995.093	1386.88
995.314	1442.88
995.534	1524.88
995.754	1521.88
995.975	1535.88
996.195	1433.88
996.415	1511.88
996.635	1488.88
996.855	1498.88
997.075	1436.88
997.295	1455.88
997.515	1429.88
997.735	1500.88
997.955	1492.88
998.174	1444.88
998.394	1418.88
998.614	1492.88
998.834	1432.88
999.053	1512.88
999.273	1474.88
999.492	1523.88
999.712	1426.88
999.931	1412.88
1000.151	1490.88
1000.37	1465.88
1000.589	1501.88
1000.809	1422.88
1001.028	1553.88
1001.247	1473.88
1001.466	1372.88
1001.685	1523.88
1001.904	1443.88
1002.123	1435.88
1002.342	1459.88
1002.561	1407.88
1002.78	1437.88
1002.999	1492.88
1003.218	1437.88
1003.436	1407.88
1003.655	1480.88
1003.874	1406.88
1004.092	1449.88
1004.311	1455.88
1004.53	1414.88
1004.748	1519.88
1004.966	1442.88
1005.185	1490.88
1005.403	1484.88
1005.622	1448.88
1005.84	1550.88
1006.058	1429.88
1006.276	1436.88
1006.494	1950.88
1006.712	1473.88
1006.931	1520.88
1007.149	1463.88
1007.367	1449.88
1007.584	1497.88
1007.802	1561.88
1008.02	1487.88
1008.238	1592.88
1008.456	1585.88
1008.673	1479.88
1008.891	1600.88
1009.109	1558.88
1009.326	1622.88
1009.544	1684.88
1009.761	1643.88
1009.979	1732.88
1010.196	1781.88
1010.413	1886.88
1010.631	1974.88
1010.848	2045.88
1011.065	2029.88
1011.282	2019.88
1011.5	1961.88
1011.717	2076.88
1011.934	2020.88
1012.151	2042.88
1012.368	2042.88
1012.585	1998.88
1012.801	2045.88
1013.018	1996.88
1013.235	2005.88
1013.452	2026.88
1013.669	2066.88
1013.885	2025.88
1014.102	2074.88
1014.318	2050.88
1014.535	2031.88
1014.751	2040.88
1014.968	2031.88
1015.184	2083.88
1015.401	1989.88
1015.617	2033.88
1015.833	1954.88
1016.049	1968.88
1016.266	1955.88
1016.482	1942.88
1016.698	1865.88
1016.914	1935.88
1017.13	1869.88
1017.346	1870.88
1017.562	1934.88
1017.778	1878.88
1017.993	1895.88
1018.209	1947.88
1018.425	1936.88
1018.641	1861.88
1018.856	1891.88
1019.072	1897.88
1019.288	1938.88
1019.503	1898.88
1019.719	1835.88
1019.934	1826.88
1020.149	1925.88
1020.365	1833.88
1020.58	1776.88
1020.795	1818.88
1021.011	1716.88
1021.226	1691.88
1021.441	1688.88
1021.656	1612.88
1021.871	1558.88
1022.086	1541.88
1022.301	1542.88
1022.516	1488.88
1022.731	1560.88
1022.946	1449.88
1023.16	1452.88
1023.375	1386.88
1023.59	1370.88
1023.804	1333.88
1024.019	1399.88
1024.234	1275.88
1024.448	1296.88
1024.663	1206.88
1024.877	1214.88
1025.092	1236.88
1025.306	1227.88
1025.52	1129.88
1025.734	1192.88
1025.949	1117.88
1026.163	1096.88
1026.377	1018.88
1026.591	1053.88
1026.805	993.88
1027.019	977.88
1027.233	939.88
1027.447	903.88
1027.661	986.88
1027.875	928.88
1028.088	943.88
1028.302	842.88
1028.516	861.88
1028.73	836.88
1028.943	823.88
1029.157	764.88
1029.37	710.88
1029.584	-2.12
1029.797	-0.12
1030.011	-3.12
1030.224	-1.12
