Data from QEP037381__280__11-07-16-588.txt Node

Date: Wed Dec 21 11:07:16 EST 2022
User: dcclab
Spectrometer: QEP03738
Trigger mode: 4
Integration Time (sec): 1.000000E1
Scans to average: 1
Electric dark correction enabled: true
Nonlinearity correction enabled: false
Boxcar width: 0
XAxis mode: Wavelengths
Number of Pixels in Spectrum: 1044
>>>>>Begin Spectral Data<<<<<
784.041	11.62
784.3	0.62
784.558	-2.38
784.817	-2.38
785.075	93797.62
785.334	16662.62
785.592	7875.62
785.851	5438.62
786.109	4099.62
786.368	3201.62
786.626	2608.62
786.884	2153.62
787.143	1799.62
787.401	1480.62
787.659	1343.62
787.917	1133.62
788.175	1040.62
788.433	911.62
788.691	829.62
788.949	741.62
789.207	741.62
789.465	614.62
789.723	602.62
789.98	526.62
790.238	562.62
790.496	541.62
790.753	516.62
791.011	556.62
791.268	499.62
791.526	460.62
791.783	498.62
792.041	479.62
792.298	393.62
792.556	449.62
792.813	437.62
793.07	410.62
793.327	406.62
793.584	491.62
793.841	392.62
794.099	432.62
794.356	476.62
794.613	378.62
794.869	436.62
795.126	386.62
795.383	376.62
795.64	394.62
795.897	351.62
796.153	397.62
796.41	387.62
796.667	364.62
796.923	376.62
797.18	371.62
797.436	390.62
797.693	342.62
797.949	391.62
798.206	439.62
798.462	333.62
798.718	382.62
798.974	363.62
799.231	398.62
799.487	379.62
799.743	394.62
799.999	407.62
800.255	403.62
800.511	379.62
800.767	411.62
801.023	383.62
801.279	412.62
801.534	408.62
801.79	431.62
802.046	397.62
802.302	472.62
802.557	466.62
802.813	519.62
803.068	499.62
803.324	647.62
803.579	732.62
803.835	917.62
804.09	1188.62
804.345	1476.62
804.601	1824.62
804.856	2211.62
805.111	2490.62
805.366	2705.62
805.621	2919.62
805.876	2962.62
806.131	3016.62
806.386	3043.62
806.641	3057.62
806.896	3154.62
807.151	3293.62
807.406	3250.62
807.661	3321.62
807.915	3343.62
808.17	3479.62
808.425	3491.62
808.679	3447.62
808.934	3577.62
809.188	3592.62
809.443	3681.62
809.697	3716.62
809.951	3669.62
810.206	3716.62
810.46	3795.62
810.714	3786.62
810.968	3894.62
811.223	3811.62
811.477	3910.62
811.731	3970.62
811.985	3897.62
812.239	3909.62
812.493	3944.62
812.747	4035.62
813	3994.62
813.254	4070.62
813.508	4077.62
813.762	4030.62
814.015	4062.62
814.269	4096.62
814.522	4139.62
814.776	4222.62
815.03	4240.62
815.283	4331.62
815.536	4397.62
815.79	4465.62
816.043	4445.62
816.296	4557.62
816.55	4595.62
816.803	4656.62
817.056	4761.62
817.309	4817.62
817.562	4809.62
817.815	4903.62
818.068	4873.62
818.321	4953.62
818.574	5009.62
818.827	5154.62
819.079	5185.62
819.332	5360.62
819.585	5363.62
819.838	5467.62
820.09	5379.62
820.343	5539.62
820.595	5458.62
820.848	5545.62
821.1	5634.62
821.353	5582.62
821.605	5592.62
821.857	5620.62
822.11	5486.62
822.362	5503.62
822.614	5498.62
822.866	5569.62
823.118	5564.62
823.37	5687.62
823.622	5612.62
823.874	5668.62
824.126	5762.62
824.378	5663.62
824.63	5729.62
824.882	5765.62
825.134	5688.62
825.385	5638.62
825.637	5655.62
825.888	5622.62
826.14	5608.62
826.392	5556.62
826.643	5520.62
826.895	5573.62
827.146	5465.62
827.397	5450.62
827.649	5513.62
827.9	5505.62
828.151	5486.62
828.402	5489.62
828.653	5562.62
828.905	5541.62
829.156	5597.62
829.407	5517.62
829.658	5534.62
829.909	5640.62
830.159	5662.62
830.41	5619.62
830.661	5592.62
830.912	5499.62
831.162	5471.62
831.413	5524.62
831.664	5567.62
831.914	5472.62
832.165	5571.62
832.415	5509.62
832.666	5538.62
832.916	5524.62
833.167	5513.62
833.417	5579.62
833.667	5537.62
833.917	5515.62
834.168	5543.62
834.418	5565.62
834.668	5542.62
834.918	5434.62
835.168	5497.62
835.418	5422.62
835.668	5429.62
835.918	5475.62
836.167	5427.62
836.417	5374.62
836.667	5438.62
836.917	5422.62
837.166	5356.62
837.416	5435.62
837.666	5413.62
837.915	5353.62
838.165	5340.62
838.414	5274.62
838.663	5264.62
838.913	5330.62
839.162	5293.62
839.411	5380.62
839.661	5262.62
839.91	5368.62
840.159	5315.62
840.408	5342.62
840.657	5381.62
840.906	5371.62
841.155	5429.62
841.404	5379.62
841.653	5364.62
841.902	5298.62
842.15	5412.62
842.399	5384.62
842.648	5411.62
842.897	5337.62
843.145	5280.62
843.394	5314.62
843.642	5274.62
843.891	5233.62
844.139	5229.62
844.388	5121.62
844.636	5125.62
844.884	5177.62
845.133	5081.62
845.381	5105.62
845.629	5178.62
845.877	5183.62
846.125	5094.62
846.373	5150.62
846.621	5091.62
846.869	5102.62
847.117	5109.62
847.365	5034.62
847.613	5007.62
847.861	5046.62
848.108	5106.62
848.356	5003.62
848.604	5055.62
848.851	5080.62
849.099	5112.62
849.346	5052.62
849.594	5127.62
849.841	5177.62
850.089	5230.62
850.336	5186.62
850.583	5274.62
850.831	5286.62
851.078	5263.62
851.325	5262.62
851.572	5378.62
851.819	5291.62
852.066	5079.62
852.313	4922.62
852.56	4837.62
852.807	4868.62
853.054	4838.62
853.301	4913.62
853.548	4859.62
853.794	5015.62
854.041	4981.62
854.288	4963.62
854.534	5144.62
854.781	5008.62
855.028	5004.62
855.274	5033.62
855.52	4983.62
855.767	4948.62
856.013	5022.62
856.26	5271.62
856.506	4897.62
856.752	4942.62
856.998	4905.62
857.244	4916.62
857.49	4990.62
857.736	5006.62
857.982	5018.62
858.228	4989.62
858.474	4867.62
858.72	4870.62
858.966	4848.62
859.212	4798.62
859.458	4758.62
859.703	4714.62
859.949	4597.62
860.195	4634.62
860.44	4639.62
860.686	4563.62
860.931	4618.62
861.177	4538.62
861.422	4567.62
861.667	4496.62
861.913	4529.62
862.158	4504.62
862.403	4591.62
862.648	4567.62
862.893	4650.62
863.138	4565.62
863.384	4558.62
863.629	4561.62
863.873	4625.62
864.118	4571.62
864.363	4511.62
864.608	4555.62
864.853	4599.62
865.098	4473.62
865.342	4471.62
865.587	4439.62
865.832	4499.62
866.076	4473.62
866.321	4415.62
866.565	4424.62
866.81	4388.62
867.054	4471.62
867.298	4396.62
867.543	4374.62
867.787	4424.62
868.031	4400.62
868.275	4441.62
868.519	4370.62
868.764	4398.62
869.008	4385.62
869.252	4455.62
869.496	4384.62
869.739	4396.62
869.983	4460.62
870.227	4456.62
870.471	4423.62
870.715	4515.62
870.958	4517.62
871.202	4477.62
871.446	4489.62
871.689	4482.62
871.933	4482.62
872.176	4431.62
872.42	4465.62
872.663	4435.62
872.906	4507.62
873.15	4431.62
873.393	4383.62
873.636	4487.62
873.879	4461.62
874.122	4433.62
874.366	4310.62
874.609	4320.62
874.852	4270.62
875.095	4221.62
875.337	4186.62
875.58	4135.62
875.823	4207.62
876.066	4201.62
876.309	4213.62
876.551	4118.62
876.794	4040.62
877.037	4172.62
877.279	4089.62
877.522	4091.62
877.764	4062.62
878.007	4072.62
878.249	4092.62
878.491	4025.62
878.734	4103.62
878.976	4082.62
879.218	3991.62
879.46	4067.62
879.702	3975.62
879.945	3981.62
880.187	3876.62
880.429	3862.62
880.671	3863.62
880.912	3919.62
881.154	3953.62
881.396	3768.62
881.638	3853.62
881.88	3855.62
882.121	3823.62
882.363	3853.62
882.605	3872.62
882.846	3859.62
883.088	3935.62
883.329	3825.62
883.571	3848.62
883.812	3959.62
884.053	4036.62
884.295	4162.62
884.536	4305.62
884.777	4245.62
885.018	4233.62
885.259	4217.62
885.5	4147.62
885.742	4358.62
885.982	4147.62
886.223	4045.62
886.464	4005.62
886.705	3917.62
886.946	3913.62
887.187	3770.62
887.428	3809.62
887.668	3736.62
887.909	3647.62
888.15	3589.62
888.39	3660.62
888.631	3633.62
888.871	3582.62
889.111	3568.62
889.352	3546.62
889.592	3533.62
889.833	3451.62
890.073	3430.62
890.313	3481.62
890.553	3369.62
890.793	3379.62
891.033	3374.62
891.273	3300.62
891.513	3341.62
891.753	3398.62
891.993	3379.62
892.233	3374.62
892.473	3444.62
892.713	3382.62
892.952	3403.62
893.192	3376.62
893.432	3380.62
893.671	3430.62
893.911	3363.62
894.15	3372.62
894.39	3257.62
894.629	3337.62
894.869	3343.62
895.108	3322.62
895.347	3278.62
895.587	3297.62
895.826	3288.62
896.065	3286.62
896.304	3325.62
896.543	3348.62
896.782	3228.62
897.021	3330.62
897.26	3303.62
897.499	3356.62
897.738	3415.62
897.977	3293.62
898.216	3267.62
898.454	3260.62
898.693	3212.62
898.932	3291.62
899.17	3217.62
899.409	3216.62
899.647	3238.62
899.886	3187.62
900.124	3233.62
900.363	3198.62
900.601	3266.62
900.839	3323.62
901.078	3294.62
901.316	3324.62
901.554	3345.62
901.792	3370.62
902.03	3364.62
902.268	3404.62
902.506	3484.62
902.744	3335.62
902.982	3312.62
903.22	3229.62
903.458	3202.62
903.695	3175.62
903.933	3130.62
904.171	3021.62
904.409	2981.62
904.646	2949.62
904.884	2882.62
905.121	2878.62
905.359	2896.62
905.596	2836.62
905.833	2773.62
906.071	2775.62
906.308	2837.62
906.545	2769.62
906.783	2695.62
907.02	2717.62
907.257	2678.62
907.494	2714.62
907.731	2719.62
907.968	2708.62
908.205	2674.62
908.442	2653.62
908.679	2670.62
908.915	2652.62
909.152	2616.62
909.389	2572.62
909.626	2577.62
909.862	2509.62
910.099	2548.62
910.335	2551.62
910.572	2491.62
910.808	2510.62
911.045	2508.62
911.281	2473.62
911.518	2554.62
911.754	2487.62
911.99	2479.62
912.226	2464.62
912.463	2413.62
912.699	2403.62
912.935	2409.62
913.171	2387.62
913.407	2355.62
913.643	2416.62
913.879	2375.62
914.114	2315.62
914.35	2322.62
914.586	2295.62
914.822	2267.62
915.057	2345.62
915.293	2196.62
915.529	2209.62
915.764	2295.62
916	2258.62
916.235	2254.62
916.471	2271.62
916.706	2203.62
916.941	2193.62
917.177	2219.62
917.412	2256.62
917.647	2269.62
917.882	2193.62
918.117	2265.62
918.352	2216.62
918.588	2270.62
918.823	2205.62
919.057	2199.62
919.292	2104.62
919.527	2192.62
919.762	2110.62
919.997	2152.62
920.232	2093.62
920.466	2113.62
920.701	2036.62
920.935	2089.62
921.17	2047.62
921.405	2012.62
921.639	2071.62
921.873	2062.62
922.108	2078.62
922.342	2086.62
922.576	1988.62
922.811	1987.62
923.045	2059.62
923.279	2069.62
923.513	1946.62
923.747	2042.62
923.981	1998.62
924.215	1933.62
924.449	1952.62
924.683	1914.62
924.917	1953.62
925.151	1958.62
925.385	2010.62
925.618	1943.62
925.852	1946.62
926.086	1881.62
926.319	1962.62
926.553	1932.62
926.786	1955.62
927.02	1923.62
927.253	1950.62
927.486	1982.62
927.72	1881.62
927.953	1952.62
928.186	1882.62
928.42	1933.62
928.653	1869.62
928.886	1893.62
929.119	1915.62
929.352	1895.62
929.585	1902.62
929.818	1876.62
930.051	1868.62
930.284	1871.62
930.516	1793.62
930.749	1809.62
930.982	1844.62
931.215	1848.62
931.447	1767.62
931.68	1802.62
931.912	1796.62
932.145	1797.62
932.377	1833.62
932.61	1945.62
932.842	1741.62
933.074	1824.62
933.307	1747.62
933.539	1874.62
933.771	1857.62
934.003	1826.62
934.236	1886.62
934.468	1879.62
934.7	1810.62
934.932	1828.62
935.164	1772.62
935.395	1777.62
935.627	1806.62
935.859	1804.62
936.091	1728.62
936.323	1822.62
936.554	1818.62
936.786	1790.62
937.017	1733.62
937.249	1792.62
937.481	1725.62
937.712	1812.62
937.943	1761.62
938.175	1751.62
938.406	1762.62
938.637	1809.62
938.869	1732.62
939.1	1782.62
939.331	1748.62
939.562	1786.62
939.793	1768.62
940.024	1817.62
940.255	1807.62
940.486	1732.62
940.717	1754.62
940.948	1730.62
941.179	1671.62
941.409	1727.62
941.64	1713.62
941.871	1741.62
942.102	1691.62
942.332	1712.62
942.563	1727.62
942.793	1731.62
943.024	1663.62
943.254	1730.62
943.484	1741.62
943.715	1771.62
943.945	1738.62
944.175	1671.62
944.405	1643.62
944.636	1653.62
944.866	1716.62
945.096	1720.62
945.326	1647.62
945.556	1716.62
945.786	1755.62
946.016	1697.62
946.245	1612.62
946.475	1655.62
946.705	1635.62
946.935	1654.62
947.164	1632.62
947.394	1616.62
947.624	1667.62
947.853	1695.62
948.083	1648.62
948.312	1625.62
948.542	1554.62
948.771	1552.62
949	1566.62
949.23	1613.62
949.459	1624.62
949.688	1673.62
949.917	1608.62
950.146	1627.62
950.375	1678.62
950.604	1573.62
950.833	1655.62
951.062	1652.62
951.291	1598.62
951.52	1602.62
951.749	1621.62
951.978	1553.62
952.206	1557.62
952.435	1560.62
952.664	1611.62
952.892	1637.62
953.121	1581.62
953.349	1605.62
953.578	1597.62
953.806	1587.62
954.035	1538.62
954.263	1563.62
954.491	1499.62
954.719	1569.62
954.948	1536.62
955.176	1517.62
955.404	1459.62
955.632	1545.62
955.86	1542.62
956.088	1531.62
956.316	1561.62
956.544	1601.62
956.772	1538.62
956.999	1478.62
957.227	1564.62
957.455	1492.62
957.683	1488.62
957.91	1481.62
958.138	1476.62
958.365	1490.62
958.593	1472.62
958.82	1414.62
959.048	1503.62
959.275	1483.62
959.502	1476.62
959.73	1426.62
959.957	1484.62
960.184	1524.62
960.411	1477.62
960.638	1537.62
960.865	1460.62
961.092	1473.62
961.319	1403.62
961.546	1475.62
961.773	1493.62
962	1449.62
962.227	1506.62
962.454	1476.62
962.68	1450.62
962.907	1474.62
963.134	1432.62
963.36	1437.62
963.587	1469.62
963.813	1386.62
964.04	1443.62
964.266	1414.62
964.493	1474.62
964.719	1452.62
964.945	1459.62
965.171	1374.62
965.398	1419.62
965.624	1415.62
965.85	1379.62
966.076	1377.62
966.302	1402.62
966.528	1383.62
966.754	1408.62
966.98	1440.62
967.206	1407.62
967.431	1330.62
967.657	1416.62
967.883	1382.62
968.109	1419.62
968.334	1355.62
968.56	1346.62
968.785	1355.62
969.011	1319.62
969.236	1388.62
969.462	1326.62
969.687	1321.62
969.912	1424.62
970.138	1402.62
970.363	1315.62
970.588	1347.62
970.813	1330.62
971.038	1306.62
971.263	1355.62
971.488	1363.62
971.713	1381.62
971.938	1372.62
972.163	1280.62
972.388	1309.62
972.613	1303.62
972.838	1321.62
973.062	1329.62
973.287	1311.62
973.512	1248.62
973.736	1296.62
973.961	1274.62
974.185	1266.62
974.41	1324.62
974.634	1214.62
974.858	1239.62
975.083	1300.62
975.307	1299.62
975.531	1231.62
975.755	1199.62
975.98	1218.62
976.204	1184.62
976.428	1145.62
976.652	1190.62
976.876	1175.62
977.1	1235.62
977.324	1185.62
977.547	1216.62
977.771	1236.62
977.995	1193.62
978.219	1151.62
978.442	1252.62
978.666	1215.62
978.89	1222.62
979.113	1193.62
979.337	1199.62
979.56	1157.62
979.783	1231.62
980.007	1137.62
980.23	1194.62
980.453	1168.62
980.677	1202.62
980.9	1187.62
981.123	1102.62
981.346	1184.62
981.569	1170.62
981.792	1218.62
982.015	1206.62
982.238	1113.62
982.461	1157.62
982.684	1132.62
982.907	1124.62
983.129	1081.62
983.352	1160.62
983.575	1152.62
983.797	1146.62
984.02	1127.62
984.242	1100.62
984.465	1149.62
984.687	1140.62
984.91	1175.62
985.132	1151.62
985.354	1176.62
985.577	1144.62
985.799	1114.62
986.021	1052.62
986.243	1095.62
986.465	1127.62
986.687	1145.62
986.909	1188.62
987.131	1132.62
987.353	1105.62
987.575	1123.62
987.797	1117.62
988.019	1048.62
988.241	1104.62
988.462	1096.62
988.684	1151.62
988.906	1166.62
989.127	1178.62
989.349	1069.62
989.57	1108.62
989.792	1145.62
990.013	1145.62
990.234	1156.62
990.456	1177.62
990.677	1146.62
990.898	1128.62
991.119	1127.62
991.341	1131.62
991.562	1089.62
991.783	1120.62
992.004	1057.62
992.225	1051.62
992.446	1117.62
992.667	1027.62
992.887	1129.62
993.108	1031.62
993.329	1157.62
993.55	1127.62
993.77	1035.62
993.991	1065.62
994.212	1075.62
994.432	1069.62
994.653	1087.62
994.873	1086.62
995.093	980.62
995.314	1013.62
995.534	1098.62
995.754	1112.62
995.975	1121.62
996.195	1041.62
996.415	1085.62
996.635	1062.62
996.855	1078.62
997.075	1062.62
997.295	1045.62
997.515	1044.62
997.735	1109.62
997.955	1065.62
998.174	1046.62
998.394	1030.62
998.614	1100.62
998.834	1048.62
999.053	1114.62
999.273	1083.62
999.492	1130.62
999.712	1067.62
999.931	1046.62
1000.151	1099.62
1000.37	1056.62
1000.589	1131.62
1000.809	1058.62
1001.028	1182.62
1001.247	1111.62
1001.466	995.62
1001.685	1172.62
1001.904	1116.62
1002.123	1071.62
1002.342	1100.62
1002.561	1065.62
1002.78	1057.62
1002.999	1163.62
1003.218	1098.62
1003.436	1083.62
1003.655	1139.62
1003.874	1069.62
1004.092	1092.62
1004.311	1130.62
1004.53	1094.62
1004.748	1166.62
1004.966	1101.62
1005.185	1147.62
1005.403	1141.62
1005.622	1120.62
1005.84	1165.62
1006.058	1074.62
1006.276	1118.62
1006.494	1613.62
1006.712	1129.62
1006.931	1161.62
1007.149	1075.62
1007.367	1116.62
1007.584	1152.62
1007.802	1192.62
1008.02	1094.62
1008.238	1239.62
1008.456	1222.62
1008.673	1074.62
1008.891	1208.62
1009.109	1164.62
1009.326	1193.62
1009.544	1299.62
1009.761	1198.62
1009.979	1285.62
1010.196	1297.62
1010.413	1364.62
1010.631	1425.62
1010.848	1423.62
1011.065	1453.62
1011.282	1394.62
1011.5	1338.62
1011.717	1469.62
1011.934	1396.62
1012.151	1433.62
1012.368	1418.62
1012.585	1370.62
1012.801	1412.62
1013.018	1410.62
1013.235	1393.62
1013.452	1402.62
1013.669	1373.62
1013.885	1372.62
1014.102	1423.62
1014.318	1423.62
1014.535	1356.62
1014.751	1389.62
1014.968	1389.62
1015.184	1444.62
1015.401	1331.62
1015.617	1383.62
1015.833	1328.62
1016.049	1358.62
1016.266	1318.62
1016.482	1325.62
1016.698	1270.62
1016.914	1335.62
1017.13	1266.62
1017.346	1260.62
1017.562	1334.62
1017.778	1267.62
1017.993	1245.62
1018.209	1310.62
1018.425	1298.62
1018.641	1254.62
1018.856	1244.62
1019.072	1268.62
1019.288	1352.62
1019.503	1268.62
1019.719	1195.62
1019.934	1204.62
1020.149	1289.62
1020.365	1238.62
1020.58	1151.62
1020.795	1219.62
1021.011	1170.62
1021.226	1123.62
1021.441	1187.62
1021.656	1079.62
1021.871	1033.62
1022.086	1026.62
1022.301	1046.62
1022.516	1035.62
1022.731	1082.62
1022.946	998.62
1023.16	979.62
1023.375	967.62
1023.59	940.62
1023.804	897.62
1024.019	1014.62
1024.234	902.62
1024.448	916.62
1024.663	830.62
1024.877	889.62
1025.092	892.62
1025.306	908.62
1025.52	805.62
1025.734	887.62
1025.949	815.62
1026.163	807.62
1026.377	735.62
1026.591	779.62
1026.805	741.62
1027.019	733.62
1027.233	695.62
1027.447	639.62
1027.661	745.62
1027.875	702.62
1028.088	709.62
1028.302	626.62
1028.516	620.62
1028.73	618.62
1028.943	638.62
1029.157	578.62
1029.37	546.62
1029.584	-3.38
1029.797	-1.38
1030.011	-1.38
1030.224	-1.38
