Data from QEP037381__247__11-01-46-588.txt Node

Date: Wed Dec 21 11:01:46 EST 2022
User: dcclab
Spectrometer: QEP03738
Trigger mode: 4
Integration Time (sec): 1.000000E1
Scans to average: 1
Electric dark correction enabled: true
Nonlinearity correction enabled: false
Boxcar width: 0
XAxis mode: Wavelengths
Number of Pixels in Spectrum: 1044
>>>>>Begin Spectral Data<<<<<
784.041	14.75
784.3	1.75
784.558	-5.25
784.817	-3.25
785.075	96592.75
785.334	16368.75
785.592	7564.75
785.851	5243.75
786.109	4011.75
786.368	3100.75
786.626	2512.75
786.884	2079.75
787.143	1763.75
787.401	1432.75
787.659	1311.75
787.917	1111.75
788.175	1027.75
788.433	897.75
788.691	817.75
788.949	743.75
789.207	705.75
789.465	613.75
789.723	586.75
789.98	549.75
790.238	570.75
790.496	545.75
790.753	516.75
791.011	550.75
791.268	483.75
791.526	478.75
791.783	500.75
792.041	476.75
792.298	394.75
792.556	466.75
792.813	442.75
793.07	419.75
793.327	403.75
793.584	482.75
793.841	407.75
794.099	425.75
794.356	491.75
794.613	384.75
794.869	425.75
795.126	380.75
795.383	362.75
795.64	395.75
795.897	336.75
796.153	395.75
796.41	387.75
796.667	374.75
796.923	373.75
797.18	363.75
797.436	388.75
797.693	368.75
797.949	397.75
798.206	430.75
798.462	333.75
798.718	399.75
798.974	369.75
799.231	402.75
799.487	406.75
799.743	384.75
799.999	420.75
800.255	410.75
800.511	380.75
800.767	409.75
801.023	383.75
801.279	404.75
801.534	400.75
801.79	421.75
802.046	403.75
802.302	466.75
802.557	453.75
802.813	514.75
803.068	499.75
803.324	623.75
803.579	718.75
803.835	876.75
804.09	1184.75
804.345	1400.75
804.601	1710.75
804.856	2116.75
805.111	2405.75
805.366	2603.75
805.621	2754.75
805.876	2869.75
806.131	2955.75
806.386	2935.75
806.641	2957.75
806.896	2995.75
807.151	3156.75
807.406	3143.75
807.661	3204.75
807.915	3251.75
808.17	3301.75
808.425	3354.75
808.679	3325.75
808.934	3427.75
809.188	3410.75
809.443	3459.75
809.697	3566.75
809.951	3522.75
810.206	3555.75
810.46	3630.75
810.714	3637.75
810.968	3721.75
811.223	3656.75
811.477	3723.75
811.731	3764.75
811.985	3757.75
812.239	3701.75
812.493	3774.75
812.747	3823.75
813	3776.75
813.254	3871.75
813.508	3890.75
813.762	3837.75
814.015	3856.75
814.269	3916.75
814.522	4007.75
814.776	4059.75
815.03	4075.75
815.283	4149.75
815.536	4190.75
815.79	4244.75
816.043	4340.75
816.296	4363.75
816.55	4394.75
816.803	4424.75
817.056	4535.75
817.309	4556.75
817.562	4583.75
817.815	4703.75
818.068	4653.75
818.321	4712.75
818.574	4777.75
818.827	4898.75
819.079	4915.75
819.332	5081.75
819.585	5084.75
819.838	5231.75
820.09	5139.75
820.343	5200.75
820.595	5142.75
820.848	5267.75
821.1	5284.75
821.353	5272.75
821.605	5269.75
821.857	5348.75
822.11	5188.75
822.362	5262.75
822.614	5231.75
822.866	5252.75
823.118	5219.75
823.37	5347.75
823.622	5341.75
823.874	5340.75
824.126	5436.75
824.378	5364.75
824.63	5417.75
824.882	5454.75
825.134	5380.75
825.385	5406.75
825.637	5330.75
825.888	5264.75
826.14	5305.75
826.392	5281.75
826.643	5208.75
826.895	5231.75
827.146	5172.75
827.397	5148.75
827.649	5237.75
827.9	5163.75
828.151	5137.75
828.402	5134.75
828.653	5186.75
828.905	5223.75
829.156	5232.75
829.407	5197.75
829.658	5240.75
829.909	5283.75
830.159	5193.75
830.41	5178.75
830.661	5228.75
830.912	5186.75
831.162	5177.75
831.413	5163.75
831.664	5236.75
831.914	5112.75
832.165	5142.75
832.415	5208.75
832.666	5161.75
832.916	5216.75
833.167	5177.75
833.417	5198.75
833.667	5167.75
833.917	5148.75
834.168	5170.75
834.418	5173.75
834.668	5113.75
834.918	5094.75
835.168	5108.75
835.418	5041.75
835.668	5110.75
835.918	5098.75
836.167	5105.75
836.417	4938.75
836.667	5053.75
836.917	5055.75
837.166	5012.75
837.416	5064.75
837.666	5025.75
837.915	4966.75
838.165	4936.75
838.414	4932.75
838.663	4909.75
838.913	4962.75
839.162	4879.75
839.411	5029.75
839.661	4968.75
839.91	4981.75
840.159	4907.75
840.408	4904.75
840.657	4949.75
840.906	5003.75
841.155	4964.75
841.404	4962.75
841.653	4949.75
841.902	4926.75
842.15	4930.75
842.399	4987.75
842.648	4952.75
842.897	4962.75
843.145	4857.75
843.394	4841.75
843.642	4844.75
843.891	4826.75
844.139	4791.75
844.388	4718.75
844.636	4728.75
844.884	4751.75
845.133	4755.75
845.381	4760.75
845.629	4782.75
845.877	4717.75
846.125	4728.75
846.373	4752.75
846.621	4695.75
846.869	4740.75
847.117	4671.75
847.365	4627.75
847.613	4658.75
847.861	4676.75
848.108	4699.75
848.356	4627.75
848.604	4623.75
848.851	4646.75
849.099	4661.75
849.346	4712.75
849.594	4720.75
849.841	4752.75
850.089	4771.75
850.336	4795.75
850.583	4857.75
850.831	4865.75
851.078	4880.75
851.325	4915.75
851.572	4997.75
851.819	4908.75
852.066	4703.75
852.313	4519.75
852.56	4449.75
852.807	4445.75
853.054	4459.75
853.301	4461.75
853.548	4510.75
853.794	4651.75
854.041	4535.75
854.288	4552.75
854.534	4716.75
854.781	4530.75
855.028	4562.75
855.274	4592.75
855.52	4547.75
855.767	4540.75
856.013	4498.75
856.26	4812.75
856.506	4472.75
856.752	4485.75
856.998	4451.75
857.244	4502.75
857.49	4492.75
857.736	4581.75
857.982	4494.75
858.228	4529.75
858.474	4485.75
858.72	4471.75
858.966	4422.75
859.212	4380.75
859.458	4314.75
859.703	4267.75
859.949	4202.75
860.195	4267.75
860.44	4201.75
860.686	4187.75
860.931	4181.75
861.177	4117.75
861.422	4155.75
861.667	4107.75
861.913	4107.75
862.158	4115.75
862.403	4206.75
862.648	4182.75
862.893	4237.75
863.138	4197.75
863.384	4143.75
863.629	4203.75
863.873	4181.75
864.118	4096.75
864.363	4050.75
864.608	4103.75
864.853	4150.75
865.098	4066.75
865.342	4085.75
865.587	4053.75
865.832	4112.75
866.076	4073.75
866.321	4031.75
866.565	4052.75
866.81	3954.75
867.054	4023.75
867.298	3991.75
867.543	3956.75
867.787	4038.75
868.031	3989.75
868.275	4012.75
868.519	3992.75
868.764	4017.75
869.008	3953.75
869.252	3999.75
869.496	3983.75
869.739	3984.75
869.983	4021.75
870.227	3968.75
870.471	3964.75
870.715	4043.75
870.958	4016.75
871.202	4013.75
871.446	3995.75
871.689	4014.75
871.933	4039.75
872.176	4031.75
872.42	3999.75
872.663	3968.75
872.906	4072.75
873.15	3974.75
873.393	3914.75
873.636	4042.75
873.879	3971.75
874.122	3981.75
874.366	3838.75
874.609	3858.75
874.852	3787.75
875.095	3815.75
875.337	3768.75
875.58	3719.75
875.823	3741.75
876.066	3775.75
876.309	3770.75
876.551	3643.75
876.794	3616.75
877.037	3721.75
877.279	3611.75
877.522	3638.75
877.764	3691.75
878.007	3649.75
878.249	3657.75
878.491	3660.75
878.734	3698.75
878.976	3656.75
879.218	3587.75
879.46	3680.75
879.702	3604.75
879.945	3571.75
880.187	3496.75
880.429	3515.75
880.671	3511.75
880.912	3489.75
881.154	3457.75
881.396	3381.75
881.638	3474.75
881.88	3465.75
882.121	3431.75
882.363	3446.75
882.605	3519.75
882.846	3491.75
883.088	3485.75
883.329	3430.75
883.571	3433.75
883.812	3470.75
884.053	3542.75
884.295	3681.75
884.536	3803.75
884.777	3698.75
885.018	3702.75
885.259	3761.75
885.5	3664.75
885.742	3856.75
885.982	3606.75
886.223	3559.75
886.464	3501.75
886.705	3468.75
886.946	3521.75
887.187	3333.75
887.428	3398.75
887.668	3312.75
887.909	3274.75
888.15	3217.75
888.39	3274.75
888.631	3276.75
888.871	3246.75
889.111	3208.75
889.352	3163.75
889.592	3097.75
889.833	3099.75
890.073	3125.75
890.313	3121.75
890.553	3056.75
890.793	3013.75
891.033	3017.75
891.273	3001.75
891.513	3038.75
891.753	3071.75
891.993	2997.75
892.233	3031.75
892.473	3071.75
892.713	3061.75
892.952	3048.75
893.192	3073.75
893.432	3024.75
893.671	3083.75
893.911	3063.75
894.15	3070.75
894.39	2978.75
894.629	2980.75
894.869	2949.75
895.108	2967.75
895.347	2930.75
895.587	3018.75
895.826	2930.75
896.065	2936.75
896.304	3018.75
896.543	2997.75
896.782	2920.75
897.021	2994.75
897.26	2953.75
897.499	3043.75
897.738	3048.75
897.977	3010.75
898.216	2961.75
898.454	2946.75
898.693	2936.75
898.932	2926.75
899.17	2838.75
899.409	2916.75
899.647	2902.75
899.886	2818.75
900.124	2917.75
900.363	2852.75
900.601	2923.75
900.839	2896.75
901.078	2931.75
901.316	2958.75
901.554	2932.75
901.792	2998.75
902.03	2943.75
902.268	2941.75
902.506	3007.75
902.744	2960.75
902.982	2967.75
903.22	2873.75
903.458	2811.75
903.695	2821.75
903.933	2791.75
904.171	2673.75
904.409	2659.75
904.646	2678.75
904.884	2609.75
905.121	2584.75
905.359	2579.75
905.596	2522.75
905.833	2477.75
906.071	2436.75
906.308	2493.75
906.545	2464.75
906.783	2433.75
907.02	2417.75
907.257	2401.75
907.494	2401.75
907.731	2435.75
907.968	2408.75
908.205	2366.75
908.442	2370.75
908.679	2349.75
908.915	2366.75
909.152	2345.75
909.389	2250.75
909.626	2301.75
909.862	2258.75
910.099	2276.75
910.335	2309.75
910.572	2185.75
910.808	2261.75
911.045	2251.75
911.281	2205.75
911.518	2287.75
911.754	2218.75
911.99	2185.75
912.226	2225.75
912.463	2137.75
912.699	2162.75
912.935	2138.75
913.171	2128.75
913.407	2080.75
913.643	2151.75
913.879	2111.75
914.114	2076.75
914.35	2076.75
914.586	2055.75
914.822	2027.75
915.057	2113.75
915.293	1985.75
915.529	1957.75
915.764	2030.75
916	2026.75
916.235	2013.75
916.471	2040.75
916.706	1935.75
916.941	1974.75
917.177	1935.75
917.412	2040.75
917.647	1978.75
917.882	1949.75
918.117	2028.75
918.352	1996.75
918.588	2033.75
918.823	1957.75
919.057	1940.75
919.292	1875.75
919.527	1965.75
919.762	1883.75
919.997	1947.75
920.232	1870.75
920.466	1933.75
920.701	1784.75
920.935	1833.75
921.17	1823.75
921.405	1802.75
921.639	1848.75
921.873	1836.75
922.108	1830.75
922.342	1830.75
922.576	1779.75
922.811	1778.75
923.045	1835.75
923.279	1847.75
923.513	1718.75
923.747	1807.75
923.981	1779.75
924.215	1754.75
924.449	1741.75
924.683	1726.75
924.917	1708.75
925.151	1719.75
925.385	1776.75
925.618	1733.75
925.852	1737.75
926.086	1668.75
926.319	1738.75
926.553	1741.75
926.786	1716.75
927.02	1724.75
927.253	1733.75
927.486	1770.75
927.72	1651.75
927.953	1756.75
928.186	1708.75
928.42	1727.75
928.653	1667.75
928.886	1685.75
929.119	1713.75
929.352	1673.75
929.585	1673.75
929.818	1647.75
930.051	1662.75
930.284	1682.75
930.516	1594.75
930.749	1621.75
930.982	1622.75
931.215	1631.75
931.447	1552.75
931.68	1604.75
931.912	1593.75
932.145	1595.75
932.377	1604.75
932.61	1721.75
932.842	1550.75
933.074	1616.75
933.307	1559.75
933.539	1656.75
933.771	1680.75
934.003	1594.75
934.236	1682.75
934.468	1690.75
934.7	1599.75
934.932	1630.75
935.164	1564.75
935.395	1575.75
935.627	1615.75
935.859	1586.75
936.091	1534.75
936.323	1631.75
936.554	1630.75
936.786	1585.75
937.017	1548.75
937.249	1595.75
937.481	1534.75
937.712	1597.75
937.943	1566.75
938.175	1565.75
938.406	1568.75
938.637	1626.75
938.869	1543.75
939.1	1587.75
939.331	1553.75
939.562	1591.75
939.793	1583.75
940.024	1585.75
940.255	1600.75
940.486	1536.75
940.717	1578.75
940.948	1520.75
941.179	1486.75
941.409	1502.75
941.64	1484.75
941.871	1527.75
942.102	1529.75
942.332	1517.75
942.563	1564.75
942.793	1508.75
943.024	1473.75
943.254	1512.75
943.484	1562.75
943.715	1566.75
943.945	1554.75
944.175	1460.75
944.405	1459.75
944.636	1478.75
944.866	1524.75
945.096	1530.75
945.326	1427.75
945.556	1525.75
945.786	1532.75
946.016	1470.75
946.245	1414.75
946.475	1443.75
946.705	1472.75
946.935	1457.75
947.164	1472.75
947.394	1425.75
947.624	1448.75
947.853	1484.75
948.083	1473.75
948.312	1440.75
948.542	1381.75
948.771	1382.75
949	1386.75
949.23	1423.75
949.459	1411.75
949.688	1457.75
949.917	1445.75
950.146	1438.75
950.375	1502.75
950.604	1404.75
950.833	1468.75
951.062	1491.75
951.291	1433.75
951.52	1389.75
951.749	1421.75
951.978	1372.75
952.206	1395.75
952.435	1401.75
952.664	1407.75
952.892	1454.75
953.121	1386.75
953.349	1428.75
953.578	1427.75
953.806	1361.75
954.035	1352.75
954.263	1392.75
954.491	1351.75
954.719	1387.75
954.948	1343.75
955.176	1326.75
955.404	1257.75
955.632	1350.75
955.86	1378.75
956.088	1344.75
956.316	1377.75
956.544	1400.75
956.772	1335.75
956.999	1328.75
957.227	1394.75
957.455	1308.75
957.683	1353.75
957.91	1294.75
958.138	1291.75
958.365	1308.75
958.593	1317.75
958.82	1246.75
959.048	1293.75
959.275	1277.75
959.502	1300.75
959.73	1283.75
959.957	1331.75
960.184	1344.75
960.411	1314.75
960.638	1372.75
960.865	1309.75
961.092	1313.75
961.319	1218.75
961.546	1340.75
961.773	1337.75
962	1279.75
962.227	1340.75
962.454	1329.75
962.68	1268.75
962.907	1301.75
963.134	1243.75
963.36	1292.75
963.587	1316.75
963.813	1247.75
964.04	1270.75
964.266	1237.75
964.493	1332.75
964.719	1302.75
964.945	1316.75
965.171	1189.75
965.398	1271.75
965.624	1264.75
965.85	1193.75
966.076	1237.75
966.302	1248.75
966.528	1237.75
966.754	1250.75
966.98	1244.75
967.206	1241.75
967.431	1169.75
967.657	1277.75
967.883	1249.75
968.109	1251.75
968.334	1188.75
968.56	1176.75
968.785	1187.75
969.011	1179.75
969.236	1243.75
969.462	1149.75
969.687	1179.75
969.912	1239.75
970.138	1270.75
970.363	1185.75
970.588	1200.75
970.813	1190.75
971.038	1151.75
971.263	1211.75
971.488	1183.75
971.713	1224.75
971.938	1225.75
972.163	1131.75
972.388	1157.75
972.613	1143.75
972.838	1173.75
973.062	1172.75
973.287	1159.75
973.512	1085.75
973.736	1140.75
973.961	1127.75
974.185	1106.75
974.41	1155.75
974.634	1066.75
974.858	1084.75
975.083	1119.75
975.307	1133.75
975.531	1103.75
975.755	1053.75
975.98	1078.75
976.204	1025.75
976.428	1045.75
976.652	1036.75
976.876	1021.75
977.1	1065.75
977.324	1052.75
977.547	1078.75
977.771	1094.75
977.995	1089.75
978.219	1013.75
978.442	1123.75
978.666	1060.75
978.89	1064.75
979.113	1067.75
979.337	1065.75
979.56	1042.75
979.783	1126.75
980.007	1003.75
980.23	1047.75
980.453	1005.75
980.677	1062.75
980.9	1075.75
981.123	973.75
981.346	1078.75
981.569	1050.75
981.792	1057.75
982.015	1033.75
982.238	994.75
982.461	1017.75
982.684	1002.75
982.907	987.75
983.129	975.75
983.352	1046.75
983.575	1028.75
983.797	1042.75
984.02	994.75
984.242	1004.75
984.465	1031.75
984.687	1052.75
984.91	1037.75
985.132	1035.75
985.354	1048.75
985.577	1020.75
985.799	1019.75
986.021	941.75
986.243	957.75
986.465	1001.75
986.687	1017.75
986.909	1087.75
987.131	1011.75
987.353	990.75
987.575	1015.75
987.797	974.75
988.019	943.75
988.241	982.75
988.462	950.75
988.684	1008.75
988.906	1054.75
989.127	1065.75
989.349	950.75
989.57	990.75
989.792	1042.75
990.013	1020.75
990.234	1028.75
990.456	1085.75
990.677	1048.75
990.898	985.75
991.119	994.75
991.341	1052.75
991.562	961.75
991.783	997.75
992.004	941.75
992.225	934.75
992.446	982.75
992.667	926.75
992.887	1017.75
993.108	910.75
993.329	1047.75
993.55	996.75
993.77	923.75
993.991	928.75
994.212	1003.75
994.432	974.75
994.653	983.75
994.873	977.75
995.093	877.75
995.314	927.75
995.534	1006.75
995.754	1019.75
995.975	1040.75
996.195	934.75
996.415	983.75
996.635	946.75
996.855	991.75
997.075	959.75
997.295	934.75
997.515	942.75
997.735	980.75
997.955	945.75
998.174	953.75
998.394	926.75
998.614	1000.75
998.834	955.75
999.053	1000.75
999.273	989.75
999.492	1024.75
999.712	961.75
999.931	938.75
1000.151	973.75
1000.37	978.75
1000.589	1041.75
1000.809	967.75
1001.028	1061.75
1001.247	1015.75
1001.466	915.75
1001.685	1057.75
1001.904	999.75
1002.123	996.75
1002.342	1016.75
1002.561	942.75
1002.78	998.75
1002.999	1043.75
1003.218	1013.75
1003.436	992.75
1003.655	1043.75
1003.874	991.75
1004.092	1016.75
1004.311	1036.75
1004.53	990.75
1004.748	1088.75
1004.966	995.75
1005.185	1051.75
1005.403	1056.75
1005.622	1020.75
1005.84	1107.75
1006.058	1002.75
1006.276	1044.75
1006.494	1537.75
1006.712	1047.75
1006.931	1111.75
1007.149	992.75
1007.367	1014.75
1007.584	1071.75
1007.802	1079.75
1008.02	1028.75
1008.238	1133.75
1008.456	1098.75
1008.673	998.75
1008.891	1102.75
1009.109	1015.75
1009.326	1109.75
1009.544	1152.75
1009.761	1038.75
1009.979	1125.75
1010.196	1139.75
1010.413	1225.75
1010.631	1255.75
1010.848	1272.75
1011.065	1291.75
1011.282	1188.75
1011.5	1166.75
1011.717	1279.75
1011.934	1226.75
1012.151	1265.75
1012.368	1227.75
1012.585	1175.75
1012.801	1210.75
1013.018	1214.75
1013.235	1154.75
1013.452	1194.75
1013.669	1188.75
1013.885	1191.75
1014.102	1224.75
1014.318	1187.75
1014.535	1142.75
1014.751	1183.75
1014.968	1179.75
1015.184	1235.75
1015.401	1123.75
1015.617	1200.75
1015.833	1134.75
1016.049	1155.75
1016.266	1124.75
1016.482	1152.75
1016.698	1082.75
1016.914	1145.75
1017.13	1079.75
1017.346	1098.75
1017.562	1148.75
1017.778	1113.75
1017.993	1071.75
1018.209	1127.75
1018.425	1120.75
1018.641	1063.75
1018.856	1047.75
1019.072	1091.75
1019.288	1103.75
1019.503	1083.75
1019.719	992.75
1019.934	1039.75
1020.149	1098.75
1020.365	1037.75
1020.58	1018.75
1020.795	1065.75
1021.011	1000.75
1021.226	1006.75
1021.441	1031.75
1021.656	938.75
1021.871	892.75
1022.086	914.75
1022.301	908.75
1022.516	881.75
1022.731	952.75
1022.946	873.75
1023.16	872.75
1023.375	856.75
1023.59	816.75
1023.804	771.75
1024.019	929.75
1024.234	792.75
1024.448	827.75
1024.663	760.75
1024.877	787.75
1025.092	799.75
1025.306	829.75
1025.52	711.75
1025.734	824.75
1025.949	748.75
1026.163	725.75
1026.377	685.75
1026.591	733.75
1026.805	668.75
1027.019	647.75
1027.233	634.75
1027.447	609.75
1027.661	690.75
1027.875	643.75
1028.088	644.75
1028.302	578.75
1028.516	585.75
1028.73	577.75
1028.943	578.75
1029.157	534.75
1029.37	505.75
1029.584	-2.25
1029.797	-1.25
1030.011	-1.25
1030.224	-3.25
