Data from QEP037381__96__10-51-54-311.txt Node

Date: Fri Apr 28 10:51:54 EDT 2023
User: dcclab
Spectrometer: QEP03738
Trigger mode: 4
Integration Time (sec): 1.000000E1
Scans to average: 1
Electric dark correction enabled: true
Nonlinearity correction enabled: false
Boxcar width: 0
XAxis mode: Wavelengths
Number of Pixels in Spectrum: 1044
>>>>>Begin Spectral Data<<<<<
784.041	15.5
784.3	0.5
784.558	-3.5
784.817	-4.5
785.075	87804.5
785.334	17790.5
785.592	9207.5
785.851	6468.5
786.109	4858.5
786.368	3813.5
786.626	3083.5
786.884	2542.5
787.143	2105.5
787.401	1737.5
787.659	1565.5
787.917	1307.5
788.175	1228.5
788.433	1061.5
788.691	931.5
788.949	877.5
789.207	830.5
789.465	718.5
789.723	667.5
789.98	625.5
790.238	643.5
790.496	609.5
790.753	574.5
791.011	621.5
791.268	548.5
791.526	527.5
791.783	541.5
792.041	521.5
792.298	438.5
792.556	508.5
792.813	496.5
793.07	465.5
793.327	435.5
793.584	508.5
793.841	458.5
794.099	460.5
794.356	534.5
794.613	424.5
794.869	453.5
795.126	419.5
795.383	404.5
795.64	423.5
795.897	371.5
796.153	445.5
796.41	424.5
796.667	399.5
796.923	410.5
797.18	416.5
797.436	432.5
797.693	391.5
797.949	441.5
798.206	485.5
798.462	390.5
798.718	448.5
798.974	418.5
799.231	446.5
799.487	448.5
799.743	439.5
799.999	472.5
800.255	470.5
800.511	455.5
800.767	504.5
801.023	477.5
801.279	505.5
801.534	522.5
801.79	563.5
802.046	572.5
802.302	708.5
802.557	801.5
802.813	964.5
803.068	1176.5
803.324	1615.5
803.579	2190.5
803.835	2987.5
804.09	4039.5
804.345	5028.5
804.601	6066.5
804.856	6973.5
805.111	7725.5
805.366	8212.5
805.621	8581.5
805.876	8809.5
806.131	8999.5
806.386	9149.5
806.641	9239.5
806.896	9380.5
807.151	9531.5
807.406	9587.5
807.661	9819.5
807.915	9968.5
808.17	10153.5
808.425	10213.5
808.679	10293.5
808.934	10488.5
809.188	10457.5
809.443	10643.5
809.697	10798.5
809.951	10815.5
810.206	10854.5
810.46	11022.5
810.714	11096.5
810.968	11259.5
811.223	11344.5
811.477	11480.5
811.731	11529.5
811.985	11486.5
812.239	11512.5
812.493	11502.5
812.747	11520.5
813	11570.5
813.254	11648.5
813.508	11844.5
813.762	11828.5
814.015	11878.5
814.269	11891.5
814.522	11939.5
814.776	12058.5
815.03	12175.5
815.283	12374.5
815.536	12564.5
815.79	12672.5
816.043	12898.5
816.296	13056.5
816.55	13186.5
816.803	13378.5
817.056	13646.5
817.309	13730.5
817.562	13896.5
817.815	13999.5
818.068	14057.5
818.321	14239.5
818.574	14341.5
818.827	14550.5
819.079	14675.5
819.332	15216.5
819.585	15345.5
819.838	15573.5
820.09	15470.5
820.343	15467.5
820.595	15520.5
820.848	15692.5
821.1	15807.5
821.353	15676.5
821.605	15698.5
821.857	15772.5
822.11	15521.5
822.362	15578.5
822.614	15510.5
822.866	15673.5
823.118	15693.5
823.37	15792.5
823.622	15926.5
823.874	16065.5
824.126	16018.5
824.378	15777.5
824.63	15964.5
824.882	15988.5
825.134	15915.5
825.385	15945.5
825.637	15700.5
825.888	15787.5
826.14	15726.5
826.392	15709.5
826.643	15476.5
826.895	15481.5
827.146	15425.5
827.397	15346.5
827.649	15344.5
827.9	15319.5
828.151	15334.5
828.402	15352.5
828.653	15427.5
828.905	15591.5
829.156	15624.5
829.407	15531.5
829.658	15835.5
829.909	16083.5
830.159	16263.5
830.41	16135.5
830.661	15736.5
830.912	15609.5
831.162	15622.5
831.413	15603.5
831.664	15663.5
831.914	15587.5
832.165	15592.5
832.415	15467.5
832.666	15504.5
832.916	15658.5
833.167	15565.5
833.417	15605.5
833.667	15397.5
833.917	15467.5
834.168	15382.5
834.418	15339.5
834.668	15339.5
834.918	15192.5
835.168	15226.5
835.418	15077.5
835.668	15028.5
835.918	15091.5
836.167	14976.5
836.417	14928.5
836.667	15001.5
836.917	15140.5
837.166	15133.5
837.416	15217.5
837.666	15165.5
837.915	15087.5
838.165	15043.5
838.414	15004.5
838.663	15046.5
838.913	15126.5
839.162	15023.5
839.411	15167.5
839.661	14965.5
839.91	15098.5
840.159	15156.5
840.408	15212.5
840.657	15069.5
840.906	15096.5
841.155	15191.5
841.404	15056.5
841.653	15112.5
841.902	15137.5
842.15	15296.5
842.399	15459.5
842.648	15348.5
842.897	15321.5
843.145	15224.5
843.394	15149.5
843.642	14978.5
843.891	14867.5
844.139	14667.5
844.388	14482.5
844.636	14472.5
844.884	14529.5
845.133	14544.5
845.381	14545.5
845.629	14616.5
845.877	14566.5
846.125	14626.5
846.373	14608.5
846.621	14491.5
846.869	14338.5
847.117	14266.5
847.365	14242.5
847.613	14228.5
847.861	14223.5
848.108	14371.5
848.356	14386.5
848.604	14290.5
848.851	14317.5
849.099	14255.5
849.346	14332.5
849.594	14341.5
849.841	14350.5
850.089	14427.5
850.336	14458.5
850.583	14484.5
850.831	14348.5
851.078	14369.5
851.325	14485.5
851.572	14656.5
851.819	14473.5
852.066	14014.5
852.313	13779.5
852.56	13754.5
852.807	13578.5
853.054	13730.5
853.301	13711.5
853.548	13802.5
853.794	13980.5
854.041	13927.5
854.288	13928.5
854.534	14192.5
854.781	14255.5
855.028	14261.5
855.274	14363.5
855.52	14455.5
855.767	14562.5
856.013	14796.5
856.26	15103.5
856.506	14342.5
856.752	14272.5
856.998	14355.5
857.244	14316.5
857.49	14485.5
857.736	14570.5
857.982	14457.5
858.228	14292.5
858.474	14020.5
858.72	13893.5
858.966	13734.5
859.212	13570.5
859.458	13479.5
859.703	13369.5
859.949	13157.5
860.195	13146.5
860.44	13241.5
860.686	13300.5
860.931	13353.5
861.177	13095.5
861.422	12965.5
861.667	12625.5
861.913	12660.5
862.158	12556.5
862.403	12675.5
862.648	12670.5
862.893	12654.5
863.138	12596.5
863.384	12588.5
863.629	12502.5
863.873	12548.5
864.118	12591.5
864.363	12453.5
864.608	12504.5
864.853	12369.5
865.098	12215.5
865.342	12195.5
865.587	12163.5
865.832	12244.5
866.076	12133.5
866.321	12177.5
866.565	12139.5
866.81	12058.5
867.054	12084.5
867.298	12033.5
867.543	12062.5
867.787	11967.5
868.031	12016.5
868.275	11968.5
868.519	12032.5
868.764	12041.5
869.008	12037.5
869.252	12078.5
869.496	12101.5
869.739	12126.5
869.983	12263.5
870.227	12275.5
870.471	12380.5
870.715	12508.5
870.958	12593.5
871.202	12655.5
871.446	12739.5
871.689	12719.5
871.933	12687.5
872.176	12698.5
872.42	12671.5
872.663	12643.5
872.906	12876.5
873.15	13174.5
873.393	13382.5
873.636	13545.5
873.879	13183.5
874.122	12937.5
874.366	12461.5
874.609	12200.5
874.852	12030.5
875.095	11871.5
875.337	11752.5
875.58	11589.5
875.823	11584.5
876.066	11555.5
876.309	11460.5
876.551	11376.5
876.794	11225.5
877.037	11435.5
877.279	11249.5
877.522	11190.5
877.764	11261.5
878.007	11024.5
878.249	11055.5
878.491	11040.5
878.734	11020.5
878.976	10949.5
879.218	10865.5
879.46	10817.5
879.702	10753.5
879.945	10616.5
880.187	10408.5
880.429	10316.5
880.671	10296.5
880.912	10275.5
881.154	10280.5
881.396	10195.5
881.638	10241.5
881.88	10308.5
882.121	10341.5
882.363	10258.5
882.605	10363.5
882.846	10465.5
883.088	10560.5
883.329	10759.5
883.571	11186.5
883.812	11821.5
884.053	12583.5
884.295	13335.5
884.536	13818.5
884.777	13515.5
885.018	13147.5
885.259	12923.5
885.5	12629.5
885.742	12631.5
885.982	12444.5
886.223	12267.5
886.464	12023.5
886.705	11657.5
886.946	11388.5
887.187	10865.5
887.428	10532.5
887.668	10191.5
887.909	9830.5
888.15	9611.5
888.39	9495.5
888.631	9427.5
888.871	9250.5
889.111	9199.5
889.352	9081.5
889.592	8921.5
889.833	8882.5
890.073	8846.5
890.313	8789.5
890.553	8653.5
890.793	8637.5
891.033	8615.5
891.273	8536.5
891.513	8557.5
891.753	8521.5
891.993	8460.5
892.233	8512.5
892.473	8543.5
892.713	8534.5
892.952	8523.5
893.192	8514.5
893.432	8527.5
893.671	8515.5
893.911	8491.5
894.15	8377.5
894.39	8315.5
894.629	8296.5
894.869	8223.5
895.108	8162.5
895.347	8120.5
895.587	8158.5
895.826	8159.5
896.065	8138.5
896.304	8158.5
896.543	8119.5
896.782	8048.5
897.021	8135.5
897.26	8120.5
897.499	8170.5
897.738	8190.5
897.977	8075.5
898.216	8023.5
898.454	7894.5
898.693	7914.5
898.932	7987.5
899.17	7908.5
899.409	7916.5
899.647	7899.5
899.886	7919.5
900.124	7966.5
900.363	8041.5
900.601	8099.5
900.839	8119.5
901.078	8263.5
901.316	8435.5
901.554	8589.5
901.792	8696.5
902.03	8773.5
902.268	8714.5
902.506	8690.5
902.744	8611.5
902.982	8558.5
903.22	8340.5
903.458	8064.5
903.695	7870.5
903.933	7627.5
904.171	7486.5
904.409	7305.5
904.646	7215.5
904.884	7007.5
905.121	7056.5
905.359	6948.5
905.596	6846.5
905.833	6664.5
906.071	6769.5
906.308	6749.5
906.545	6729.5
906.783	6619.5
907.02	6700.5
907.257	6645.5
907.494	6621.5
907.731	6564.5
907.968	6613.5
908.205	6553.5
908.442	6450.5
908.679	6470.5
908.915	6387.5
909.152	6321.5
909.389	6250.5
909.626	6238.5
909.862	6230.5
910.099	6131.5
910.335	6214.5
910.572	6003.5
910.808	6120.5
911.045	6045.5
911.281	5967.5
911.518	6106.5
911.754	5976.5
911.99	5965.5
912.226	5892.5
912.463	5850.5
912.699	5782.5
912.935	5712.5
913.171	5710.5
913.407	5603.5
913.643	5644.5
913.879	5594.5
914.114	5563.5
914.35	5447.5
914.586	5417.5
914.822	5383.5
915.057	5463.5
915.293	5359.5
915.529	5264.5
915.764	5361.5
916	5373.5
916.235	5286.5
916.471	5346.5
916.706	5247.5
916.941	5289.5
917.177	5233.5
917.412	5289.5
917.647	5237.5
917.882	5250.5
918.117	5251.5
918.352	5223.5
918.588	5260.5
918.823	5120.5
919.057	5139.5
919.292	4968.5
919.527	5034.5
919.762	4989.5
919.997	4998.5
920.232	4872.5
920.466	4844.5
920.701	4778.5
920.935	4783.5
921.17	4739.5
921.405	4714.5
921.639	4766.5
921.873	4710.5
922.108	4639.5
922.342	4649.5
922.576	4630.5
922.811	4573.5
923.045	4630.5
923.279	4665.5
923.513	4513.5
923.747	4592.5
923.981	4553.5
924.215	4496.5
924.449	4466.5
924.683	4412.5
924.917	4420.5
925.151	4423.5
925.385	4457.5
925.618	4411.5
925.852	4422.5
926.086	4308.5
926.319	4352.5
926.553	4342.5
926.786	4381.5
927.02	4340.5
927.253	4397.5
927.486	4381.5
927.72	4258.5
927.953	4371.5
928.186	4296.5
928.42	4316.5
928.653	4265.5
928.886	4181.5
929.119	4254.5
929.352	4212.5
929.585	4239.5
929.818	4133.5
930.051	4140.5
930.284	4137.5
930.516	4001.5
930.749	4023.5
930.982	4021.5
931.215	4049.5
931.447	3991.5
931.68	3956.5
931.912	4004.5
932.145	3939.5
932.377	3974.5
932.61	4141.5
932.842	3890.5
933.074	3949.5
933.307	3938.5
933.539	4010.5
933.771	3976.5
934.003	3975.5
934.236	4039.5
934.468	4057.5
934.7	3930.5
934.932	3964.5
935.164	3936.5
935.395	3866.5
935.627	3877.5
935.859	3905.5
936.091	3821.5
936.323	3897.5
936.554	3898.5
936.786	3809.5
937.017	3806.5
937.249	3836.5
937.481	3757.5
937.712	3833.5
937.943	3766.5
938.175	3818.5
938.406	3791.5
938.637	3828.5
938.869	3713.5
939.1	3789.5
939.331	3697.5
939.562	3750.5
939.793	3725.5
940.024	3747.5
940.255	3781.5
940.486	3676.5
940.717	3683.5
940.948	3698.5
941.179	3633.5
941.409	3657.5
941.64	3629.5
941.871	3670.5
942.102	3635.5
942.332	3612.5
942.563	3643.5
942.793	3655.5
943.024	3564.5
943.254	3637.5
943.484	3653.5
943.715	3624.5
943.945	3614.5
944.175	3576.5
944.405	3537.5
944.636	3550.5
944.866	3607.5
945.096	3601.5
945.326	3536.5
945.556	3543.5
945.786	3584.5
946.016	3526.5
946.245	3432.5
946.475	3467.5
946.705	3440.5
946.935	3512.5
947.164	3458.5
947.394	3396.5
947.624	3414.5
947.853	3432.5
948.083	3430.5
948.312	3391.5
948.542	3311.5
948.771	3280.5
949	3289.5
949.23	3314.5
949.459	3306.5
949.688	3373.5
949.917	3279.5
950.146	3309.5
950.375	3406.5
950.604	3268.5
950.833	3366.5
951.062	3362.5
951.291	3321.5
951.52	3250.5
951.749	3272.5
951.978	3253.5
952.206	3200.5
952.435	3213.5
952.664	3256.5
952.892	3274.5
953.121	3244.5
953.349	3265.5
953.578	3228.5
953.806	3206.5
954.035	3136.5
954.263	3196.5
954.491	3117.5
954.719	3183.5
954.948	3087.5
955.176	3101.5
955.404	3006.5
955.632	3082.5
955.86	3073.5
956.088	3039.5
956.316	3020.5
956.544	3104.5
956.772	2993.5
956.999	2978.5
957.227	3051.5
957.455	2942.5
957.683	2978.5
957.91	2912.5
958.138	2922.5
958.365	2936.5
958.593	2921.5
958.82	2827.5
959.048	2901.5
959.275	2831.5
959.502	2871.5
959.73	2833.5
959.957	2897.5
960.184	2923.5
960.411	2853.5
960.638	2888.5
960.865	2844.5
961.092	2887.5
961.319	2795.5
961.546	2899.5
961.773	2863.5
962	2853.5
962.227	2866.5
962.454	2808.5
962.68	2827.5
962.907	2784.5
963.134	2728.5
963.36	2756.5
963.587	2779.5
963.813	2700.5
964.04	2734.5
964.266	2672.5
964.493	2817.5
964.719	2722.5
964.945	2710.5
965.171	2610.5
965.398	2664.5
965.624	2692.5
965.85	2588.5
966.076	2585.5
966.302	2647.5
966.528	2585.5
966.754	2619.5
966.98	2618.5
967.206	2590.5
967.431	2552.5
967.657	2608.5
967.883	2574.5
968.109	2540.5
968.334	2519.5
968.56	2519.5
968.785	2560.5
969.011	2483.5
969.236	2536.5
969.462	2476.5
969.687	2485.5
969.912	2521.5
970.138	2572.5
970.363	2466.5
970.588	2490.5
970.813	2433.5
971.038	2443.5
971.263	2467.5
971.488	2454.5
971.713	2501.5
971.938	2481.5
972.163	2368.5
972.388	2407.5
972.613	2398.5
972.838	2408.5
973.062	2344.5
973.287	2393.5
973.512	2316.5
973.736	2376.5
973.961	2318.5
974.185	2335.5
974.41	2337.5
974.634	2247.5
974.858	2240.5
975.083	2264.5
975.307	2272.5
975.531	2223.5
975.755	2175.5
975.98	2231.5
976.204	2159.5
976.428	2166.5
976.652	2140.5
976.876	2166.5
977.1	2151.5
977.324	2106.5
977.547	2197.5
977.771	2172.5
977.995	2141.5
978.219	2071.5
978.442	2230.5
978.666	2136.5
978.89	2123.5
979.113	2146.5
979.337	2096.5
979.56	2093.5
979.783	2192.5
980.007	2043.5
980.23	2080.5
980.453	2063.5
980.677	2092.5
980.9	2060.5
981.123	1980.5
981.346	2086.5
981.569	2073.5
981.792	2057.5
982.015	2042.5
982.238	1996.5
982.461	2057.5
982.684	2025.5
982.907	1969.5
983.129	1955.5
983.352	1994.5
983.575	1983.5
983.797	2024.5
984.02	1932.5
984.242	1940.5
984.465	1954.5
984.687	1960.5
984.91	1980.5
985.132	1999.5
985.354	1965.5
985.577	1951.5
985.799	1948.5
986.021	1856.5
986.243	1888.5
986.465	1906.5
986.687	1942.5
986.909	2001.5
987.131	1919.5
987.353	1887.5
987.575	1926.5
987.797	1892.5
988.019	1834.5
988.241	1908.5
988.462	1883.5
988.684	1922.5
988.906	1937.5
989.127	1981.5
989.349	1844.5
989.57	1893.5
989.792	1933.5
990.013	1903.5
990.234	1934.5
990.456	1948.5
990.677	1936.5
990.898	1859.5
991.119	1915.5
991.341	1910.5
991.562	1823.5
991.783	1900.5
992.004	1814.5
992.225	1773.5
992.446	1860.5
992.667	1767.5
992.887	1836.5
993.108	1750.5
993.329	1833.5
993.55	1765.5
993.77	1754.5
993.991	1753.5
994.212	1788.5
994.432	1773.5
994.653	1767.5
994.873	1777.5
995.093	1677.5
995.314	1719.5
995.534	1810.5
995.754	1832.5
995.975	1823.5
996.195	1756.5
996.415	1799.5
996.635	1805.5
996.855	1804.5
997.075	1794.5
997.295	1813.5
997.515	1791.5
997.735	1855.5
997.955	1831.5
998.174	1830.5
998.394	1803.5
998.614	1850.5
998.834	1784.5
999.053	1828.5
999.273	1816.5
999.492	1820.5
999.712	1766.5
999.931	1690.5
1000.151	1744.5
1000.37	1706.5
1000.589	1755.5
1000.809	1684.5
1001.028	1784.5
1001.247	1729.5
1001.466	1592.5
1001.685	1769.5
1001.904	1710.5
1002.123	1663.5
1002.342	1658.5
1002.561	1616.5
1002.78	1647.5
1002.999	1698.5
1003.218	1619.5
1003.436	1604.5
1003.655	1659.5
1003.874	1614.5
1004.092	1639.5
1004.311	1670.5
1004.53	1630.5
1004.748	1691.5
1004.966	1629.5
1005.185	1692.5
1005.403	1699.5
1005.622	1691.5
1005.84	1772.5
1006.058	1631.5
1006.276	1702.5
1006.494	2076.5
1006.712	1709.5
1006.931	1789.5
1007.149	1736.5
1007.367	1760.5
1007.584	1802.5
1007.802	1851.5
1008.02	1837.5
1008.238	1952.5
1008.456	2034.5
1008.673	1940.5
1008.891	2103.5
1009.109	2130.5
1009.326	2241.5
1009.544	2427.5
1009.761	2457.5
1009.979	2675.5
1010.196	2881.5
1010.413	3117.5
1010.631	3326.5
1010.848	3489.5
1011.065	3552.5
1011.282	3499.5
1011.5	3410.5
1011.717	3528.5
1011.934	3406.5
1012.151	3447.5
1012.368	3367.5
1012.585	3323.5
1012.801	3394.5
1013.018	3370.5
1013.235	3354.5
1013.452	3421.5
1013.669	3481.5
1013.885	3517.5
1014.102	3555.5
1014.318	3560.5
1014.535	3528.5
1014.751	3535.5
1014.968	3498.5
1015.184	3442.5
1015.401	3327.5
1015.617	3310.5
1015.833	3247.5
1016.049	3198.5
1016.266	3163.5
1016.482	3113.5
1016.698	3040.5
1016.914	2992.5
1017.13	2941.5
1017.346	2897.5
1017.562	2921.5
1017.778	2821.5
1017.993	2796.5
1018.209	2836.5
1018.425	2827.5
1018.641	2757.5
1018.856	2742.5
1019.072	2756.5
1019.288	2808.5
1019.503	2760.5
1019.719	2654.5
1019.934	2632.5
1020.149	2645.5
1020.365	2577.5
1020.58	2445.5
1020.795	2415.5
1021.011	2319.5
1021.226	2260.5
1021.441	2228.5
1021.656	2138.5
1021.871	2029.5
1022.086	1976.5
1022.301	1953.5
1022.516	1917.5
1022.731	1921.5
1022.946	1814.5
1023.16	1753.5
1023.375	1734.5
1023.59	1687.5
1023.804	1612.5
1024.019	1648.5
1024.234	1500.5
1024.448	1513.5
1024.663	1373.5
1024.877	1401.5
1025.092	1394.5
1025.306	1382.5
1025.52	1259.5
1025.734	1323.5
1025.949	1218.5
1026.163	1179.5
1026.377	1111.5
1026.591	1150.5
1026.805	1047.5
1027.019	1046.5
1027.233	1010.5
1027.447	954.5
1027.661	1037.5
1027.875	979.5
1028.088	961.5
1028.302	876.5
1028.516	873.5
1028.73	846.5
1028.943	840.5
1029.157	767.5
1029.37	730.5
1029.584	-3.5
1029.797	0.5
1030.011	-0.5
1030.224	-4.5
