Data from QEP037381__98__10-52-14-311.txt Node

Date: Fri Apr 28 10:52:14 EDT 2023
User: dcclab
Spectrometer: QEP03738
Trigger mode: 4
Integration Time (sec): 1.000000E1
Scans to average: 1
Electric dark correction enabled: true
Nonlinearity correction enabled: false
Boxcar width: 0
XAxis mode: Wavelengths
Number of Pixels in Spectrum: 1044
>>>>>Begin Spectral Data<<<<<
784.041	14.25
784.3	0.25
784.558	-4.75
784.817	-2.75
785.075	87880.25
785.334	17589.25
785.592	9141.25
785.851	6430.25
786.109	4890.25
786.368	3718.25
786.626	3046.25
786.884	2488.25
787.143	2084.25
787.401	1735.25
787.659	1554.25
787.917	1318.25
788.175	1202.25
788.433	1025.25
788.691	915.25
788.949	831.25
789.207	809.25
789.465	720.25
789.723	661.25
789.98	614.25
790.238	639.25
790.496	609.25
790.753	575.25
791.011	618.25
791.268	552.25
791.526	533.25
791.783	548.25
792.041	528.25
792.298	442.25
792.556	502.25
792.813	482.25
793.07	451.25
793.327	442.25
793.584	519.25
793.841	444.25
794.099	450.25
794.356	520.25
794.613	413.25
794.869	469.25
795.126	426.25
795.383	401.25
795.64	431.25
795.897	376.25
796.153	422.25
796.41	416.25
796.667	401.25
796.923	408.25
797.18	398.25
797.436	429.25
797.693	394.25
797.949	440.25
798.206	456.25
798.462	387.25
798.718	429.25
798.974	417.25
799.231	464.25
799.487	434.25
799.743	437.25
799.999	483.25
800.255	456.25
800.511	452.25
800.767	493.25
801.023	477.25
801.279	485.25
801.534	510.25
801.79	565.25
802.046	565.25
802.302	666.25
802.557	772.25
802.813	930.25
803.068	1143.25
803.324	1558.25
803.579	2130.25
803.835	2865.25
804.09	3766.25
804.345	4688.25
804.601	5566.25
804.856	6416.25
805.111	7039.25
805.366	7484.25
805.621	7813.25
805.876	8102.25
806.131	8198.25
806.386	8351.25
806.641	8423.25
806.896	8494.25
807.151	8680.25
807.406	8709.25
807.661	8944.25
807.915	9051.25
808.17	9141.25
808.425	9263.25
808.679	9268.25
808.934	9394.25
809.188	9468.25
809.443	9665.25
809.697	9791.25
809.951	9742.25
810.206	9839.25
810.46	9953.25
810.714	9991.25
810.968	10188.25
811.223	10218.25
811.477	10359.25
811.731	10327.25
811.985	10317.25
812.239	10319.25
812.493	10241.25
812.747	10428.25
813	10355.25
813.254	10482.25
813.508	10567.25
813.762	10546.25
814.015	10649.25
814.269	10634.25
814.522	10642.25
814.776	10753.25
815.03	10839.25
815.283	11014.25
815.536	11143.25
815.79	11321.25
816.043	11517.25
816.296	11639.25
816.55	11690.25
816.803	11825.25
817.056	12083.25
817.309	12162.25
817.562	12264.25
817.815	12350.25
818.068	12382.25
818.321	12441.25
818.574	12632.25
818.827	12905.25
819.079	12997.25
819.332	13370.25
819.585	13546.25
819.838	13680.25
820.09	13604.25
820.343	13588.25
820.595	13643.25
820.848	13792.25
821.1	13797.25
821.353	13709.25
821.605	13685.25
821.857	13670.25
822.11	13537.25
822.362	13569.25
822.614	13556.25
822.866	13605.25
823.118	13539.25
823.37	13681.25
823.622	13874.25
823.874	14007.25
824.126	13877.25
824.378	13764.25
824.63	13785.25
824.882	13797.25
825.134	13793.25
825.385	13743.25
825.637	13681.25
825.888	13595.25
826.14	13612.25
826.392	13560.25
826.643	13385.25
826.895	13272.25
827.146	13174.25
827.397	13192.25
827.649	13279.25
827.9	13160.25
828.151	13150.25
828.402	13153.25
828.653	13236.25
828.905	13310.25
829.156	13407.25
829.407	13332.25
829.658	13514.25
829.909	13837.25
830.159	13959.25
830.41	13797.25
830.661	13519.25
830.912	13386.25
831.162	13297.25
831.413	13363.25
831.664	13392.25
831.914	13226.25
832.165	13242.25
832.415	13184.25
832.666	13250.25
832.916	13270.25
833.167	13145.25
833.417	13165.25
833.667	13131.25
833.917	13001.25
834.168	13037.25
834.418	13028.25
834.668	12974.25
834.918	12865.25
835.168	12773.25
835.418	12705.25
835.668	12750.25
835.918	12780.25
836.167	12647.25
836.417	12591.25
836.667	12611.25
836.917	12683.25
837.166	12681.25
837.416	12761.25
837.666	12687.25
837.915	12677.25
838.165	12727.25
838.414	12650.25
838.663	12595.25
838.913	12696.25
839.162	12670.25
839.411	12727.25
839.661	12581.25
839.91	12648.25
840.159	12595.25
840.408	12745.25
840.657	12735.25
840.906	12662.25
841.155	12571.25
841.404	12582.25
841.653	12609.25
841.902	12610.25
842.15	12806.25
842.399	12904.25
842.648	12835.25
842.897	12808.25
843.145	12553.25
843.394	12512.25
843.642	12419.25
843.891	12302.25
844.139	12211.25
844.388	11998.25
844.636	12003.25
844.884	12026.25
845.133	12057.25
845.381	12039.25
845.629	12083.25
845.877	12040.25
846.125	12028.25
846.373	12026.25
846.621	11948.25
846.869	11882.25
847.117	11809.25
847.365	11713.25
847.613	11833.25
847.861	11735.25
848.108	11875.25
848.356	11846.25
848.604	11739.25
848.851	11779.25
849.099	11726.25
849.346	11765.25
849.594	11754.25
849.841	11754.25
850.089	11771.25
850.336	11735.25
850.583	11859.25
850.831	11769.25
851.078	11690.25
851.325	11773.25
851.572	11976.25
851.819	11777.25
852.066	11417.25
852.313	11275.25
852.56	11082.25
852.807	11086.25
853.054	11135.25
853.301	11174.25
853.548	11176.25
853.794	11283.25
854.041	11337.25
854.288	11335.25
854.534	11587.25
854.781	11539.25
855.028	11423.25
855.274	11607.25
855.52	11703.25
855.767	11882.25
856.013	12076.25
856.26	12283.25
856.506	11619.25
856.752	11499.25
856.998	11402.25
857.244	11543.25
857.49	11768.25
857.736	11753.25
857.982	11659.25
858.228	11506.25
858.474	11215.25
858.72	11072.25
858.966	10934.25
859.212	10887.25
859.458	10822.25
859.703	10672.25
859.949	10517.25
860.195	10497.25
860.44	10512.25
860.686	10641.25
860.931	10637.25
861.177	10527.25
861.422	10218.25
861.667	10120.25
861.913	10026.25
862.158	10026.25
862.403	10040.25
862.648	10031.25
862.893	10018.25
863.138	10023.25
863.384	9911.25
863.629	9975.25
863.873	9912.25
864.118	9939.25
864.363	9847.25
864.608	9802.25
864.853	9801.25
865.098	9682.25
865.342	9612.25
865.587	9551.25
865.832	9542.25
866.076	9534.25
866.321	9487.25
866.565	9501.25
866.81	9376.25
867.054	9476.25
867.298	9463.25
867.543	9390.25
867.787	9437.25
868.031	9428.25
868.275	9405.25
868.519	9358.25
868.764	9337.25
869.008	9344.25
869.252	9487.25
869.496	9443.25
869.739	9460.25
869.983	9628.25
870.227	9735.25
870.471	9683.25
870.715	9746.25
870.958	9764.25
871.202	9860.25
871.446	9906.25
871.689	9918.25
871.933	9853.25
872.176	9847.25
872.42	9773.25
872.663	9772.25
872.906	10084.25
873.15	10214.25
873.393	10437.25
873.636	10497.25
873.879	10210.25
874.122	9959.25
874.366	9708.25
874.609	9488.25
874.852	9269.25
875.095	9141.25
875.337	8998.25
875.58	8946.25
875.823	9013.25
876.066	8940.25
876.309	8844.25
876.551	8776.25
876.794	8617.25
877.037	8724.25
877.279	8638.25
877.522	8602.25
877.764	8572.25
878.007	8543.25
878.249	8562.25
878.491	8465.25
878.734	8478.25
878.976	8353.25
879.218	8330.25
879.46	8253.25
879.702	8175.25
879.945	8057.25
880.187	7934.25
880.429	7854.25
880.671	7789.25
880.912	7797.25
881.154	7797.25
881.396	7661.25
881.638	7772.25
881.88	7801.25
882.121	7793.25
882.363	7744.25
882.605	7923.25
882.846	7971.25
883.088	8023.25
883.329	8106.25
883.571	8457.25
883.812	8941.25
884.053	9563.25
884.295	10181.25
884.536	10469.25
884.777	10311.25
885.018	10024.25
885.259	9784.25
885.5	9539.25
885.742	9592.25
885.982	9465.25
886.223	9234.25
886.464	9064.25
886.705	8744.25
886.946	8462.25
887.187	8122.25
887.428	7915.25
887.668	7612.25
887.909	7375.25
888.15	7186.25
888.39	7077.25
888.631	7013.25
888.871	6980.25
889.111	6852.25
889.352	6767.25
889.592	6619.25
889.833	6635.25
890.073	6563.25
890.313	6584.25
890.553	6392.25
890.793	6440.25
891.033	6408.25
891.273	6294.25
891.513	6287.25
891.753	6288.25
891.993	6277.25
892.233	6308.25
892.473	6358.25
892.713	6313.25
892.952	6274.25
893.192	6300.25
893.432	6221.25
893.671	6313.25
893.911	6256.25
894.15	6241.25
894.39	6125.25
894.629	6117.25
894.869	6045.25
895.108	6088.25
895.347	6002.25
895.587	6018.25
895.826	5932.25
896.065	5978.25
896.304	6003.25
896.543	6031.25
896.782	5915.25
897.021	5995.25
897.26	5941.25
897.499	5987.25
897.738	6013.25
897.977	5931.25
898.216	5926.25
898.454	5800.25
898.693	5791.25
898.932	5805.25
899.17	5818.25
899.409	5811.25
899.647	5752.25
899.886	5742.25
900.124	5830.25
900.363	5795.25
900.601	5940.25
900.839	5952.25
901.078	6012.25
901.316	6091.25
901.554	6212.25
901.792	6274.25
902.03	6252.25
902.268	6332.25
902.506	6310.25
902.744	6212.25
902.982	6205.25
903.22	5943.25
903.458	5839.25
903.695	5657.25
903.933	5519.25
904.171	5376.25
904.409	5260.25
904.646	5232.25
904.884	5106.25
905.121	5112.25
905.359	5004.25
905.596	4939.25
905.833	4874.25
906.071	4848.25
906.308	4866.25
906.545	4869.25
906.783	4781.25
907.02	4819.25
907.257	4723.25
907.494	4806.25
907.731	4761.25
907.968	4740.25
908.205	4676.25
908.442	4651.25
908.679	4665.25
908.915	4650.25
909.152	4577.25
909.389	4487.25
909.626	4489.25
909.862	4388.25
910.099	4391.25
910.335	4441.25
910.572	4304.25
910.808	4381.25
911.045	4339.25
911.281	4273.25
911.518	4344.25
911.754	4227.25
911.99	4269.25
912.226	4167.25
912.463	4187.25
912.699	4124.25
912.935	4098.25
913.171	4106.25
913.407	4019.25
913.643	4045.25
913.879	3967.25
914.114	3951.25
914.35	3843.25
914.586	3913.25
914.822	3820.25
915.057	3859.25
915.293	3718.25
915.529	3778.25
915.764	3864.25
916	3775.25
916.235	3797.25
916.471	3777.25
916.706	3675.25
916.941	3781.25
917.177	3699.25
917.412	3728.25
917.647	3690.25
917.882	3720.25
918.117	3720.25
918.352	3696.25
918.588	3706.25
918.823	3632.25
919.057	3635.25
919.292	3503.25
919.527	3599.25
919.762	3505.25
919.997	3535.25
920.232	3411.25
920.466	3475.25
920.701	3317.25
920.935	3353.25
921.17	3325.25
921.405	3286.25
921.639	3341.25
921.873	3303.25
922.108	3300.25
922.342	3319.25
922.576	3275.25
922.811	3198.25
923.045	3229.25
923.279	3294.25
923.513	3171.25
923.747	3241.25
923.981	3212.25
924.215	3153.25
924.449	3122.25
924.683	3114.25
924.917	3122.25
925.151	3137.25
925.385	3163.25
925.618	3066.25
925.852	3090.25
926.086	3028.25
926.319	3070.25
926.553	3082.25
926.786	3108.25
927.02	3010.25
927.253	3136.25
927.486	3096.25
927.72	3019.25
927.953	3015.25
928.186	3042.25
928.42	3031.25
928.653	2947.25
928.886	2916.25
929.119	2970.25
929.352	2993.25
929.585	2932.25
929.818	2882.25
930.051	2878.25
930.284	2922.25
930.516	2802.25
930.749	2837.25
930.982	2867.25
931.215	2826.25
931.447	2758.25
931.68	2772.25
931.912	2737.25
932.145	2762.25
932.377	2813.25
932.61	2890.25
932.842	2717.25
933.074	2794.25
933.307	2751.25
933.539	2804.25
933.771	2813.25
934.003	2758.25
934.236	2839.25
934.468	2837.25
934.7	2775.25
934.932	2795.25
935.164	2723.25
935.395	2717.25
935.627	2743.25
935.859	2720.25
936.091	2649.25
936.323	2731.25
936.554	2736.25
936.786	2690.25
937.017	2612.25
937.249	2708.25
937.481	2606.25
937.712	2697.25
937.943	2630.25
938.175	2615.25
938.406	2613.25
938.637	2731.25
938.869	2580.25
939.1	2659.25
939.331	2582.25
939.562	2634.25
939.793	2591.25
940.024	2621.25
940.255	2622.25
940.486	2565.25
940.717	2543.25
940.948	2574.25
941.179	2499.25
941.409	2530.25
941.64	2525.25
941.871	2529.25
942.102	2503.25
942.332	2495.25
942.563	2539.25
942.793	2538.25
943.024	2468.25
943.254	2508.25
943.484	2573.25
943.715	2552.25
943.945	2523.25
944.175	2464.25
944.405	2470.25
944.636	2415.25
944.866	2490.25
945.096	2505.25
945.326	2440.25
945.556	2491.25
945.786	2515.25
946.016	2473.25
946.245	2340.25
946.475	2407.25
946.705	2381.25
946.935	2373.25
947.164	2411.25
947.394	2330.25
947.624	2374.25
947.853	2408.25
948.083	2370.25
948.312	2330.25
948.542	2241.25
948.771	2303.25
949	2278.25
949.23	2295.25
949.459	2286.25
949.688	2349.25
949.917	2257.25
950.146	2304.25
950.375	2370.25
950.604	2253.25
950.833	2323.25
951.062	2339.25
951.291	2270.25
951.52	2262.25
951.749	2251.25
951.978	2219.25
952.206	2205.25
952.435	2222.25
952.664	2295.25
952.892	2300.25
953.121	2226.25
953.349	2258.25
953.578	2229.25
953.806	2185.25
954.035	2161.25
954.263	2188.25
954.491	2088.25
954.719	2193.25
954.948	2114.25
955.176	2140.25
955.404	2081.25
955.632	2129.25
955.86	2125.25
956.088	2116.25
956.316	2099.25
956.544	2158.25
956.772	2095.25
956.999	2074.25
957.227	2132.25
957.455	2020.25
957.683	2079.25
957.91	2020.25
958.138	2002.25
958.365	2010.25
958.593	2004.25
958.82	1971.25
959.048	2005.25
959.275	1974.25
959.502	1966.25
959.73	1965.25
959.957	2004.25
960.184	2002.25
960.411	1946.25
960.638	2028.25
960.865	1949.25
961.092	2010.25
961.319	1914.25
961.546	2023.25
961.773	1995.25
962	1944.25
962.227	1980.25
962.454	1935.25
962.68	1948.25
962.907	1954.25
963.134	1892.25
963.36	1926.25
963.587	1945.25
963.813	1876.25
964.04	1922.25
964.266	1827.25
964.493	1909.25
964.719	1901.25
964.945	1893.25
965.171	1820.25
965.398	1868.25
965.624	1874.25
965.85	1807.25
966.076	1809.25
966.302	1852.25
966.528	1813.25
966.754	1822.25
966.98	1858.25
967.206	1828.25
967.431	1748.25
967.657	1827.25
967.883	1824.25
968.109	1781.25
968.334	1747.25
968.56	1760.25
968.785	1774.25
969.011	1748.25
969.236	1795.25
969.462	1741.25
969.687	1751.25
969.912	1791.25
970.138	1831.25
970.363	1743.25
970.588	1741.25
970.813	1719.25
971.038	1711.25
971.263	1701.25
971.488	1726.25
971.713	1752.25
971.938	1755.25
972.163	1660.25
972.388	1691.25
972.613	1678.25
972.838	1671.25
973.062	1641.25
973.287	1655.25
973.512	1600.25
973.736	1637.25
973.961	1654.25
974.185	1624.25
974.41	1640.25
974.634	1579.25
974.858	1549.25
975.083	1623.25
975.307	1668.25
975.531	1565.25
975.755	1505.25
975.98	1560.25
976.204	1488.25
976.428	1510.25
976.652	1502.25
976.876	1496.25
977.1	1509.25
977.324	1478.25
977.547	1544.25
977.771	1552.25
977.995	1499.25
978.219	1475.25
978.442	1553.25
978.666	1490.25
978.89	1514.25
979.113	1517.25
979.337	1496.25
979.56	1449.25
979.783	1551.25
980.007	1442.25
980.23	1502.25
980.453	1431.25
980.677	1506.25
980.9	1495.25
981.123	1378.25
981.346	1503.25
981.569	1461.25
981.792	1463.25
982.015	1433.25
982.238	1404.25
982.461	1429.25
982.684	1424.25
982.907	1398.25
983.129	1394.25
983.352	1463.25
983.575	1405.25
983.797	1424.25
984.02	1357.25
984.242	1393.25
984.465	1402.25
984.687	1429.25
984.91	1460.25
985.132	1447.25
985.354	1419.25
985.577	1405.25
985.799	1396.25
986.021	1314.25
986.243	1380.25
986.465	1374.25
986.687	1443.25
986.909	1448.25
987.131	1416.25
987.353	1365.25
987.575	1387.25
987.797	1357.25
988.019	1327.25
988.241	1381.25
988.462	1347.25
988.684	1388.25
988.906	1405.25
989.127	1438.25
989.349	1326.25
989.57	1373.25
989.792	1376.25
990.013	1395.25
990.234	1394.25
990.456	1401.25
990.677	1418.25
990.898	1334.25
991.119	1360.25
991.341	1380.25
991.562	1319.25
991.783	1377.25
992.004	1332.25
992.225	1313.25
992.446	1344.25
992.667	1274.25
992.887	1335.25
993.108	1251.25
993.329	1391.25
993.55	1329.25
993.77	1284.25
993.991	1275.25
994.212	1308.25
994.432	1319.25
994.653	1336.25
994.873	1290.25
995.093	1217.25
995.314	1284.25
995.534	1338.25
995.754	1350.25
995.975	1381.25
996.195	1287.25
996.415	1341.25
996.635	1300.25
996.855	1352.25
997.075	1328.25
997.295	1339.25
997.515	1296.25
997.735	1389.25
997.955	1333.25
998.174	1321.25
998.394	1314.25
998.614	1378.25
998.834	1306.25
999.053	1383.25
999.273	1315.25
999.492	1378.25
999.712	1311.25
999.931	1262.25
1000.151	1303.25
1000.37	1261.25
1000.589	1336.25
1000.809	1255.25
1001.028	1390.25
1001.247	1308.25
1001.466	1209.25
1001.685	1356.25
1001.904	1290.25
1002.123	1291.25
1002.342	1282.25
1002.561	1247.25
1002.78	1263.25
1002.999	1332.25
1003.218	1273.25
1003.436	1243.25
1003.655	1291.25
1003.874	1235.25
1004.092	1259.25
1004.311	1298.25
1004.53	1275.25
1004.748	1336.25
1004.966	1250.25
1005.185	1306.25
1005.403	1346.25
1005.622	1299.25
1005.84	1373.25
1006.058	1294.25
1006.276	1327.25
1006.494	1690.25
1006.712	1336.25
1006.931	1383.25
1007.149	1316.25
1007.367	1344.25
1007.584	1398.25
1007.802	1428.25
1008.02	1407.25
1008.238	1513.25
1008.456	1570.25
1008.673	1435.25
1008.891	1587.25
1009.109	1573.25
1009.326	1706.25
1009.544	1820.25
1009.761	1808.25
1009.979	1994.25
1010.196	2045.25
1010.413	2242.25
1010.631	2404.25
1010.848	2464.25
1011.065	2491.25
1011.282	2458.25
1011.5	2396.25
1011.717	2472.25
1011.934	2370.25
1012.151	2438.25
1012.368	2393.25
1012.585	2370.25
1012.801	2437.25
1013.018	2395.25
1013.235	2363.25
1013.452	2390.25
1013.669	2410.25
1013.885	2423.25
1014.102	2524.25
1014.318	2487.25
1014.535	2484.25
1014.751	2496.25
1014.968	2441.25
1015.184	2420.25
1015.401	2375.25
1015.617	2358.25
1015.833	2280.25
1016.049	2266.25
1016.266	2193.25
1016.482	2202.25
1016.698	2120.25
1016.914	2090.25
1017.13	2078.25
1017.346	2045.25
1017.562	2113.25
1017.778	2013.25
1017.993	1989.25
1018.209	2031.25
1018.425	2013.25
1018.641	1968.25
1018.856	1914.25
1019.072	1980.25
1019.288	1986.25
1019.503	1943.25
1019.719	1891.25
1019.934	1858.25
1020.149	1932.25
1020.365	1814.25
1020.58	1729.25
1020.795	1785.25
1021.011	1664.25
1021.226	1608.25
1021.441	1641.25
1021.656	1525.25
1021.871	1444.25
1022.086	1437.25
1022.301	1414.25
1022.516	1391.25
1022.731	1418.25
1022.946	1358.25
1023.16	1310.25
1023.375	1273.25
1023.59	1240.25
1023.804	1189.25
1024.019	1238.25
1024.234	1110.25
1024.448	1126.25
1024.663	1047.25
1024.877	1041.25
1025.092	1061.25
1025.306	1051.25
1025.52	952.25
1025.734	1021.25
1025.949	927.25
1026.163	918.25
1026.377	836.25
1026.591	884.25
1026.805	802.25
1027.019	824.25
1027.233	781.25
1027.447	717.25
1027.661	822.25
1027.875	784.25
1028.088	755.25
1028.302	702.25
1028.516	679.25
1028.73	656.25
1028.943	647.25
1029.157	624.25
1029.37	589.25
1029.584	-0.75
1029.797	-2.75
1030.011	-3.75
1030.224	0.25
