Data from QEP037381__72__10-47-54-311.txt Node

Date: Fri Apr 28 10:47:54 EDT 2023
User: dcclab
Spectrometer: QEP03738
Trigger mode: 4
Integration Time (sec): 1.000000E1
Scans to average: 1
Electric dark correction enabled: true
Nonlinearity correction enabled: false
Boxcar width: 0
XAxis mode: Wavelengths
Number of Pixels in Spectrum: 1044
>>>>>Begin Spectral Data<<<<<
784.041	14.25
784.3	-0.75
784.558	-4.75
784.817	-1.75
785.075	88017.25
785.334	17640.25
785.592	9212.25
785.851	6475.25
786.109	4865.25
786.368	3789.25
786.626	3053.25
786.884	2546.25
787.143	2118.25
787.401	1749.25
787.659	1575.25
787.917	1337.25
788.175	1203.25
788.433	1042.25
788.691	934.25
788.949	862.25
789.207	828.25
789.465	711.25
789.723	670.25
789.98	620.25
790.238	661.25
790.496	606.25
790.753	578.25
791.011	626.25
791.268	551.25
791.526	534.25
791.783	542.25
792.041	518.25
792.298	450.25
792.556	499.25
792.813	473.25
793.07	460.25
793.327	442.25
793.584	505.25
793.841	439.25
794.099	456.25
794.356	501.25
794.613	417.25
794.869	452.25
795.126	432.25
795.383	399.25
795.64	411.25
795.897	370.25
796.153	436.25
796.41	402.25
796.667	395.25
796.923	406.25
797.18	396.25
797.436	431.25
797.693	388.25
797.949	451.25
798.206	470.25
798.462	384.25
798.718	430.25
798.974	414.25
799.231	451.25
799.487	447.25
799.743	440.25
799.999	462.25
800.255	471.25
800.511	439.25
800.767	473.25
801.023	456.25
801.279	497.25
801.534	513.25
801.79	542.25
802.046	548.25
802.302	652.25
802.557	737.25
802.813	875.25
803.068	1063.25
803.324	1475.25
803.579	1906.25
803.835	2603.25
804.09	3480.25
804.345	4357.25
804.601	5267.25
804.856	6011.25
805.111	6711.25
805.366	7088.25
805.621	7377.25
805.876	7635.25
806.131	7787.25
806.386	7842.25
806.641	7999.25
806.896	8061.25
807.151	8220.25
807.406	8290.25
807.661	8462.25
807.915	8548.25
808.17	8678.25
808.425	8854.25
808.679	8828.25
808.934	8972.25
809.188	9024.25
809.443	9165.25
809.697	9242.25
809.951	9307.25
810.206	9393.25
810.46	9440.25
810.714	9515.25
810.968	9597.25
811.223	9693.25
811.477	9764.25
811.731	9888.25
811.985	9783.25
812.239	9778.25
812.493	9847.25
812.747	9902.25
813	9788.25
813.254	9971.25
813.508	10042.25
813.762	10073.25
814.015	10013.25
814.269	10078.25
814.522	10222.25
814.776	10273.25
815.03	10355.25
815.283	10533.25
815.536	10739.25
815.79	10835.25
816.043	10967.25
816.296	11093.25
816.55	11212.25
816.803	11316.25
817.056	11553.25
817.309	11615.25
817.562	11759.25
817.815	11829.25
818.068	11868.25
818.321	12014.25
818.574	12119.25
818.827	12251.25
819.079	12470.25
819.332	12809.25
819.585	12934.25
819.838	13143.25
820.09	13009.25
820.343	13048.25
820.595	13081.25
820.848	13232.25
821.1	13284.25
821.353	13232.25
821.605	13291.25
821.857	13115.25
822.11	13019.25
822.362	13089.25
822.614	13023.25
822.866	13124.25
823.118	13089.25
823.37	13291.25
823.622	13327.25
823.874	13481.25
824.126	13458.25
824.378	13358.25
824.63	13486.25
824.882	13424.25
825.134	13367.25
825.385	13349.25
825.637	13243.25
825.888	13242.25
826.14	13179.25
826.392	13094.25
826.643	12951.25
826.895	12919.25
827.146	12861.25
827.397	12822.25
827.649	12895.25
827.9	12869.25
828.151	12875.25
828.402	12889.25
828.653	12954.25
828.905	12997.25
829.156	13005.25
829.407	13056.25
829.658	13241.25
829.909	13442.25
830.159	13606.25
830.41	13427.25
830.661	13150.25
830.912	13079.25
831.162	13031.25
831.413	13116.25
831.664	13061.25
831.914	13010.25
832.165	12944.25
832.415	12884.25
832.666	12917.25
832.916	12853.25
833.167	12984.25
833.417	12985.25
833.667	12911.25
833.917	12819.25
834.168	12835.25
834.418	12839.25
834.668	12753.25
834.918	12764.25
835.168	12623.25
835.418	12564.25
835.668	12520.25
835.918	12495.25
836.167	12453.25
836.417	12458.25
836.667	12463.25
836.917	12526.25
837.166	12508.25
837.416	12611.25
837.666	12593.25
837.915	12581.25
838.165	12504.25
838.414	12471.25
838.663	12445.25
838.913	12559.25
839.162	12459.25
839.411	12618.25
839.661	12458.25
839.91	12538.25
840.159	12609.25
840.408	12555.25
840.657	12529.25
840.906	12562.25
841.155	12570.25
841.404	12517.25
841.653	12508.25
841.902	12523.25
842.15	12667.25
842.399	12773.25
842.648	12783.25
842.897	12701.25
843.145	12526.25
843.394	12508.25
843.642	12352.25
843.891	12247.25
844.139	12125.25
844.388	12024.25
844.636	12020.25
844.884	11985.25
845.133	12018.25
845.381	12050.25
845.629	12047.25
845.877	12036.25
846.125	12065.25
846.373	11984.25
846.621	11929.25
846.869	11898.25
847.117	11829.25
847.365	11781.25
847.613	11696.25
847.861	11711.25
848.108	11845.25
848.356	11877.25
848.604	11806.25
848.851	11848.25
849.099	11836.25
849.346	11803.25
849.594	11881.25
849.841	11907.25
850.089	11865.25
850.336	11934.25
850.583	12046.25
850.831	11837.25
851.078	11937.25
851.325	11946.25
851.572	12179.25
851.819	12012.25
852.066	11633.25
852.313	11378.25
852.56	11297.25
852.807	11253.25
853.054	11277.25
853.301	11281.25
853.548	11408.25
853.794	11535.25
854.041	11576.25
854.288	11550.25
854.534	11706.25
854.781	11665.25
855.028	11722.25
855.274	11838.25
855.52	11954.25
855.767	11996.25
856.013	12294.25
856.26	12452.25
856.506	11894.25
856.752	11774.25
856.998	11748.25
857.244	11803.25
857.49	11936.25
857.736	11949.25
857.982	11915.25
858.228	11734.25
858.474	11555.25
858.72	11404.25
858.966	11311.25
859.212	11169.25
859.458	11091.25
859.703	10993.25
859.949	10833.25
860.195	10782.25
860.44	10811.25
860.686	10959.25
860.931	10948.25
861.177	10759.25
861.422	10502.25
861.667	10390.25
861.913	10387.25
862.158	10303.25
862.403	10352.25
862.648	10389.25
862.893	10432.25
863.138	10238.25
863.384	10252.25
863.629	10309.25
863.873	10262.25
864.118	10331.25
864.363	10252.25
864.608	10213.25
864.853	10164.25
865.098	10029.25
865.342	9949.25
865.587	9944.25
865.832	9964.25
866.076	9893.25
866.321	9925.25
866.565	9880.25
866.81	9852.25
867.054	9802.25
867.298	9830.25
867.543	9842.25
867.787	9924.25
868.031	9829.25
868.275	9841.25
868.519	9779.25
868.764	9835.25
869.008	9825.25
869.252	9945.25
869.496	9929.25
869.739	9906.25
869.983	10048.25
870.227	10107.25
870.471	10094.25
870.715	10234.25
870.958	10310.25
871.202	10406.25
871.446	10438.25
871.689	10376.25
871.933	10350.25
872.176	10338.25
872.42	10369.25
872.663	10408.25
872.906	10578.25
873.15	10822.25
873.393	11010.25
873.636	11118.25
873.879	10866.25
874.122	10593.25
874.366	10296.25
874.609	9958.25
874.852	9851.25
875.095	9726.25
875.337	9626.25
875.58	9521.25
875.823	9442.25
876.066	9465.25
876.309	9491.25
876.551	9369.25
876.794	9249.25
877.037	9287.25
877.279	9171.25
877.522	9180.25
877.764	9155.25
878.007	9132.25
878.249	9064.25
878.491	8944.25
878.734	9061.25
878.976	8950.25
879.218	8823.25
879.46	8866.25
879.702	8720.25
879.945	8642.25
880.187	8532.25
880.429	8446.25
880.671	8392.25
880.912	8400.25
881.154	8333.25
881.396	8220.25
881.638	8302.25
881.88	8347.25
882.121	8310.25
882.363	8377.25
882.605	8509.25
882.846	8528.25
883.088	8635.25
883.329	8791.25
883.571	9119.25
883.812	9712.25
884.053	10462.25
884.295	11181.25
884.536	11472.25
884.777	11173.25
885.018	10908.25
885.259	10705.25
885.5	10450.25
885.742	10474.25
885.982	10338.25
886.223	10069.25
886.464	9895.25
886.705	9584.25
886.946	9242.25
887.187	8887.25
887.428	8599.25
887.668	8240.25
887.909	7990.25
888.15	7810.25
888.39	7747.25
888.631	7665.25
888.871	7552.25
889.111	7450.25
889.352	7358.25
889.592	7264.25
889.833	7153.25
890.073	7169.25
890.313	7209.25
890.553	6958.25
890.793	6989.25
891.033	6905.25
891.273	6860.25
891.513	6860.25
891.753	6932.25
891.993	6871.25
892.233	6855.25
892.473	6900.25
892.713	6908.25
892.952	6829.25
893.192	6905.25
893.432	6909.25
893.671	6945.25
893.911	6901.25
894.15	6833.25
894.39	6716.25
894.629	6698.25
894.869	6679.25
895.108	6634.25
895.347	6610.25
895.587	6612.25
895.826	6583.25
896.065	6632.25
896.304	6618.25
896.543	6650.25
896.782	6547.25
897.021	6580.25
897.26	6552.25
897.499	6686.25
897.738	6683.25
897.977	6554.25
898.216	6496.25
898.454	6466.25
898.693	6442.25
898.932	6505.25
899.17	6409.25
899.409	6449.25
899.647	6447.25
899.886	6407.25
900.124	6521.25
900.363	6419.25
900.601	6608.25
900.839	6675.25
901.078	6771.25
901.316	6920.25
901.554	7084.25
901.792	7122.25
902.03	7122.25
902.268	7143.25
902.506	7190.25
902.744	7139.25
902.982	7018.25
903.22	6794.25
903.458	6577.25
903.695	6367.25
903.933	6220.25
904.171	6002.25
904.409	5902.25
904.646	5865.25
904.884	5751.25
905.121	5744.25
905.359	5578.25
905.596	5528.25
905.833	5493.25
906.071	5447.25
906.308	5456.25
906.545	5464.25
906.783	5360.25
907.02	5380.25
907.257	5341.25
907.494	5303.25
907.731	5364.25
907.968	5348.25
908.205	5274.25
908.442	5240.25
908.679	5216.25
908.915	5128.25
909.152	5125.25
909.389	4990.25
909.626	5045.25
909.862	4950.25
910.099	4954.25
910.335	5003.25
910.572	4869.25
910.808	4914.25
911.045	4859.25
911.281	4847.25
911.518	4862.25
911.754	4797.25
911.99	4780.25
912.226	4734.25
912.463	4706.25
912.699	4642.25
912.935	4617.25
913.171	4576.25
913.407	4529.25
913.643	4547.25
913.879	4502.25
914.114	4496.25
914.35	4411.25
914.586	4432.25
914.822	4358.25
915.057	4403.25
915.293	4252.25
915.529	4284.25
915.764	4303.25
916	4339.25
916.235	4295.25
916.471	4300.25
916.706	4180.25
916.941	4215.25
917.177	4231.25
917.412	4245.25
917.647	4224.25
917.882	4151.25
918.117	4232.25
918.352	4167.25
918.588	4239.25
918.823	4096.25
919.057	4107.25
919.292	3995.25
919.527	4110.25
919.762	4007.25
919.997	4040.25
920.232	3966.25
920.466	3918.25
920.701	3865.25
920.935	3842.25
921.17	3802.25
921.405	3795.25
921.639	3848.25
921.873	3770.25
922.108	3811.25
922.342	3750.25
922.576	3736.25
922.811	3718.25
923.045	3732.25
923.279	3743.25
923.513	3619.25
923.747	3745.25
923.981	3709.25
924.215	3598.25
924.449	3588.25
924.683	3571.25
924.917	3572.25
925.151	3563.25
925.385	3582.25
925.618	3534.25
925.852	3594.25
926.086	3533.25
926.319	3541.25
926.553	3521.25
926.786	3539.25
927.02	3517.25
927.253	3537.25
927.486	3545.25
927.72	3434.25
927.953	3519.25
928.186	3476.25
928.42	3458.25
928.653	3403.25
928.886	3398.25
929.119	3445.25
929.352	3400.25
929.585	3375.25
929.818	3365.25
930.051	3353.25
930.284	3324.25
930.516	3235.25
930.749	3215.25
930.982	3321.25
931.215	3305.25
931.447	3181.25
931.68	3225.25
931.912	3185.25
932.145	3203.25
932.377	3205.25
932.61	3353.25
932.842	3169.25
933.074	3234.25
933.307	3145.25
933.539	3278.25
933.771	3254.25
934.003	3198.25
934.236	3277.25
934.468	3256.25
934.7	3181.25
934.932	3226.25
935.164	3140.25
935.395	3197.25
935.627	3190.25
935.859	3155.25
936.091	3104.25
936.323	3145.25
936.554	3197.25
936.786	3139.25
937.017	3049.25
937.249	3096.25
937.481	3079.25
937.712	3066.25
937.943	3045.25
938.175	3067.25
938.406	3069.25
938.637	3092.25
938.869	3000.25
939.1	3046.25
939.331	3000.25
939.562	3040.25
939.793	3013.25
940.024	3067.25
940.255	3085.25
940.486	3018.25
940.717	3018.25
940.948	2993.25
941.179	2932.25
941.409	2938.25
941.64	2945.25
941.871	2969.25
942.102	2959.25
942.332	2964.25
942.563	2958.25
942.793	2967.25
943.024	2902.25
943.254	2921.25
943.484	2972.25
943.715	2984.25
943.945	2972.25
944.175	2886.25
944.405	2873.25
944.636	2887.25
944.866	2896.25
945.096	2905.25
945.326	2827.25
945.556	2929.25
945.786	2921.25
946.016	2883.25
946.245	2783.25
946.475	2858.25
946.705	2809.25
946.935	2814.25
947.164	2850.25
947.394	2786.25
947.624	2766.25
947.853	2805.25
948.083	2748.25
948.312	2753.25
948.542	2644.25
948.771	2691.25
949	2716.25
949.23	2686.25
949.459	2693.25
949.688	2751.25
949.917	2731.25
950.146	2708.25
950.375	2760.25
950.604	2646.25
950.833	2750.25
951.062	2749.25
951.291	2700.25
951.52	2653.25
951.749	2640.25
951.978	2642.25
952.206	2631.25
952.435	2646.25
952.664	2651.25
952.892	2643.25
953.121	2644.25
953.349	2632.25
953.578	2646.25
953.806	2612.25
954.035	2552.25
954.263	2595.25
954.491	2535.25
954.719	2564.25
954.948	2523.25
955.176	2519.25
955.404	2422.25
955.632	2541.25
955.86	2551.25
956.088	2483.25
956.316	2508.25
956.544	2533.25
956.772	2449.25
956.999	2398.25
957.227	2510.25
957.455	2395.25
957.683	2434.25
957.91	2389.25
958.138	2366.25
958.365	2365.25
958.593	2363.25
958.82	2353.25
959.048	2368.25
959.275	2349.25
959.502	2339.25
959.73	2345.25
959.957	2382.25
960.184	2375.25
960.411	2346.25
960.638	2372.25
960.865	2336.25
961.092	2355.25
961.319	2255.25
961.546	2340.25
961.773	2354.25
962	2304.25
962.227	2327.25
962.454	2305.25
962.68	2268.25
962.907	2319.25
963.134	2235.25
963.36	2288.25
963.587	2298.25
963.813	2217.25
964.04	2223.25
964.266	2200.25
964.493	2290.25
964.719	2269.25
964.945	2219.25
965.171	2123.25
965.398	2159.25
965.624	2235.25
965.85	2151.25
966.076	2123.25
966.302	2176.25
966.528	2143.25
966.754	2183.25
966.98	2127.25
967.206	2154.25
967.431	2088.25
967.657	2154.25
967.883	2161.25
968.109	2131.25
968.334	2032.25
968.56	2044.25
968.785	2071.25
969.011	2030.25
969.236	2093.25
969.462	2017.25
969.687	2075.25
969.912	2109.25
970.138	2116.25
970.363	2014.25
970.588	2037.25
970.813	2028.25
971.038	2019.25
971.263	2076.25
971.488	2067.25
971.713	2070.25
971.938	2031.25
972.163	1982.25
972.388	1985.25
972.613	1988.25
972.838	1962.25
973.062	1968.25
973.287	1968.25
973.512	1885.25
973.736	1940.25
973.961	1966.25
974.185	1907.25
974.41	1977.25
974.634	1860.25
974.858	1887.25
975.083	1930.25
975.307	1923.25
975.531	1867.25
975.755	1845.25
975.98	1826.25
976.204	1779.25
976.428	1777.25
976.652	1783.25
976.876	1788.25
977.1	1802.25
977.324	1783.25
977.547	1804.25
977.771	1805.25
977.995	1776.25
978.219	1773.25
978.442	1827.25
978.666	1790.25
978.89	1791.25
979.113	1767.25
979.337	1746.25
979.56	1738.25
979.783	1832.25
980.007	1715.25
980.23	1748.25
980.453	1713.25
980.677	1768.25
980.9	1739.25
981.123	1663.25
981.346	1729.25
981.569	1721.25
981.792	1765.25
982.015	1715.25
982.238	1674.25
982.461	1707.25
982.684	1655.25
982.907	1651.25
983.129	1668.25
983.352	1703.25
983.575	1680.25
983.797	1691.25
984.02	1635.25
984.242	1652.25
984.465	1668.25
984.687	1725.25
984.91	1701.25
985.132	1691.25
985.354	1721.25
985.577	1652.25
985.799	1650.25
986.021	1560.25
986.243	1618.25
986.465	1641.25
986.687	1679.25
986.909	1683.25
987.131	1653.25
987.353	1620.25
987.575	1654.25
987.797	1598.25
988.019	1530.25
988.241	1639.25
988.462	1579.25
988.684	1626.25
988.906	1682.25
989.127	1671.25
989.349	1592.25
989.57	1622.25
989.792	1647.25
990.013	1649.25
990.234	1664.25
990.456	1661.25
990.677	1678.25
990.898	1580.25
991.119	1631.25
991.341	1640.25
991.562	1566.25
991.783	1614.25
992.004	1568.25
992.225	1538.25
992.446	1571.25
992.667	1506.25
992.887	1570.25
993.108	1490.25
993.329	1644.25
993.55	1557.25
993.77	1515.25
993.991	1492.25
994.212	1547.25
994.432	1563.25
994.653	1575.25
994.873	1573.25
995.093	1476.25
995.314	1492.25
995.534	1569.25
995.754	1612.25
995.975	1627.25
996.195	1513.25
996.415	1582.25
996.635	1573.25
996.855	1609.25
997.075	1586.25
997.295	1580.25
997.515	1605.25
997.735	1651.25
997.955	1607.25
998.174	1635.25
998.394	1583.25
998.614	1601.25
998.834	1593.25
999.053	1648.25
999.273	1611.25
999.492	1651.25
999.712	1546.25
999.931	1533.25
1000.151	1544.25
1000.37	1517.25
1000.589	1570.25
1000.809	1478.25
1001.028	1593.25
1001.247	1548.25
1001.466	1446.25
1001.685	1553.25
1001.904	1499.25
1002.123	1494.25
1002.342	1470.25
1002.561	1446.25
1002.78	1460.25
1002.999	1539.25
1003.218	1480.25
1003.436	1446.25
1003.655	1507.25
1003.874	1448.25
1004.092	1465.25
1004.311	1502.25
1004.53	1452.25
1004.748	1559.25
1004.966	1472.25
1005.185	1521.25
1005.403	1543.25
1005.622	1511.25
1005.84	1579.25
1006.058	1512.25
1006.276	1539.25
1006.494	1938.25
1006.712	1563.25
1006.931	1647.25
1007.149	1572.25
1007.367	1617.25
1007.584	1621.25
1007.802	1710.25
1008.02	1711.25
1008.238	1829.25
1008.456	1900.25
1008.673	1821.25
1008.891	1976.25
1009.109	1992.25
1009.326	2120.25
1009.544	2335.25
1009.761	2293.25
1009.979	2560.25
1010.196	2695.25
1010.413	3025.25
1010.631	3243.25
1010.848	3367.25
1011.065	3444.25
1011.282	3401.25
1011.5	3298.25
1011.717	3412.25
1011.934	3311.25
1012.151	3289.25
1012.368	3300.25
1012.585	3249.25
1012.801	3315.25
1013.018	3305.25
1013.235	3264.25
1013.452	3346.25
1013.669	3375.25
1013.885	3406.25
1014.102	3481.25
1014.318	3491.25
1014.535	3453.25
1014.751	3477.25
1014.968	3409.25
1015.184	3421.25
1015.401	3264.25
1015.617	3247.25
1015.833	3167.25
1016.049	3140.25
1016.266	3099.25
1016.482	3026.25
1016.698	2928.25
1016.914	2971.25
1017.13	2896.25
1017.346	2888.25
1017.562	2882.25
1017.778	2771.25
1017.993	2755.25
1018.209	2787.25
1018.425	2749.25
1018.641	2736.25
1018.856	2696.25
1019.072	2717.25
1019.288	2730.25
1019.503	2678.25
1019.719	2577.25
1019.934	2589.25
1020.149	2600.25
1020.365	2523.25
1020.58	2430.25
1020.795	2405.25
1021.011	2282.25
1021.226	2221.25
1021.441	2190.25
1021.656	2066.25
1021.871	1966.25
1022.086	1952.25
1022.301	1875.25
1022.516	1848.25
1022.731	1854.25
1022.946	1799.25
1023.16	1725.25
1023.375	1683.25
1023.59	1589.25
1023.804	1526.25
1024.019	1617.25
1024.234	1434.25
1024.448	1421.25
1024.663	1374.25
1024.877	1338.25
1025.092	1311.25
1025.306	1311.25
1025.52	1200.25
1025.734	1249.25
1025.949	1179.25
1026.163	1146.25
1026.377	1044.25
1026.591	1113.25
1026.805	1010.25
1027.019	988.25
1027.233	948.25
1027.447	913.25
1027.661	1002.25
1027.875	942.25
1028.088	919.25
1028.302	853.25
1028.516	836.25
1028.73	839.25
1028.943	812.25
1029.157	755.25
1029.37	704.25
1029.584	-3.75
1029.797	-2.75
1030.011	0.25
1030.224	-0.75
