Data from QEP037381__5__13-22-34-034.txt Node

Date: Fri Apr 28 13:22:34 EDT 2023
User: dcclab
Spectrometer: QEP03738
Trigger mode: 4
Integration Time (sec): 1.000000E1
Scans to average: 1
Electric dark correction enabled: true
Nonlinearity correction enabled: false
Boxcar width: 0
XAxis mode: Wavelengths
Number of Pixels in Spectrum: 1044
>>>>>Begin Spectral Data<<<<<
784.041	13.62
784.3	-4.38
784.558	0.62
784.817	-3.38
785.075	67978.62
785.334	13764.62
785.592	7295.62
785.851	5124.62
786.109	3953.62
786.368	3046.62
786.626	2464.62
786.884	2060.62
787.143	1743.62
787.401	1441.62
787.659	1286.62
787.917	1116.62
788.175	1026.62
788.433	888.62
788.691	807.62
788.949	733.62
789.207	709.62
789.465	637.62
789.723	620.62
789.98	562.62
790.238	591.62
790.496	565.62
790.753	555.62
791.011	588.62
791.268	530.62
791.526	498.62
791.783	526.62
792.041	509.62
792.298	422.62
792.556	491.62
792.813	472.62
793.07	445.62
793.327	430.62
793.584	518.62
793.841	439.62
794.099	450.62
794.356	512.62
794.613	418.62
794.869	458.62
795.126	423.62
795.383	392.62
795.64	423.62
795.897	382.62
796.153	426.62
796.41	428.62
796.667	416.62
796.923	420.62
797.18	412.62
797.436	440.62
797.693	396.62
797.949	445.62
798.206	496.62
798.462	406.62
798.718	459.62
798.974	427.62
799.231	461.62
799.487	458.62
799.743	462.62
799.999	515.62
800.255	477.62
800.511	483.62
800.767	521.62
801.023	509.62
801.279	541.62
801.534	583.62
801.79	627.62
802.046	666.62
802.302	797.62
802.557	911.62
802.813	1152.62
803.068	1426.62
803.324	2059.62
803.579	2759.62
803.835	3897.62
804.09	5315.62
804.345	6873.62
804.601	8432.62
804.856	9819.62
805.111	10947.62
805.366	11654.62
805.621	12177.62
805.876	12523.62
806.131	12706.62
806.386	12860.62
806.641	13074.62
806.896	13276.62
807.151	13538.62
807.406	13773.62
807.661	13921.62
807.915	14223.62
808.17	14536.62
808.425	14616.62
808.679	14744.62
808.934	15048.62
809.188	15184.62
809.443	15365.62
809.697	15520.62
809.951	15661.62
810.206	15737.62
810.46	15914.62
810.714	16016.62
810.968	16194.62
811.223	16272.62
811.477	16416.62
811.731	16557.62
811.985	16508.62
812.239	16579.62
812.493	16746.62
812.747	16910.62
813	16843.62
813.254	16954.62
813.508	17085.62
813.762	17071.62
814.015	17131.62
814.269	17422.62
814.522	17413.62
814.776	17640.62
815.03	17950.62
815.283	18176.62
815.536	18433.62
815.79	18650.62
816.043	18965.62
816.296	19222.62
816.55	19455.62
816.803	19713.62
817.056	19937.62
817.309	20167.62
817.562	20366.62
817.815	20503.62
818.068	20729.62
818.321	20964.62
818.574	21276.62
818.827	21609.62
819.079	21802.62
819.332	22454.62
819.585	22511.62
819.838	22965.62
820.09	22937.62
820.343	23242.62
820.595	23293.62
820.848	23411.62
821.1	23540.62
821.353	23583.62
821.605	23658.62
821.857	23475.62
822.11	23434.62
822.362	23323.62
822.614	23197.62
822.866	23336.62
823.118	23458.62
823.37	23513.62
823.622	23550.62
823.874	23620.62
824.126	23752.62
824.378	23759.62
824.63	23857.62
824.882	23827.62
825.134	23729.62
825.385	23807.62
825.637	23652.62
825.888	23630.62
826.14	23553.62
826.392	23396.62
826.643	23328.62
826.895	23257.62
827.146	23208.62
827.397	23122.62
827.649	23200.62
827.9	23113.62
828.151	23138.62
828.402	23130.62
828.653	23312.62
828.905	23462.62
829.156	23336.62
829.407	23255.62
829.658	23197.62
829.909	23193.62
830.159	23094.62
830.41	22937.62
830.661	22913.62
830.912	22783.62
831.162	22616.62
831.413	22657.62
831.664	22551.62
831.914	22577.62
832.165	22688.62
832.415	22603.62
832.666	22603.62
832.916	22541.62
833.167	22606.62
833.417	22501.62
833.667	22466.62
833.917	22337.62
834.168	22326.62
834.418	22250.62
834.668	22032.62
834.918	22025.62
835.168	21847.62
835.418	21853.62
835.668	21839.62
835.918	21806.62
836.167	21771.62
836.417	21676.62
836.667	21692.62
836.917	21520.62
837.166	21503.62
837.416	21493.62
837.666	21394.62
837.915	21389.62
838.165	21233.62
838.414	21214.62
838.663	21085.62
838.913	21167.62
839.162	21043.62
839.411	21023.62
839.661	20930.62
839.91	20903.62
840.159	20803.62
840.408	20809.62
840.657	20831.62
840.906	20852.62
841.155	20900.62
841.404	20806.62
841.653	20783.62
841.902	20711.62
842.15	20758.62
842.399	20790.62
842.648	20670.62
842.897	20585.62
843.145	20440.62
843.394	20377.62
843.642	20182.62
843.891	20227.62
844.139	20081.62
844.388	19977.62
844.636	19939.62
844.884	19790.62
845.133	19775.62
845.381	19733.62
845.629	19789.62
845.877	19617.62
846.125	19604.62
846.373	19725.62
846.621	19554.62
846.869	19556.62
847.117	19380.62
847.365	19297.62
847.613	19205.62
847.861	19183.62
848.108	19147.62
848.356	19102.62
848.604	19128.62
848.851	19041.62
849.099	19147.62
849.346	19192.62
849.594	19221.62
849.841	19277.62
850.089	19285.62
850.336	19208.62
850.583	19107.62
850.831	19196.62
851.078	19015.62
851.325	18912.62
851.572	18856.62
851.819	18578.62
852.066	18414.62
852.313	18134.62
852.56	18055.62
852.807	17910.62
853.054	17919.62
853.301	17829.62
853.548	17985.62
853.794	17956.62
854.041	18066.62
854.288	18082.62
854.534	18356.62
854.781	18175.62
855.028	18124.62
855.274	18067.62
855.52	17923.62
855.767	17805.62
856.013	17740.62
856.26	17998.62
856.506	17557.62
856.752	17638.62
856.998	17601.62
857.244	17609.62
857.49	17699.62
857.736	17700.62
857.982	17625.62
858.228	17708.62
858.474	17607.62
858.72	17410.62
858.966	17295.62
859.212	17115.62
859.458	17001.62
859.703	16817.62
859.949	16590.62
860.195	16512.62
860.44	16474.62
860.686	16282.62
860.931	16355.62
861.177	16214.62
861.422	16211.62
861.667	16130.62
861.913	16134.62
862.158	16321.62
862.403	16282.62
862.648	16313.62
862.893	16319.62
863.138	16307.62
863.384	16261.62
863.629	16276.62
863.873	16167.62
864.118	16110.62
864.363	15893.62
864.608	15858.62
864.853	15868.62
865.098	15753.62
865.342	15688.62
865.587	15545.62
865.832	15571.62
866.076	15536.62
866.321	15450.62
866.565	15462.62
866.81	15297.62
867.054	15326.62
867.298	15390.62
867.543	15322.62
867.787	15256.62
868.031	15229.62
868.275	15123.62
868.519	15106.62
868.764	15187.62
869.008	15122.62
869.252	15102.62
869.496	14934.62
869.739	15020.62
869.983	14982.62
870.227	14885.62
870.471	14858.62
870.715	14920.62
870.958	14919.62
871.202	14848.62
871.446	14963.62
871.689	14842.62
871.933	14945.62
872.176	14806.62
872.42	14859.62
872.663	14783.62
872.906	14719.62
873.15	14623.62
873.393	14383.62
873.636	14396.62
873.879	14274.62
874.122	14217.62
874.366	14021.62
874.609	14062.62
874.852	13937.62
875.095	13868.62
875.337	13817.62
875.58	13673.62
875.823	13722.62
876.066	13728.62
876.309	13685.62
876.551	13512.62
876.794	13465.62
877.037	13579.62
877.279	13459.62
877.522	13469.62
877.764	13524.62
878.007	13439.62
878.249	13437.62
878.491	13453.62
878.734	13466.62
878.976	13425.62
879.218	13314.62
879.46	13208.62
879.702	13150.62
879.945	12994.62
880.187	12942.62
880.429	12741.62
880.671	12741.62
880.912	12711.62
881.154	12645.62
881.396	12583.62
881.638	12613.62
881.88	12683.62
882.121	12485.62
882.363	12485.62
882.605	12537.62
882.846	12494.62
883.088	12451.62
883.329	12411.62
883.571	12321.62
883.812	12275.62
884.053	12435.62
884.295	12410.62
884.536	12493.62
884.777	12362.62
885.018	12333.62
885.259	12361.62
885.5	12223.62
885.742	12448.62
885.982	12252.62
886.223	12204.62
886.464	12048.62
886.705	12021.62
886.946	11990.62
887.187	11850.62
887.428	11889.62
887.668	11708.62
887.909	11713.62
888.15	11505.62
888.39	11467.62
888.631	11546.62
888.871	11355.62
889.111	11306.62
889.352	11186.62
889.592	11137.62
889.833	11067.62
890.073	11014.62
890.313	10998.62
890.553	10776.62
890.793	10748.62
891.033	10701.62
891.273	10602.62
891.513	10713.62
891.753	10632.62
891.993	10650.62
892.233	10603.62
892.473	10680.62
892.713	10670.62
892.952	10590.62
893.192	10609.62
893.432	10576.62
893.671	10594.62
893.911	10506.62
894.15	10421.62
894.39	10297.62
894.629	10190.62
894.869	10210.62
895.108	10159.62
895.347	10081.62
895.587	10082.62
895.826	9977.62
896.065	10015.62
896.304	9960.62
896.543	9955.62
896.782	9866.62
897.021	9878.62
897.26	9885.62
897.499	9893.62
897.738	9796.62
897.977	9706.62
898.216	9675.62
898.454	9567.62
898.693	9467.62
898.932	9502.62
899.17	9452.62
899.409	9311.62
899.647	9356.62
899.886	9332.62
900.124	9421.62
900.363	9307.62
900.601	9314.62
900.839	9370.62
901.078	9283.62
901.316	9317.62
901.554	9399.62
901.792	9295.62
902.03	9198.62
902.268	9287.62
902.506	9300.62
902.744	9237.62
902.982	9192.62
903.22	9006.62
903.458	8950.62
903.695	8904.62
903.933	8842.62
904.171	8646.62
904.409	8490.62
904.646	8512.62
904.884	8396.62
905.121	8356.62
905.359	8288.62
905.596	8196.62
905.833	8088.62
906.071	8137.62
906.308	8101.62
906.545	8095.62
906.783	8052.62
907.02	7995.62
907.257	8031.62
907.494	8031.62
907.731	8010.62
907.968	7951.62
908.205	7900.62
908.442	7863.62
908.679	7850.62
908.915	7774.62
909.152	7741.62
909.389	7568.62
909.626	7590.62
909.862	7439.62
910.099	7444.62
910.335	7523.62
910.572	7326.62
910.808	7418.62
911.045	7330.62
911.281	7323.62
911.518	7331.62
911.754	7273.62
911.99	7252.62
912.226	7240.62
912.463	7131.62
912.699	7075.62
912.935	7034.62
913.171	6945.62
913.407	6895.62
913.643	6930.62
913.879	6783.62
914.114	6734.62
914.35	6694.62
914.586	6646.62
914.822	6501.62
915.057	6576.62
915.293	6432.62
915.529	6395.62
915.764	6470.62
916	6477.62
916.235	6431.62
916.471	6457.62
916.706	6346.62
916.941	6384.62
917.177	6380.62
917.412	6432.62
917.647	6346.62
917.882	6317.62
918.117	6344.62
918.352	6304.62
918.588	6341.62
918.823	6214.62
919.057	6149.62
919.292	5992.62
919.527	6066.62
919.762	5902.62
919.997	5932.62
920.232	5825.62
920.466	5812.62
920.701	5707.62
920.935	5728.62
921.17	5659.62
921.405	5631.62
921.639	5695.62
921.873	5595.62
922.108	5583.62
922.342	5614.62
922.576	5532.62
922.811	5509.62
923.045	5548.62
923.279	5502.62
923.513	5406.62
923.747	5447.62
923.981	5391.62
924.215	5360.62
924.449	5329.62
924.683	5255.62
924.917	5253.62
925.151	5231.62
925.385	5277.62
925.618	5215.62
925.852	5147.62
926.086	5096.62
926.319	5173.62
926.553	5110.62
926.786	5191.62
927.02	5158.62
927.253	5189.62
927.486	5158.62
927.72	5069.62
927.953	5110.62
928.186	5100.62
928.42	5092.62
928.653	5040.62
928.886	5016.62
929.119	4986.62
929.352	4957.62
929.585	5010.62
929.818	4894.62
930.051	4749.62
930.284	4830.62
930.516	4763.62
930.749	4735.62
930.982	4747.62
931.215	4692.62
931.447	4645.62
931.68	4631.62
931.912	4658.62
932.145	4594.62
932.377	4555.62
932.61	4749.62
932.842	4609.62
933.074	4644.62
933.307	4569.62
933.539	4698.62
933.771	4681.62
934.003	4613.62
934.236	4663.62
934.468	4648.62
934.7	4553.62
934.932	4609.62
935.164	4523.62
935.395	4539.62
935.627	4540.62
935.859	4510.62
936.091	4462.62
936.323	4484.62
936.554	4503.62
936.786	4451.62
937.017	4321.62
937.249	4393.62
937.481	4341.62
937.712	4395.62
937.943	4399.62
938.175	4358.62
938.406	4339.62
938.637	4375.62
938.869	4317.62
939.1	4378.62
939.331	4284.62
939.562	4303.62
939.793	4273.62
940.024	4327.62
940.255	4295.62
940.486	4202.62
940.717	4238.62
940.948	4177.62
941.179	4153.62
941.409	4159.62
941.64	4153.62
941.871	4160.62
942.102	4087.62
942.332	4109.62
942.563	4167.62
942.793	4155.62
943.024	4055.62
943.254	4129.62
943.484	4139.62
943.715	4139.62
943.945	4137.62
944.175	4079.62
944.405	4073.62
944.636	4046.62
944.866	4131.62
945.096	4124.62
945.326	4002.62
945.556	4061.62
945.786	4084.62
946.016	3984.62
946.245	3927.62
946.475	3916.62
946.705	3878.62
946.935	3848.62
947.164	3906.62
947.394	3829.62
947.624	3790.62
947.853	3929.62
948.083	3821.62
948.312	3801.62
948.542	3744.62
948.771	3708.62
949	3742.62
949.23	3712.62
949.459	3732.62
949.688	3817.62
949.917	3726.62
950.146	3735.62
950.375	3805.62
950.604	3649.62
950.833	3753.62
951.062	3826.62
951.291	3733.62
951.52	3688.62
951.749	3670.62
951.978	3597.62
952.206	3627.62
952.435	3589.62
952.664	3645.62
952.892	3688.62
953.121	3597.62
953.349	3662.62
953.578	3561.62
953.806	3555.62
954.035	3484.62
954.263	3527.62
954.491	3473.62
954.719	3489.62
954.948	3447.62
955.176	3408.62
955.404	3409.62
955.632	3419.62
955.86	3449.62
956.088	3379.62
956.316	3428.62
956.544	3423.62
956.772	3366.62
956.999	3344.62
957.227	3428.62
957.455	3336.62
957.683	3323.62
957.91	3270.62
958.138	3235.62
958.365	3217.62
958.593	3203.62
958.82	3193.62
959.048	3261.62
959.275	3210.62
959.502	3188.62
959.73	3159.62
959.957	3183.62
960.184	3244.62
960.411	3144.62
960.638	3241.62
960.865	3153.62
961.092	3194.62
961.319	3069.62
961.546	3161.62
961.773	3208.62
962	3163.62
962.227	3164.62
962.454	3149.62
962.68	3117.62
962.907	3137.62
963.134	3046.62
963.36	3071.62
963.587	3071.62
963.813	2999.62
964.04	3049.62
964.266	2947.62
964.493	3035.62
964.719	3012.62
964.945	3014.62
965.171	2890.62
965.398	2950.62
965.624	2919.62
965.85	2876.62
966.076	2890.62
966.302	2906.62
966.528	2828.62
966.754	2897.62
966.98	2887.62
967.206	2816.62
967.431	2772.62
967.657	2901.62
967.883	2843.62
968.109	2847.62
968.334	2766.62
968.56	2777.62
968.785	2769.62
969.011	2737.62
969.236	2790.62
969.462	2753.62
969.687	2772.62
969.912	2779.62
970.138	2742.62
970.363	2708.62
970.588	2743.62
970.813	2716.62
971.038	2690.62
971.263	2686.62
971.488	2705.62
971.713	2680.62
971.938	2678.62
972.163	2624.62
972.388	2627.62
972.613	2582.62
972.838	2594.62
973.062	2595.62
973.287	2573.62
973.512	2534.62
973.736	2563.62
973.961	2506.62
974.185	2489.62
974.41	2538.62
974.634	2460.62
974.858	2448.62
975.083	2516.62
975.307	2491.62
975.531	2455.62
975.755	2353.62
975.98	2378.62
976.204	2365.62
976.428	2314.62
976.652	2331.62
976.876	2320.62
977.1	2335.62
977.324	2317.62
977.547	2333.62
977.771	2372.62
977.995	2302.62
978.219	2267.62
978.442	2376.62
978.666	2310.62
978.89	2307.62
979.113	2301.62
979.337	2273.62
979.56	2232.62
979.783	2315.62
980.007	2242.62
980.23	2238.62
980.453	2191.62
980.677	2242.62
980.9	2212.62
981.123	2132.62
981.346	2237.62
981.569	2218.62
981.792	2214.62
982.015	2168.62
982.238	2127.62
982.461	2155.62
982.684	2119.62
982.907	2078.62
983.129	2071.62
983.352	2083.62
983.575	2089.62
983.797	2115.62
984.02	2054.62
984.242	2058.62
984.465	2049.62
984.687	2088.62
984.91	2096.62
985.132	2083.62
985.354	2046.62
985.577	2059.62
985.799	2025.62
986.021	1966.62
986.243	1983.62
986.465	1989.62
986.687	2064.62
986.909	2062.62
987.131	1992.62
987.353	1962.62
987.575	1973.62
987.797	1926.62
988.019	1913.62
988.241	1949.62
988.462	1913.62
988.684	1971.62
988.906	1998.62
989.127	2013.62
989.349	1886.62
989.57	1907.62
989.792	1979.62
990.013	1959.62
990.234	1932.62
990.456	1974.62
990.677	1981.62
990.898	1889.62
991.119	1876.62
991.341	1905.62
991.562	1851.62
991.783	1874.62
992.004	1805.62
992.225	1764.62
992.446	1856.62
992.667	1761.62
992.887	1874.62
993.108	1721.62
993.329	1853.62
993.55	1799.62
993.77	1746.62
993.991	1738.62
994.212	1784.62
994.432	1754.62
994.653	1731.62
994.873	1735.62
995.093	1673.62
995.314	1712.62
995.534	1749.62
995.754	1760.62
995.975	1774.62
996.195	1671.62
996.415	1715.62
996.635	1704.62
996.855	1752.62
997.075	1721.62
997.295	1694.62
997.515	1643.62
997.735	1724.62
997.955	1682.62
998.174	1648.62
998.394	1620.62
998.614	1676.62
998.834	1629.62
999.053	1731.62
999.273	1670.62
999.492	1703.62
999.712	1674.62
999.931	1615.62
1000.151	1659.62
1000.37	1645.62
1000.589	1701.62
1000.809	1630.62
1001.028	1719.62
1001.247	1640.62
1001.466	1571.62
1001.685	1710.62
1001.904	1598.62
1002.123	1631.62
1002.342	1610.62
1002.561	1571.62
1002.78	1604.62
1002.999	1659.62
1003.218	1606.62
1003.436	1577.62
1003.655	1612.62
1003.874	1552.62
1004.092	1573.62
1004.311	1593.62
1004.53	1556.62
1004.748	1650.62
1004.966	1548.62
1005.185	1600.62
1005.403	1608.62
1005.622	1597.62
1005.84	1643.62
1006.058	1554.62
1006.276	1556.62
1006.494	1932.62
1006.712	1527.62
1006.931	1625.62
1007.149	1537.62
1007.367	1519.62
1007.584	1556.62
1007.802	1567.62
1008.02	1518.62
1008.238	1628.62
1008.456	1588.62
1008.673	1431.62
1008.891	1559.62
1009.109	1486.62
1009.326	1537.62
1009.544	1595.62
1009.761	1497.62
1009.979	1591.62
1010.196	1536.62
1010.413	1645.62
1010.631	1640.62
1010.848	1653.62
1011.065	1640.62
1011.282	1590.62
1011.5	1549.62
1011.717	1639.62
1011.934	1550.62
1012.151	1596.62
1012.368	1611.62
1012.585	1513.62
1012.801	1585.62
1013.018	1554.62
1013.235	1548.62
1013.452	1505.62
1013.669	1564.62
1013.885	1516.62
1014.102	1542.62
1014.318	1499.62
1014.535	1473.62
1014.751	1505.62
1014.968	1509.62
1015.184	1530.62
1015.401	1465.62
1015.617	1497.62
1015.833	1429.62
1016.049	1434.62
1016.266	1397.62
1016.482	1442.62
1016.698	1353.62
1016.914	1428.62
1017.13	1381.62
1017.346	1410.62
1017.562	1425.62
1017.778	1365.62
1017.993	1324.62
1018.209	1414.62
1018.425	1366.62
1018.641	1368.62
1018.856	1313.62
1019.072	1356.62
1019.288	1389.62
1019.503	1355.62
1019.719	1270.62
1019.934	1297.62
1020.149	1363.62
1020.365	1319.62
1020.58	1244.62
1020.795	1305.62
1021.011	1235.62
1021.226	1267.62
1021.441	1269.62
1021.656	1179.62
1021.871	1133.62
1022.086	1133.62
1022.301	1113.62
1022.516	1112.62
1022.731	1202.62
1022.946	1083.62
1023.16	1093.62
1023.375	1033.62
1023.59	1043.62
1023.804	1001.62
1024.019	1130.62
1024.234	998.62
1024.448	1027.62
1024.663	940.62
1024.877	987.62
1025.092	993.62
1025.306	998.62
1025.52	903.62
1025.734	1010.62
1025.949	910.62
1026.163	898.62
1026.377	859.62
1026.591	908.62
1026.805	831.62
1027.019	817.62
1027.233	793.62
1027.447	736.62
1027.661	841.62
1027.875	804.62
1028.088	802.62
1028.302	712.62
1028.516	714.62
1028.73	726.62
1028.943	695.62
1029.157	657.62
1029.37	615.62
1029.584	2.62
1029.797	-2.38
1030.011	-0.38
1030.224	-6.38
