Data from QEP037381__19__13-24-54-034.txt Node

Date: Fri Apr 28 13:24:54 EDT 2023
User: dcclab
Spectrometer: QEP03738
Trigger mode: 4
Integration Time (sec): 1.000000E1
Scans to average: 1
Electric dark correction enabled: true
Nonlinearity correction enabled: false
Boxcar width: 0
XAxis mode: Wavelengths
Number of Pixels in Spectrum: 1044
>>>>>Begin Spectral Data<<<<<
784.041	12.38
784.3	-2.62
784.558	-3.62
784.817	-1.62
785.075	70780.38
785.334	13938.38
785.592	7156.38
785.851	5021.38
786.109	3829.38
786.368	2983.38
786.626	2379.38
786.884	1999.38
787.143	1677.38
787.401	1374.38
787.659	1240.38
787.917	1083.38
788.175	982.38
788.433	895.38
788.691	793.38
788.949	731.38
789.207	709.38
789.465	616.38
789.723	597.38
789.98	531.38
790.238	587.38
790.496	550.38
790.753	548.38
791.011	573.38
791.268	510.38
791.526	488.38
791.783	507.38
792.041	477.38
792.298	412.38
792.556	480.38
792.813	445.38
793.07	438.38
793.327	408.38
793.584	507.38
793.841	431.38
794.099	448.38
794.356	506.38
794.613	416.38
794.869	441.38
795.126	403.38
795.383	385.38
795.64	416.38
795.897	376.38
796.153	424.38
796.41	416.38
796.667	396.38
796.923	399.38
797.18	392.38
797.436	421.38
797.693	401.38
797.949	444.38
798.206	473.38
798.462	367.38
798.718	442.38
798.974	419.38
799.231	441.38
799.487	431.38
799.743	436.38
799.999	467.38
800.255	460.38
800.511	443.38
800.767	495.38
801.023	475.38
801.279	498.38
801.534	520.38
801.79	561.38
802.046	582.38
802.302	683.38
802.557	754.38
802.813	946.38
803.068	1115.38
803.324	1549.38
803.579	2090.38
803.835	2937.38
804.09	3968.38
804.345	5132.38
804.601	6350.38
804.856	7504.38
805.111	8368.38
805.366	8978.38
805.621	9355.38
805.876	9619.38
806.131	9756.38
806.386	9979.38
806.641	10107.38
806.896	10295.38
807.151	10518.38
807.406	10620.38
807.661	10693.38
807.915	11015.38
808.17	11147.38
808.425	11333.38
808.679	11401.38
808.934	11582.38
809.188	11704.38
809.443	11821.38
809.697	12082.38
809.951	12091.38
810.206	12160.38
810.46	12371.38
810.714	12434.38
810.968	12573.38
811.223	12632.38
811.477	12705.38
811.731	12774.38
811.985	12869.38
812.239	12933.38
812.493	13002.38
812.747	13077.38
813	13084.38
813.254	13148.38
813.508	13189.38
813.762	13222.38
814.015	13352.38
814.269	13452.38
814.522	13548.38
814.776	13669.38
815.03	13940.38
815.283	14007.38
815.536	14345.38
815.79	14542.38
816.043	14661.38
816.296	14842.38
816.55	15017.38
816.803	15183.38
817.056	15431.38
817.309	15603.38
817.562	15762.38
817.815	15972.38
818.068	16087.38
818.321	16269.38
818.574	16430.38
818.827	16750.38
819.079	16985.38
819.332	17308.38
819.585	17467.38
819.838	17737.38
820.09	17865.38
820.343	17940.38
820.595	18053.38
820.848	18195.38
821.1	18119.38
821.353	18145.38
821.605	18217.38
821.857	18094.38
822.11	18123.38
822.362	18105.38
822.614	18018.38
822.866	18140.38
823.118	18075.38
823.37	18284.38
823.622	18216.38
823.874	18330.38
824.126	18412.38
824.378	18457.38
824.63	18467.38
824.882	18542.38
825.134	18456.38
825.385	18425.38
825.637	18433.38
825.888	18412.38
826.14	18406.38
826.392	18092.38
826.643	18151.38
826.895	18040.38
827.146	18010.38
827.397	17939.38
827.649	17931.38
827.9	17799.38
828.151	17911.38
828.402	17891.38
828.653	17985.38
828.905	18038.38
829.156	18070.38
829.407	18060.38
829.658	18032.38
829.909	18089.38
830.159	17970.38
830.41	17858.38
830.661	17782.38
830.912	17693.38
831.162	17617.38
831.413	17539.38
831.664	17627.38
831.914	17559.38
832.165	17584.38
832.415	17582.38
832.666	17576.38
832.916	17567.38
833.167	17517.38
833.417	17515.38
833.667	17356.38
833.917	17301.38
834.168	17273.38
834.418	17235.38
834.668	17144.38
834.918	17081.38
835.168	17057.38
835.418	16977.38
835.668	16900.38
835.918	16885.38
836.167	16936.38
836.417	16810.38
836.667	16839.38
836.917	16758.38
837.166	16672.38
837.416	16787.38
837.666	16688.38
837.915	16581.38
838.165	16555.38
838.414	16385.38
838.663	16413.38
838.913	16340.38
839.162	16283.38
839.411	16364.38
839.661	16207.38
839.91	16259.38
840.159	16232.38
840.408	16138.38
840.657	16155.38
840.906	16137.38
841.155	16199.38
841.404	16241.38
841.653	16123.38
841.902	16170.38
842.15	16070.38
842.399	16102.38
842.648	16022.38
842.897	16029.38
843.145	15813.38
843.394	15785.38
843.642	15832.38
843.891	15785.38
844.139	15683.38
844.388	15551.38
844.636	15457.38
844.884	15469.38
845.133	15367.38
845.381	15420.38
845.629	15413.38
845.877	15376.38
846.125	15385.38
846.373	15228.38
846.621	15230.38
846.869	15144.38
847.117	15073.38
847.365	14990.38
847.613	14933.38
847.861	14957.38
848.108	14947.38
848.356	14896.38
848.604	14859.38
848.851	14808.38
849.099	14831.38
849.346	14828.38
849.594	14983.38
849.841	14982.38
850.089	14987.38
850.336	14997.38
850.583	15002.38
850.831	14948.38
851.078	14783.38
851.325	14788.38
851.572	14797.38
851.819	14586.38
852.066	14333.38
852.313	14110.38
852.56	14043.38
852.807	14143.38
853.054	13954.38
853.301	13932.38
853.548	13855.38
853.794	14043.38
854.041	14014.38
854.288	14168.38
854.534	14286.38
854.781	14205.38
855.028	14017.38
855.274	14077.38
855.52	14048.38
855.767	13911.38
856.013	13882.38
856.26	14071.38
856.506	13687.38
856.752	13753.38
856.998	13687.38
857.244	13776.38
857.49	13818.38
857.736	13747.38
857.982	13783.38
858.228	13758.38
858.474	13686.38
858.72	13616.38
858.966	13470.38
859.212	13403.38
859.458	13219.38
859.703	13120.38
859.949	12916.38
860.195	12959.38
860.44	12844.38
860.686	12742.38
860.931	12755.38
861.177	12685.38
861.422	12675.38
861.667	12578.38
861.913	12695.38
862.158	12752.38
862.403	12827.38
862.648	12742.38
862.893	12784.38
863.138	12736.38
863.384	12678.38
863.629	12747.38
863.873	12632.38
864.118	12561.38
864.363	12492.38
864.608	12393.38
864.853	12381.38
865.098	12285.38
865.342	12272.38
865.587	12178.38
865.832	12188.38
866.076	12201.38
866.321	12069.38
866.565	12057.38
866.81	11919.38
867.054	12085.38
867.298	12032.38
867.543	11949.38
867.787	11954.38
868.031	11865.38
868.275	11893.38
868.519	11937.38
868.764	11977.38
869.008	11754.38
869.252	11909.38
869.496	11788.38
869.739	11683.38
869.983	11740.38
870.227	11675.38
870.471	11632.38
870.715	11704.38
870.958	11670.38
871.202	11661.38
871.446	11615.38
871.689	11645.38
871.933	11682.38
872.176	11659.38
872.42	11664.38
872.663	11608.38
872.906	11581.38
873.15	11516.38
873.393	11290.38
873.636	11336.38
873.879	11208.38
874.122	11155.38
874.366	11035.38
874.609	10958.38
874.852	10904.38
875.095	10808.38
875.337	10844.38
875.58	10682.38
875.823	10846.38
876.066	10827.38
876.309	10702.38
876.551	10641.38
876.794	10623.38
877.037	10609.38
877.279	10531.38
877.522	10577.38
877.764	10625.38
878.007	10583.38
878.249	10584.38
878.491	10555.38
878.734	10579.38
878.976	10528.38
879.218	10418.38
879.46	10409.38
879.702	10325.38
879.945	10218.38
880.187	10091.38
880.429	10124.38
880.671	10033.38
880.912	10015.38
881.154	9919.38
881.396	9851.38
881.638	9925.38
881.88	9905.38
882.121	9814.38
882.363	9807.38
882.605	9851.38
882.846	9828.38
883.088	9775.38
883.329	9711.38
883.571	9634.38
883.812	9636.38
884.053	9817.38
884.295	9786.38
884.536	9954.38
884.777	9820.38
885.018	9752.38
885.259	9691.38
885.5	9701.38
885.742	9842.38
885.982	9688.38
886.223	9540.38
886.464	9558.38
886.705	9497.38
886.946	9524.38
887.187	9347.38
887.428	9429.38
887.668	9249.38
887.909	9128.38
888.15	8979.38
888.39	9020.38
888.631	9029.38
888.871	8898.38
889.111	8854.38
889.352	8823.38
889.592	8730.38
889.833	8680.38
890.073	8575.38
890.313	8573.38
890.553	8450.38
890.793	8462.38
891.033	8410.38
891.273	8347.38
891.513	8277.38
891.753	8388.38
891.993	8235.38
892.233	8307.38
892.473	8339.38
892.713	8352.38
892.952	8270.38
893.192	8401.38
893.432	8328.38
893.671	8317.38
893.911	8264.38
894.15	8305.38
894.39	8102.38
894.629	8121.38
894.869	8055.38
895.108	7964.38
895.347	7907.38
895.587	7934.38
895.826	7822.38
896.065	7851.38
896.304	7912.38
896.543	7852.38
896.782	7758.38
897.021	7835.38
897.26	7763.38
897.499	7855.38
897.738	7798.38
897.977	7662.38
898.216	7614.38
898.454	7536.38
898.693	7430.38
898.932	7526.38
899.17	7471.38
899.409	7417.38
899.647	7404.38
899.886	7311.38
900.124	7445.38
900.363	7302.38
900.601	7381.38
900.839	7406.38
901.078	7415.38
901.316	7375.38
901.554	7435.38
901.792	7403.38
902.03	7378.38
902.268	7360.38
902.506	7374.38
902.744	7320.38
902.982	7276.38
903.22	7165.38
903.458	7071.38
903.695	7021.38
903.933	7000.38
904.171	6820.38
904.409	6758.38
904.646	6726.38
904.884	6574.38
905.121	6618.38
905.359	6522.38
905.596	6511.38
905.833	6395.38
906.071	6424.38
906.308	6399.38
906.545	6421.38
906.783	6323.38
907.02	6318.38
907.257	6291.38
907.494	6326.38
907.731	6292.38
907.968	6291.38
908.205	6218.38
908.442	6186.38
908.679	6163.38
908.915	6081.38
909.152	6045.38
909.389	5931.38
909.626	5933.38
909.862	5908.38
910.099	5925.38
910.335	5926.38
910.572	5815.38
910.808	5862.38
911.045	5789.38
911.281	5797.38
911.518	5844.38
911.754	5745.38
911.99	5753.38
912.226	5720.38
912.463	5614.38
912.699	5579.38
912.935	5554.38
913.171	5512.38
913.407	5468.38
913.643	5464.38
913.879	5402.38
914.114	5341.38
914.35	5266.38
914.586	5208.38
914.822	5166.38
915.057	5201.38
915.293	5051.38
915.529	5090.38
915.764	5110.38
916	5069.38
916.235	5118.38
916.471	5061.38
916.706	4977.38
916.941	5023.38
917.177	5041.38
917.412	5075.38
917.647	5053.38
917.882	4955.38
918.117	5003.38
918.352	4992.38
918.588	5021.38
918.823	4948.38
919.057	4909.38
919.292	4735.38
919.527	4820.38
919.762	4694.38
919.997	4743.38
920.232	4656.38
920.466	4675.38
920.701	4540.38
920.935	4556.38
921.17	4498.38
921.405	4458.38
921.639	4482.38
921.873	4475.38
922.108	4501.38
922.342	4450.38
922.576	4381.38
922.811	4388.38
923.045	4403.38
923.279	4435.38
923.513	4255.38
923.747	4344.38
923.981	4301.38
924.215	4239.38
924.449	4220.38
924.683	4138.38
924.917	4163.38
925.151	4173.38
925.385	4211.38
925.618	4137.38
925.852	4194.38
926.086	4050.38
926.319	4126.38
926.553	4127.38
926.786	4136.38
927.02	4091.38
927.253	4164.38
927.486	4120.38
927.72	4025.38
927.953	4086.38
928.186	4047.38
928.42	4076.38
928.653	3976.38
928.886	3965.38
929.119	3983.38
929.352	3941.38
929.585	3949.38
929.818	3860.38
930.051	3898.38
930.284	3825.38
930.516	3787.38
930.749	3753.38
930.982	3809.38
931.215	3758.38
931.447	3686.38
931.68	3734.38
931.912	3656.38
932.145	3670.38
932.377	3697.38
932.61	3821.38
932.842	3622.38
933.074	3706.38
933.307	3655.38
933.539	3724.38
933.771	3748.38
934.003	3660.38
934.236	3749.38
934.468	3760.38
934.7	3652.38
934.932	3695.38
935.164	3628.38
935.395	3614.38
935.627	3632.38
935.859	3574.38
936.091	3573.38
936.323	3576.38
936.554	3664.38
936.786	3530.38
937.017	3515.38
937.249	3498.38
937.481	3487.38
937.712	3568.38
937.943	3521.38
938.175	3463.38
938.406	3488.38
938.637	3537.38
938.869	3489.38
939.1	3514.38
939.331	3449.38
939.562	3491.38
939.793	3457.38
940.024	3453.38
940.255	3458.38
940.486	3433.38
940.717	3397.38
940.948	3354.38
941.179	3309.38
941.409	3345.38
941.64	3335.38
941.871	3357.38
942.102	3317.38
942.332	3311.38
942.563	3336.38
942.793	3345.38
943.024	3314.38
943.254	3305.38
943.484	3320.38
943.715	3382.38
943.945	3301.38
944.175	3250.38
944.405	3189.38
944.636	3213.38
944.866	3333.38
945.096	3279.38
945.326	3228.38
945.556	3268.38
945.786	3307.38
946.016	3224.38
946.245	3152.38
946.475	3194.38
946.705	3177.38
946.935	3131.38
947.164	3131.38
947.394	3082.38
947.624	3069.38
947.853	3156.38
948.083	3078.38
948.312	3071.38
948.542	3012.38
948.771	2986.38
949	2982.38
949.23	3031.38
949.459	3003.38
949.688	3078.38
949.917	3038.38
950.146	3040.38
950.375	3058.38
950.604	2939.38
950.833	3092.38
951.062	3045.38
951.291	3007.38
951.52	2973.38
951.749	2977.38
951.978	2964.38
952.206	2923.38
952.435	2920.38
952.664	2990.38
952.892	2975.38
953.121	2926.38
953.349	2954.38
953.578	2910.38
953.806	2924.38
954.035	2855.38
954.263	2847.38
954.491	2802.38
954.719	2848.38
954.948	2790.38
955.176	2785.38
955.404	2729.38
955.632	2796.38
955.86	2798.38
956.088	2770.38
956.316	2822.38
956.544	2783.38
956.772	2757.38
956.999	2673.38
957.227	2787.38
957.455	2674.38
957.683	2690.38
957.91	2628.38
958.138	2625.38
958.365	2634.38
958.593	2637.38
958.82	2596.38
959.048	2668.38
959.275	2633.38
959.502	2611.38
959.73	2589.38
959.957	2580.38
960.184	2601.38
960.411	2589.38
960.638	2628.38
960.865	2585.38
961.092	2591.38
961.319	2504.38
961.546	2625.38
961.773	2607.38
962	2554.38
962.227	2603.38
962.454	2551.38
962.68	2512.38
962.907	2528.38
963.134	2477.38
963.36	2496.38
963.587	2557.38
963.813	2473.38
964.04	2490.38
964.266	2402.38
964.493	2488.38
964.719	2505.38
964.945	2449.38
965.171	2347.38
965.398	2405.38
965.624	2422.38
965.85	2336.38
966.076	2343.38
966.302	2390.38
966.528	2356.38
966.754	2346.38
966.98	2379.38
967.206	2342.38
967.431	2278.38
967.657	2404.38
967.883	2362.38
968.109	2294.38
968.334	2299.38
968.56	2289.38
968.785	2274.38
969.011	2242.38
969.236	2344.38
969.462	2244.38
969.687	2242.38
969.912	2262.38
970.138	2286.38
970.363	2215.38
970.588	2275.38
970.813	2208.38
971.038	2179.38
971.263	2209.38
971.488	2244.38
971.713	2226.38
971.938	2239.38
972.163	2094.38
972.388	2164.38
972.613	2158.38
972.838	2142.38
973.062	2154.38
973.287	2142.38
973.512	2078.38
973.736	2118.38
973.961	2076.38
974.185	2050.38
974.41	2117.38
974.634	2018.38
974.858	2004.38
975.083	2053.38
975.307	2057.38
975.531	1978.38
975.755	1952.38
975.98	1986.38
976.204	1910.38
976.428	1926.38
976.652	1887.38
976.876	1891.38
977.1	1947.38
977.324	1887.38
977.547	1950.38
977.771	1972.38
977.995	1947.38
978.219	1853.38
978.442	2003.38
978.666	1905.38
978.89	1902.38
979.113	1908.38
979.337	1896.38
979.56	1881.38
979.783	1949.38
980.007	1861.38
980.23	1869.38
980.453	1845.38
980.677	1872.38
980.9	1869.38
981.123	1746.38
981.346	1892.38
981.569	1827.38
981.792	1855.38
982.015	1813.38
982.238	1782.38
982.461	1786.38
982.684	1750.38
982.907	1753.38
983.129	1730.38
983.352	1773.38
983.575	1752.38
983.797	1763.38
984.02	1762.38
984.242	1708.38
984.465	1704.38
984.687	1727.38
984.91	1763.38
985.132	1729.38
985.354	1731.38
985.577	1706.38
985.799	1678.38
986.021	1643.38
986.243	1664.38
986.465	1682.38
986.687	1719.38
986.909	1750.38
987.131	1678.38
987.353	1634.38
987.575	1664.38
987.797	1689.38
988.019	1587.38
988.241	1654.38
988.462	1620.38
988.684	1665.38
988.906	1738.38
989.127	1692.38
989.349	1578.38
989.57	1622.38
989.792	1663.38
990.013	1672.38
990.234	1667.38
990.456	1683.38
990.677	1670.38
990.898	1614.38
991.119	1603.38
991.341	1630.38
991.562	1573.38
991.783	1587.38
992.004	1559.38
992.225	1531.38
992.446	1593.38
992.667	1507.38
992.887	1602.38
993.108	1466.38
993.329	1585.38
993.55	1542.38
993.77	1477.38
993.991	1501.38
994.212	1519.38
994.432	1531.38
994.653	1526.38
994.873	1527.38
995.093	1396.38
995.314	1454.38
995.534	1499.38
995.754	1526.38
995.975	1546.38
996.195	1407.38
996.415	1510.38
996.635	1459.38
996.855	1469.38
997.075	1469.38
997.295	1420.38
997.515	1426.38
997.735	1477.38
997.955	1450.38
998.174	1422.38
998.394	1384.38
998.614	1445.38
998.834	1427.38
999.053	1509.38
999.273	1462.38
999.492	1470.38
999.712	1443.38
999.931	1402.38
1000.151	1465.38
1000.37	1411.38
1000.589	1474.38
1000.809	1418.38
1001.028	1502.38
1001.247	1467.38
1001.466	1342.38
1001.685	1486.38
1001.904	1404.38
1002.123	1413.38
1002.342	1425.38
1002.561	1386.38
1002.78	1414.38
1002.999	1467.38
1003.218	1382.38
1003.436	1386.38
1003.655	1441.38
1003.874	1368.38
1004.092	1360.38
1004.311	1432.38
1004.53	1392.38
1004.748	1471.38
1004.966	1378.38
1005.185	1442.38
1005.403	1435.38
1005.622	1394.38
1005.84	1461.38
1006.058	1332.38
1006.276	1367.38
1006.494	1750.38
1006.712	1390.38
1006.931	1479.38
1007.149	1360.38
1007.367	1354.38
1007.584	1389.38
1007.802	1415.38
1008.02	1330.38
1008.238	1442.38
1008.456	1428.38
1008.673	1315.38
1008.891	1375.38
1009.109	1337.38
1009.326	1375.38
1009.544	1452.38
1009.761	1366.38
1009.979	1416.38
1010.196	1397.38
1010.413	1460.38
1010.631	1491.38
1010.848	1493.38
1011.065	1484.38
1011.282	1420.38
1011.5	1383.38
1011.717	1513.38
1011.934	1418.38
1012.151	1460.38
1012.368	1429.38
1012.585	1394.38
1012.801	1459.38
1013.018	1406.38
1013.235	1396.38
1013.452	1384.38
1013.669	1384.38
1013.885	1356.38
1014.102	1419.38
1014.318	1359.38
1014.535	1320.38
1014.751	1368.38
1014.968	1359.38
1015.184	1386.38
1015.401	1295.38
1015.617	1322.38
1015.833	1305.38
1016.049	1286.38
1016.266	1295.38
1016.482	1281.38
1016.698	1218.38
1016.914	1301.38
1017.13	1259.38
1017.346	1249.38
1017.562	1325.38
1017.778	1231.38
1017.993	1216.38
1018.209	1283.38
1018.425	1271.38
1018.641	1216.38
1018.856	1206.38
1019.072	1223.38
1019.288	1269.38
1019.503	1232.38
1019.719	1152.38
1019.934	1165.38
1020.149	1241.38
1020.365	1181.38
1020.58	1136.38
1020.795	1189.38
1021.011	1121.38
1021.226	1123.38
1021.441	1136.38
1021.656	1072.38
1021.871	1039.38
1022.086	998.38
1022.301	1019.38
1022.516	1018.38
1022.731	1082.38
1022.946	990.38
1023.16	960.38
1023.375	939.38
1023.59	948.38
1023.804	924.38
1024.019	1009.38
1024.234	906.38
1024.448	934.38
1024.663	869.38
1024.877	901.38
1025.092	909.38
1025.306	907.38
1025.52	825.38
1025.734	930.38
1025.949	839.38
1026.163	820.38
1026.377	754.38
1026.591	825.38
1026.805	759.38
1027.019	754.38
1027.233	709.38
1027.447	647.38
1027.661	781.38
1027.875	717.38
1028.088	728.38
1028.302	661.38
1028.516	638.38
1028.73	655.38
1028.943	655.38
1029.157	613.38
1029.37	561.38
1029.584	-1.62
1029.797	-0.62
1030.011	-2.62
1030.224	0.38
