Data from QEP037381__13__13-23-54-035.txt Node

Date: Fri Apr 28 13:23:54 EDT 2023
User: dcclab
Spectrometer: QEP03738
Trigger mode: 4
Integration Time (sec): 1.000000E1
Scans to average: 1
Electric dark correction enabled: true
Nonlinearity correction enabled: false
Boxcar width: 0
XAxis mode: Wavelengths
Number of Pixels in Spectrum: 1044
>>>>>Begin Spectral Data<<<<<
784.041	10.88
784.3	2.88
784.558	0.88
784.817	-4.12
785.075	67596.88
785.334	13766.88
785.592	7254.88
785.851	5116.88
786.109	3839.88
786.368	3072.88
786.626	2461.88
786.884	2033.88
787.143	1727.88
787.401	1384.88
787.659	1282.88
787.917	1092.88
788.175	1009.88
788.433	878.88
788.691	790.88
788.949	736.88
789.207	716.88
789.465	615.88
789.723	588.88
789.98	538.88
790.238	587.88
790.496	554.88
790.753	533.88
791.011	559.88
791.268	532.88
791.526	486.88
791.783	522.88
792.041	499.88
792.298	407.88
792.556	478.88
792.813	480.88
793.07	445.88
793.327	423.88
793.584	524.88
793.841	437.88
794.099	459.88
794.356	507.88
794.613	418.88
794.869	450.88
795.126	417.88
795.383	395.88
795.64	431.88
795.897	373.88
796.153	442.88
796.41	417.88
796.667	399.88
796.923	420.88
797.18	424.88
797.436	438.88
797.693	396.88
797.949	459.88
798.206	484.88
798.462	395.88
798.718	450.88
798.974	430.88
799.231	481.88
799.487	459.88
799.743	454.88
799.999	495.88
800.255	476.88
800.511	475.88
800.767	516.88
801.023	495.88
801.279	532.88
801.534	574.88
801.79	595.88
802.046	623.88
802.302	772.88
802.557	882.88
802.813	1098.88
803.068	1356.88
803.324	1914.88
803.579	2678.88
803.835	3738.88
804.09	5191.88
804.345	6699.88
804.601	8255.88
804.856	9702.88
805.111	10818.88
805.366	11591.88
805.621	12096.88
805.876	12371.88
806.131	12681.88
806.386	12825.88
806.641	13152.88
806.896	13239.88
807.151	13505.88
807.406	13685.88
807.661	13827.88
807.915	14154.88
808.17	14443.88
808.425	14579.88
808.679	14752.88
808.934	14962.88
809.188	15025.88
809.443	15357.88
809.697	15466.88
809.951	15640.88
810.206	15688.88
810.46	15947.88
810.714	15948.88
810.968	16132.88
811.223	16199.88
811.477	16383.88
811.731	16466.88
811.985	16564.88
812.239	16592.88
812.493	16767.88
812.747	16927.88
813	16781.88
813.254	16953.88
813.508	16979.88
813.762	16944.88
814.015	17022.88
814.269	17256.88
814.522	17370.88
814.776	17575.88
815.03	17805.88
815.283	18052.88
815.536	18374.88
815.79	18705.88
816.043	18795.88
816.296	19151.88
816.55	19389.88
816.803	19603.88
817.056	19981.88
817.309	20016.88
817.562	20219.88
817.815	20440.88
818.068	20573.88
818.321	21005.88
818.574	21193.88
818.827	21412.88
819.079	21825.88
819.332	22296.88
819.585	22419.88
819.838	22860.88
820.09	22895.88
820.343	23194.88
820.595	23222.88
820.848	23481.88
821.1	23436.88
821.353	23403.88
821.605	23439.88
821.857	23517.88
822.11	23384.88
822.362	23216.88
822.614	23172.88
822.866	23278.88
823.118	23212.88
823.37	23317.88
823.622	23356.88
823.874	23524.88
824.126	23631.88
824.378	23563.88
824.63	23660.88
824.882	23703.88
825.134	23630.88
825.385	23574.88
825.637	23464.88
825.888	23419.88
826.14	23320.88
826.392	23277.88
826.643	23165.88
826.895	23150.88
827.146	23057.88
827.397	23054.88
827.649	23024.88
827.9	23011.88
828.151	22963.88
828.402	23025.88
828.653	23094.88
828.905	23101.88
829.156	23150.88
829.407	23050.88
829.658	23024.88
829.909	23057.88
830.159	22861.88
830.41	22818.88
830.661	22652.88
830.912	22398.88
831.162	22335.88
831.413	22449.88
831.664	22437.88
831.914	22441.88
832.165	22393.88
832.415	22425.88
832.666	22380.88
832.916	22444.88
833.167	22316.88
833.417	22247.88
833.667	22074.88
833.917	22137.88
834.168	22033.88
834.418	21973.88
834.668	21914.88
834.918	21783.88
835.168	21660.88
835.418	21544.88
835.668	21534.88
835.918	21620.88
836.167	21537.88
836.417	21469.88
836.667	21356.88
836.917	21363.88
837.166	21204.88
837.416	21317.88
837.666	21314.88
837.915	21064.88
838.165	20960.88
838.414	20968.88
838.663	20920.88
838.913	20837.88
839.162	20697.88
839.411	20790.88
839.661	20693.88
839.91	20733.88
840.159	20650.88
840.408	20676.88
840.657	20629.88
840.906	20616.88
841.155	20665.88
841.404	20586.88
841.653	20530.88
841.902	20519.88
842.15	20523.88
842.399	20555.88
842.648	20447.88
842.897	20449.88
843.145	20188.88
843.394	20200.88
843.642	20089.88
843.891	19969.88
844.139	19971.88
844.388	19807.88
844.636	19742.88
844.884	19616.88
845.133	19495.88
845.381	19571.88
845.629	19494.88
845.877	19541.88
846.125	19390.88
846.373	19482.88
846.621	19271.88
846.869	19315.88
847.117	19182.88
847.365	19009.88
847.613	19056.88
847.861	18988.88
848.108	18953.88
848.356	18763.88
848.604	18802.88
848.851	18694.88
849.099	18891.88
849.346	18937.88
849.594	18922.88
849.841	19061.88
850.089	19070.88
850.336	19056.88
850.583	19069.88
850.831	18911.88
851.078	18865.88
851.325	18700.88
851.572	18715.88
851.819	18371.88
852.066	18141.88
852.313	17874.88
852.56	17844.88
852.807	17768.88
853.054	17639.88
853.301	17560.88
853.548	17643.88
853.794	17865.88
854.041	17803.88
854.288	17932.88
854.534	18092.88
854.781	18000.88
855.028	17883.88
855.274	17847.88
855.52	17708.88
855.767	17552.88
856.013	17662.88
856.26	17764.88
856.506	17360.88
856.752	17322.88
856.998	17337.88
857.244	17376.88
857.49	17532.88
857.736	17446.88
857.982	17509.88
858.228	17447.88
858.474	17325.88
858.72	17251.88
858.966	17119.88
859.212	16934.88
859.458	16754.88
859.703	16595.88
859.949	16306.88
860.195	16352.88
860.44	16173.88
860.686	16042.88
860.931	16070.88
861.177	15993.88
861.422	15928.88
861.667	15890.88
861.913	15906.88
862.158	16028.88
862.403	16068.88
862.648	16223.88
862.893	16166.88
863.138	16066.88
863.384	16023.88
863.629	15992.88
863.873	15921.88
864.118	15852.88
864.363	15655.88
864.608	15770.88
864.853	15703.88
865.098	15517.88
865.342	15444.88
865.587	15418.88
865.832	15400.88
866.076	15249.88
866.321	15331.88
866.565	15146.88
866.81	15169.88
867.054	15078.88
867.298	15057.88
867.543	15036.88
867.787	15042.88
868.031	15066.88
868.275	14957.88
868.519	14939.88
868.764	14971.88
869.008	14880.88
869.252	14847.88
869.496	14659.88
869.739	14747.88
869.983	14738.88
870.227	14738.88
870.471	14632.88
870.715	14749.88
870.958	14719.88
871.202	14746.88
871.446	14700.88
871.689	14581.88
871.933	14697.88
872.176	14700.88
872.42	14772.88
872.663	14568.88
872.906	14664.88
873.15	14465.88
873.393	14243.88
873.636	14193.88
873.879	14067.88
874.122	14069.88
874.366	13801.88
874.609	13805.88
874.852	13721.88
875.095	13699.88
875.337	13584.88
875.58	13507.88
875.823	13460.88
876.066	13507.88
876.309	13397.88
876.551	13307.88
876.794	13276.88
877.037	13373.88
877.279	13252.88
877.522	13231.88
877.764	13348.88
878.007	13258.88
878.249	13309.88
878.491	13260.88
878.734	13286.88
878.976	13169.88
879.218	13021.88
879.46	13048.88
879.702	12945.88
879.945	12823.88
880.187	12670.88
880.429	12629.88
880.671	12500.88
880.912	12480.88
881.154	12469.88
881.396	12376.88
881.638	12376.88
881.88	12353.88
882.121	12391.88
882.363	12211.88
882.605	12324.88
882.846	12232.88
883.088	12267.88
883.329	12160.88
883.571	12079.88
883.812	12128.88
884.053	12194.88
884.295	12214.88
884.536	12330.88
884.777	12308.88
885.018	12193.88
885.259	12226.88
885.5	12083.88
885.742	12194.88
885.982	12089.88
886.223	11986.88
886.464	11988.88
886.705	11869.88
886.946	11811.88
887.187	11711.88
887.428	11700.88
887.668	11435.88
887.909	11382.88
888.15	11274.88
888.39	11329.88
888.631	11249.88
888.871	11093.88
889.111	11035.88
889.352	10990.88
889.592	10845.88
889.833	10835.88
890.073	10719.88
890.313	10722.88
890.553	10597.88
890.793	10552.88
891.033	10441.88
891.273	10422.88
891.513	10396.88
891.753	10478.88
891.993	10406.88
892.233	10458.88
892.473	10537.88
892.713	10488.88
892.952	10415.88
893.192	10392.88
893.432	10344.88
893.671	10355.88
893.911	10335.88
894.15	10223.88
894.39	10117.88
894.629	10096.88
894.869	10035.88
895.108	9915.88
895.347	9909.88
895.587	9800.88
895.826	9838.88
896.065	9688.88
896.304	9785.88
896.543	9719.88
896.782	9702.88
897.021	9665.88
897.26	9668.88
897.499	9758.88
897.738	9680.88
897.977	9531.88
898.216	9420.88
898.454	9356.88
898.693	9320.88
898.932	9288.88
899.17	9256.88
899.409	9243.88
899.647	9147.88
899.886	9131.88
900.124	9219.88
900.363	9102.88
900.601	9155.88
900.839	9207.88
901.078	9134.88
901.316	9196.88
901.554	9281.88
901.792	9232.88
902.03	9120.88
902.268	9185.88
902.506	9159.88
902.744	9038.88
902.982	9052.88
903.22	8938.88
903.458	8794.88
903.695	8678.88
903.933	8643.88
904.171	8524.88
904.409	8338.88
904.646	8326.88
904.884	8164.88
905.121	8233.88
905.359	8092.88
905.596	8027.88
905.833	7898.88
906.071	7902.88
906.308	7969.88
906.545	7927.88
906.783	7843.88
907.02	7838.88
907.257	7810.88
907.494	7811.88
907.731	7770.88
907.968	7794.88
908.205	7727.88
908.442	7655.88
908.679	7589.88
908.915	7583.88
909.152	7584.88
909.389	7373.88
909.626	7419.88
909.862	7323.88
910.099	7285.88
910.335	7303.88
910.572	7109.88
910.808	7252.88
911.045	7154.88
911.281	7119.88
911.518	7161.88
911.754	7059.88
911.99	7085.88
912.226	7085.88
912.463	6987.88
912.699	6924.88
912.935	6905.88
913.171	6823.88
913.407	6724.88
913.643	6756.88
913.879	6604.88
914.114	6616.88
914.35	6483.88
914.586	6468.88
914.822	6419.88
915.057	6403.88
915.293	6242.88
915.529	6162.88
915.764	6308.88
916	6274.88
916.235	6241.88
916.471	6265.88
916.706	6195.88
916.941	6222.88
917.177	6194.88
917.412	6198.88
917.647	6188.88
917.882	6181.88
918.117	6185.88
918.352	6156.88
918.588	6159.88
918.823	6046.88
919.057	6053.88
919.292	5885.88
919.527	5911.88
919.762	5782.88
919.997	5800.88
920.232	5694.88
920.466	5674.88
920.701	5536.88
920.935	5578.88
921.17	5543.88
921.405	5437.88
921.639	5509.88
921.873	5457.88
922.108	5445.88
922.342	5472.88
922.576	5407.88
922.811	5365.88
923.045	5433.88
923.279	5416.88
923.513	5275.88
923.747	5368.88
923.981	5321.88
924.215	5201.88
924.449	5171.88
924.683	5127.88
924.917	5085.88
925.151	5128.88
925.385	5161.88
925.618	5081.88
925.852	5066.88
926.086	5006.88
926.319	5027.88
926.553	5012.88
926.786	5038.88
927.02	5026.88
927.253	5019.88
927.486	5001.88
927.72	4937.88
927.953	5032.88
928.186	4951.88
928.42	4940.88
928.653	4848.88
928.886	4846.88
929.119	4894.88
929.352	4908.88
929.585	4832.88
929.818	4768.88
930.051	4763.88
930.284	4723.88
930.516	4616.88
930.749	4591.88
930.982	4604.88
931.215	4616.88
931.447	4517.88
931.68	4512.88
931.912	4489.88
932.145	4495.88
932.377	4522.88
932.61	4648.88
932.842	4459.88
933.074	4525.88
933.307	4476.88
933.539	4579.88
933.771	4552.88
934.003	4491.88
934.236	4562.88
934.468	4564.88
934.7	4524.88
934.932	4529.88
935.164	4475.88
935.395	4426.88
935.627	4503.88
935.859	4484.88
936.091	4429.88
936.323	4384.88
936.554	4400.88
936.786	4311.88
937.017	4298.88
937.249	4363.88
937.481	4207.88
937.712	4286.88
937.943	4259.88
938.175	4216.88
938.406	4233.88
938.637	4299.88
938.869	4219.88
939.1	4283.88
939.331	4159.88
939.562	4205.88
939.793	4210.88
940.024	4258.88
940.255	4203.88
940.486	4121.88
940.717	4110.88
940.948	4084.88
941.179	4026.88
941.409	4081.88
941.64	4041.88
941.871	4031.88
942.102	4022.88
942.332	4060.88
942.563	4077.88
942.793	4078.88
943.024	3995.88
943.254	4018.88
943.484	4049.88
943.715	4062.88
943.945	4057.88
944.175	3999.88
944.405	3921.88
944.636	3945.88
944.866	4029.88
945.096	4018.88
945.326	3925.88
945.556	3932.88
945.786	3966.88
946.016	3903.88
946.245	3856.88
946.475	3800.88
946.705	3835.88
946.935	3801.88
947.164	3800.88
947.394	3745.88
947.624	3739.88
947.853	3785.88
948.083	3745.88
948.312	3713.88
948.542	3653.88
948.771	3637.88
949	3682.88
949.23	3669.88
949.459	3657.88
949.688	3763.88
949.917	3636.88
950.146	3645.88
950.375	3780.88
950.604	3611.88
950.833	3690.88
951.062	3660.88
951.291	3617.88
951.52	3585.88
951.749	3606.88
951.978	3550.88
952.206	3555.88
952.435	3560.88
952.664	3572.88
952.892	3525.88
953.121	3534.88
953.349	3530.88
953.578	3519.88
953.806	3513.88
954.035	3454.88
954.263	3474.88
954.491	3426.88
954.719	3450.88
954.948	3389.88
955.176	3355.88
955.404	3313.88
955.632	3367.88
955.86	3305.88
956.088	3365.88
956.316	3361.88
956.544	3355.88
956.772	3249.88
956.999	3255.88
957.227	3365.88
957.455	3234.88
957.683	3265.88
957.91	3173.88
958.138	3183.88
958.365	3186.88
958.593	3205.88
958.82	3074.88
959.048	3153.88
959.275	3165.88
959.502	3143.88
959.73	3089.88
959.957	3183.88
960.184	3190.88
960.411	3055.88
960.638	3168.88
960.865	3080.88
961.092	3170.88
961.319	3050.88
961.546	3138.88
961.773	3144.88
962	3074.88
962.227	3094.88
962.454	3092.88
962.68	3056.88
962.907	3067.88
963.134	2982.88
963.36	2997.88
963.587	3050.88
963.813	2933.88
964.04	2941.88
964.266	2923.88
964.493	3022.88
964.719	2914.88
964.945	2983.88
965.171	2842.88
965.398	2929.88
965.624	2908.88
965.85	2845.88
966.076	2774.88
966.302	2861.88
966.528	2836.88
966.754	2853.88
966.98	2833.88
967.206	2824.88
967.431	2713.88
967.657	2801.88
967.883	2803.88
968.109	2762.88
968.334	2714.88
968.56	2719.88
968.785	2738.88
969.011	2664.88
969.236	2738.88
969.462	2679.88
969.687	2715.88
969.912	2739.88
970.138	2724.88
970.363	2671.88
970.588	2677.88
970.813	2652.88
971.038	2599.88
971.263	2643.88
971.488	2637.88
971.713	2671.88
971.938	2651.88
972.163	2521.88
972.388	2560.88
972.613	2552.88
972.838	2557.88
973.062	2546.88
973.287	2503.88
973.512	2461.88
973.736	2512.88
973.961	2514.88
974.185	2458.88
974.41	2506.88
974.634	2418.88
974.858	2400.88
975.083	2424.88
975.307	2438.88
975.531	2387.88
975.755	2355.88
975.98	2342.88
976.204	2283.88
976.428	2294.88
976.652	2310.88
976.876	2280.88
977.1	2329.88
977.324	2248.88
977.547	2325.88
977.771	2303.88
977.995	2279.88
978.219	2224.88
978.442	2340.88
978.666	2302.88
978.89	2271.88
979.113	2244.88
979.337	2280.88
979.56	2229.88
979.783	2311.88
980.007	2213.88
980.23	2212.88
980.453	2175.88
980.677	2231.88
980.9	2209.88
981.123	2118.88
981.346	2188.88
981.569	2167.88
981.792	2165.88
982.015	2143.88
982.238	2110.88
982.461	2132.88
982.684	2072.88
982.907	2083.88
983.129	2051.88
983.352	2094.88
983.575	2036.88
983.797	2089.88
984.02	2023.88
984.242	2010.88
984.465	2014.88
984.687	2043.88
984.91	2059.88
985.132	2040.88
985.354	2043.88
985.577	1985.88
985.799	2014.88
986.021	1915.88
986.243	1938.88
986.465	1945.88
986.687	2013.88
986.909	2056.88
987.131	1977.88
987.353	1905.88
987.575	1977.88
987.797	1923.88
988.019	1848.88
988.241	1915.88
988.462	1898.88
988.684	1956.88
988.906	1962.88
989.127	1982.88
989.349	1890.88
989.57	1909.88
989.792	1923.88
990.013	1930.88
990.234	1942.88
990.456	1957.88
990.677	1931.88
990.898	1866.88
991.119	1888.88
991.341	1867.88
991.562	1808.88
991.783	1864.88
992.004	1804.88
992.225	1803.88
992.446	1843.88
992.667	1749.88
992.887	1829.88
993.108	1704.88
993.329	1840.88
993.55	1771.88
993.77	1725.88
993.991	1728.88
994.212	1762.88
994.432	1725.88
994.653	1771.88
994.873	1743.88
995.093	1609.88
995.314	1702.88
995.534	1738.88
995.754	1741.88
995.975	1770.88
996.195	1646.88
996.415	1727.88
996.635	1655.88
996.855	1691.88
997.075	1684.88
997.295	1664.88
997.515	1649.88
997.735	1706.88
997.955	1663.88
998.174	1654.88
998.394	1607.88
998.614	1673.88
998.834	1615.88
999.053	1691.88
999.273	1643.88
999.492	1721.88
999.712	1617.88
999.931	1618.88
1000.151	1630.88
1000.37	1646.88
1000.589	1674.88
1000.809	1612.88
1001.028	1714.88
1001.247	1647.88
1001.466	1535.88
1001.685	1670.88
1001.904	1607.88
1002.123	1592.88
1002.342	1581.88
1002.561	1553.88
1002.78	1595.88
1002.999	1660.88
1003.218	1571.88
1003.436	1538.88
1003.655	1615.88
1003.874	1548.88
1004.092	1573.88
1004.311	1598.88
1004.53	1576.88
1004.748	1642.88
1004.966	1546.88
1005.185	1586.88
1005.403	1614.88
1005.622	1589.88
1005.84	1635.88
1006.058	1540.88
1006.276	1556.88
1006.494	1928.88
1006.712	1526.88
1006.931	1628.88
1007.149	1513.88
1007.367	1517.88
1007.584	1544.88
1007.802	1550.88
1008.02	1503.88
1008.238	1604.88
1008.456	1585.88
1008.673	1480.88
1008.891	1550.88
1009.109	1529.88
1009.326	1533.88
1009.544	1632.88
1009.761	1533.88
1009.979	1609.88
1010.196	1571.88
1010.413	1640.88
1010.631	1667.88
1010.848	1695.88
1011.065	1671.88
1011.282	1652.88
1011.5	1568.88
1011.717	1678.88
1011.934	1608.88
1012.151	1630.88
1012.368	1645.88
1012.585	1575.88
1012.801	1618.88
1013.018	1593.88
1013.235	1536.88
1013.452	1581.88
1013.669	1570.88
1013.885	1544.88
1014.102	1605.88
1014.318	1568.88
1014.535	1512.88
1014.751	1559.88
1014.968	1542.88
1015.184	1563.88
1015.401	1485.88
1015.617	1548.88
1015.833	1479.88
1016.049	1473.88
1016.266	1480.88
1016.482	1463.88
1016.698	1403.88
1016.914	1469.88
1017.13	1437.88
1017.346	1406.88
1017.562	1461.88
1017.778	1401.88
1017.993	1365.88
1018.209	1457.88
1018.425	1411.88
1018.641	1386.88
1018.856	1349.88
1019.072	1392.88
1019.288	1446.88
1019.503	1355.88
1019.719	1302.88
1019.934	1289.88
1020.149	1356.88
1020.365	1319.88
1020.58	1278.88
1020.795	1335.88
1021.011	1259.88
1021.226	1259.88
1021.441	1283.88
1021.656	1213.88
1021.871	1158.88
1022.086	1157.88
1022.301	1157.88
1022.516	1141.88
1022.731	1224.88
1022.946	1108.88
1023.16	1094.88
1023.375	1075.88
1023.59	1064.88
1023.804	1005.88
1024.019	1126.88
1024.234	1002.88
1024.448	1021.88
1024.663	970.88
1024.877	984.88
1025.092	1003.88
1025.306	1006.88
1025.52	934.88
1025.734	988.88
1025.949	930.88
1026.163	914.88
1026.377	860.88
1026.591	921.88
1026.805	819.88
1027.019	834.88
1027.233	808.88
1027.447	754.88
1027.661	847.88
1027.875	809.88
1028.088	807.88
1028.302	724.88
1028.516	716.88
1028.73	719.88
1028.943	709.88
1029.157	664.88
1029.37	636.88
1029.584	-3.12
1029.797	-0.12
1030.011	-4.12
1030.224	-3.12
