Data from QEP037381__30__13-26-44-034.txt Node

Date: Fri Apr 28 13:26:44 EDT 2023
User: dcclab
Spectrometer: QEP03738
Trigger mode: 4
Integration Time (sec): 1.000000E1
Scans to average: 1
Electric dark correction enabled: true
Nonlinearity correction enabled: false
Boxcar width: 0
XAxis mode: Wavelengths
Number of Pixels in Spectrum: 1044
>>>>>Begin Spectral Data<<<<<
784.041	10.5
784.3	-0.5
784.558	-4.5
784.817	-0.5
785.075	66709.5
785.334	13368.5
785.592	6962.5
785.851	4916.5
786.109	3722.5
786.368	2916.5
786.626	2362.5
786.884	1984.5
787.143	1673.5
787.401	1373.5
787.659	1263.5
787.917	1072.5
788.175	986.5
788.433	863.5
788.691	787.5
788.949	731.5
789.207	695.5
789.465	603.5
789.723	582.5
789.98	538.5
790.238	577.5
790.496	540.5
790.753	515.5
791.011	566.5
791.268	494.5
791.526	484.5
791.783	509.5
792.041	486.5
792.298	403.5
792.556	461.5
792.813	450.5
793.07	423.5
793.327	415.5
793.584	500.5
793.841	420.5
794.099	450.5
794.356	500.5
794.613	390.5
794.869	438.5
795.126	410.5
795.383	376.5
795.64	417.5
795.897	358.5
796.153	424.5
796.41	397.5
796.667	395.5
796.923	380.5
797.18	389.5
797.436	415.5
797.693	382.5
797.949	431.5
798.206	453.5
798.462	373.5
798.718	431.5
798.974	410.5
799.231	448.5
799.487	430.5
799.743	441.5
799.999	444.5
800.255	460.5
800.511	434.5
800.767	469.5
801.023	460.5
801.279	477.5
801.534	503.5
801.79	547.5
802.046	551.5
802.302	648.5
802.557	716.5
802.813	874.5
803.068	1039.5
803.324	1438.5
803.579	1912.5
803.835	2578.5
804.09	3578.5
804.345	4571.5
804.601	5688.5
804.856	6676.5
805.111	7446.5
805.366	7985.5
805.621	8255.5
805.876	8479.5
806.131	8667.5
806.386	8805.5
806.641	8888.5
806.896	9081.5
807.151	9247.5
807.406	9357.5
807.661	9511.5
807.915	9739.5
808.17	9826.5
808.425	9886.5
808.679	10055.5
808.934	10252.5
809.188	10309.5
809.443	10437.5
809.697	10574.5
809.951	10712.5
810.206	10712.5
810.46	10798.5
810.714	10972.5
810.968	11008.5
811.223	11015.5
811.477	11196.5
811.731	11280.5
811.985	11294.5
812.239	11287.5
812.493	11438.5
812.747	11498.5
813	11440.5
813.254	11618.5
813.508	11775.5
813.762	11668.5
814.015	11755.5
814.269	11862.5
814.522	11898.5
814.776	11999.5
815.03	12186.5
815.283	12464.5
815.536	12640.5
815.79	12699.5
816.043	12956.5
816.296	13060.5
816.55	13234.5
816.803	13392.5
817.056	13609.5
817.309	13766.5
817.562	13839.5
817.815	14075.5
818.068	14096.5
818.321	14355.5
818.574	14498.5
818.827	14730.5
819.079	14906.5
819.332	15260.5
819.585	15397.5
819.838	15595.5
820.09	15754.5
820.343	15840.5
820.595	15977.5
820.848	16076.5
821.1	16051.5
821.353	16017.5
821.605	16046.5
821.857	16125.5
822.11	15978.5
822.362	15970.5
822.614	15890.5
822.866	15929.5
823.118	15977.5
823.37	16047.5
823.622	16110.5
823.874	16144.5
824.126	16242.5
824.378	16214.5
824.63	16265.5
824.882	16259.5
825.134	16189.5
825.385	16305.5
825.637	16139.5
825.888	16121.5
826.14	15987.5
826.392	15991.5
826.643	15941.5
826.895	15875.5
827.146	15797.5
827.397	15772.5
827.649	15827.5
827.9	15827.5
828.151	15846.5
828.402	15759.5
828.653	15848.5
828.905	15917.5
829.156	15909.5
829.407	15789.5
829.658	15869.5
829.909	15817.5
830.159	15820.5
830.41	15709.5
830.661	15661.5
830.912	15580.5
831.162	15371.5
831.413	15427.5
831.664	15560.5
831.914	15352.5
832.165	15498.5
832.415	15468.5
832.666	15491.5
832.916	15515.5
833.167	15380.5
833.417	15396.5
833.667	15343.5
833.917	15278.5
834.168	15315.5
834.418	15106.5
834.668	15141.5
834.918	14987.5
835.168	15081.5
835.418	15023.5
835.668	14922.5
835.918	14946.5
836.167	14902.5
836.417	14868.5
836.667	14844.5
836.917	14799.5
837.166	14704.5
837.416	14737.5
837.666	14700.5
837.915	14619.5
838.165	14584.5
838.414	14505.5
838.663	14391.5
838.913	14484.5
839.162	14293.5
839.411	14494.5
839.661	14321.5
839.91	14374.5
840.159	14236.5
840.408	14252.5
840.657	14244.5
840.906	14315.5
841.155	14299.5
841.404	14175.5
841.653	14173.5
841.902	14194.5
842.15	14194.5
842.399	14251.5
842.648	14202.5
842.897	14065.5
843.145	13963.5
843.394	13960.5
843.642	13844.5
843.891	13791.5
844.139	13834.5
844.388	13666.5
844.636	13577.5
844.884	13664.5
845.133	13484.5
845.381	13509.5
845.629	13561.5
845.877	13550.5
846.125	13522.5
846.373	13512.5
846.621	13376.5
846.869	13355.5
847.117	13315.5
847.365	13235.5
847.613	13194.5
847.861	13173.5
848.108	13118.5
848.356	13092.5
848.604	13031.5
848.851	13096.5
849.099	13100.5
849.346	13131.5
849.594	13148.5
849.841	13348.5
850.089	13239.5
850.336	13149.5
850.583	13175.5
850.831	13190.5
851.078	13086.5
851.325	13089.5
851.572	13025.5
851.819	12890.5
852.066	12640.5
852.313	12497.5
852.56	12374.5
852.807	12328.5
853.054	12319.5
853.301	12284.5
853.548	12319.5
853.794	12426.5
854.041	12480.5
854.288	12500.5
854.534	12653.5
854.781	12480.5
855.028	12559.5
855.274	12480.5
855.52	12335.5
855.767	12196.5
856.013	12233.5
856.26	12472.5
856.506	12104.5
856.752	12111.5
856.998	12115.5
857.244	12050.5
857.49	12177.5
857.736	12204.5
857.982	12114.5
858.228	12175.5
858.474	12036.5
858.72	12005.5
858.966	11911.5
859.212	11781.5
859.458	11715.5
859.703	11616.5
859.949	11464.5
860.195	11398.5
860.44	11340.5
860.686	11224.5
860.931	11302.5
861.177	11181.5
861.422	11109.5
861.667	11126.5
861.913	11129.5
862.158	11232.5
862.403	11282.5
862.648	11265.5
862.893	11375.5
863.138	11314.5
863.384	11274.5
863.629	11186.5
863.873	11186.5
864.118	11021.5
864.363	11045.5
864.608	10945.5
864.853	10969.5
865.098	10843.5
865.342	10794.5
865.587	10737.5
865.832	10708.5
866.076	10702.5
866.321	10666.5
866.565	10653.5
866.81	10577.5
867.054	10587.5
867.298	10525.5
867.543	10620.5
867.787	10557.5
868.031	10541.5
868.275	10515.5
868.519	10503.5
868.764	10482.5
869.008	10434.5
869.252	10434.5
869.496	10378.5
869.739	10309.5
869.983	10310.5
870.227	10220.5
870.471	10219.5
870.715	10299.5
870.958	10349.5
871.202	10302.5
871.446	10296.5
871.689	10320.5
871.933	10338.5
872.176	10344.5
872.42	10225.5
872.663	10226.5
872.906	10246.5
873.15	10103.5
873.393	10009.5
873.636	9962.5
873.879	9923.5
874.122	9880.5
874.366	9679.5
874.609	9683.5
874.852	9630.5
875.095	9583.5
875.337	9566.5
875.58	9513.5
875.823	9493.5
876.066	9494.5
876.309	9583.5
876.551	9415.5
876.794	9306.5
877.037	9362.5
877.279	9275.5
877.522	9356.5
877.764	9463.5
878.007	9336.5
878.249	9331.5
878.491	9363.5
878.734	9318.5
878.976	9300.5
879.218	9162.5
879.46	9134.5
879.702	9111.5
879.945	8968.5
880.187	8920.5
880.429	8897.5
880.671	8896.5
880.912	8808.5
881.154	8754.5
881.396	8711.5
881.638	8747.5
881.88	8711.5
882.121	8725.5
882.363	8650.5
882.605	8693.5
882.846	8683.5
883.088	8602.5
883.329	8566.5
883.571	8486.5
883.812	8534.5
884.053	8600.5
884.295	8621.5
884.536	8707.5
884.777	8660.5
885.018	8672.5
885.259	8638.5
885.5	8490.5
885.742	8739.5
885.982	8570.5
886.223	8498.5
886.464	8470.5
886.705	8353.5
886.946	8350.5
887.187	8222.5
887.428	8220.5
887.668	8136.5
887.909	8009.5
888.15	7958.5
888.39	7946.5
888.631	7996.5
888.871	7896.5
889.111	7804.5
889.352	7817.5
889.592	7677.5
889.833	7642.5
890.073	7593.5
890.313	7653.5
890.553	7468.5
890.793	7470.5
891.033	7437.5
891.273	7326.5
891.513	7405.5
891.753	7431.5
891.993	7301.5
892.233	7396.5
892.473	7462.5
892.713	7458.5
892.952	7366.5
893.192	7418.5
893.432	7380.5
893.671	7386.5
893.911	7284.5
894.15	7237.5
894.39	7158.5
894.629	7165.5
894.869	7126.5
895.108	7092.5
895.347	7013.5
895.587	7048.5
895.826	6939.5
896.065	6952.5
896.304	7012.5
896.543	6964.5
896.782	6863.5
897.021	6907.5
897.26	6879.5
897.499	6937.5
897.738	6893.5
897.977	6803.5
898.216	6722.5
898.454	6630.5
898.693	6600.5
898.932	6661.5
899.17	6592.5
899.409	6576.5
899.647	6546.5
899.886	6467.5
900.124	6524.5
900.363	6490.5
900.601	6498.5
900.839	6552.5
901.078	6475.5
901.316	6536.5
901.554	6563.5
901.792	6553.5
902.03	6466.5
902.268	6506.5
902.506	6525.5
902.744	6476.5
902.982	6460.5
903.22	6290.5
903.458	6285.5
903.695	6288.5
903.933	6183.5
904.171	6100.5
904.409	6009.5
904.646	5957.5
904.884	5781.5
905.121	5809.5
905.359	5763.5
905.596	5735.5
905.833	5672.5
906.071	5630.5
906.308	5640.5
906.545	5641.5
906.783	5577.5
907.02	5573.5
907.257	5542.5
907.494	5558.5
907.731	5559.5
907.968	5589.5
908.205	5515.5
908.442	5460.5
908.679	5482.5
908.915	5431.5
909.152	5383.5
909.389	5262.5
909.626	5254.5
909.862	5270.5
910.099	5251.5
910.335	5282.5
910.572	5137.5
910.808	5172.5
911.045	5104.5
911.281	5082.5
911.518	5158.5
911.754	5100.5
911.99	5038.5
912.226	5073.5
912.463	4957.5
912.699	4958.5
912.935	4938.5
913.171	4914.5
913.407	4858.5
913.643	4860.5
913.879	4792.5
914.114	4732.5
914.35	4658.5
914.586	4684.5
914.822	4575.5
915.057	4669.5
915.293	4495.5
915.529	4499.5
915.764	4554.5
916	4511.5
916.235	4497.5
916.471	4523.5
916.706	4430.5
916.941	4463.5
917.177	4477.5
917.412	4512.5
917.647	4522.5
917.882	4439.5
918.117	4483.5
918.352	4433.5
918.588	4495.5
918.823	4342.5
919.057	4292.5
919.292	4207.5
919.527	4289.5
919.762	4139.5
919.997	4209.5
920.232	4134.5
920.466	4104.5
920.701	3978.5
920.935	3996.5
921.17	3993.5
921.405	3918.5
921.639	4025.5
921.873	3938.5
922.108	3968.5
922.342	3961.5
922.576	3873.5
922.811	3913.5
923.045	3890.5
923.279	3992.5
923.513	3801.5
923.747	3888.5
923.981	3847.5
924.215	3778.5
924.449	3733.5
924.683	3678.5
924.917	3748.5
925.151	3686.5
925.385	3750.5
925.618	3712.5
925.852	3724.5
926.086	3620.5
926.319	3651.5
926.553	3657.5
926.786	3651.5
927.02	3635.5
927.253	3665.5
927.486	3635.5
927.72	3559.5
927.953	3641.5
928.186	3595.5
928.42	3583.5
928.653	3539.5
928.886	3499.5
929.119	3549.5
929.352	3520.5
929.585	3512.5
929.818	3447.5
930.051	3441.5
930.284	3403.5
930.516	3350.5
930.749	3373.5
930.982	3366.5
931.215	3324.5
931.447	3274.5
931.68	3298.5
931.912	3304.5
932.145	3300.5
932.377	3337.5
932.61	3442.5
932.842	3234.5
933.074	3282.5
933.307	3231.5
933.539	3325.5
933.771	3319.5
934.003	3283.5
934.236	3342.5
934.468	3366.5
934.7	3265.5
934.932	3303.5
935.164	3257.5
935.395	3197.5
935.627	3278.5
935.859	3185.5
936.091	3164.5
936.323	3217.5
936.554	3196.5
936.786	3160.5
937.017	3103.5
937.249	3130.5
937.481	3039.5
937.712	3137.5
937.943	3082.5
938.175	3110.5
938.406	3083.5
938.637	3175.5
938.869	3035.5
939.1	3138.5
939.331	3070.5
939.562	3108.5
939.793	3062.5
940.024	3064.5
940.255	3085.5
940.486	2996.5
940.717	3029.5
940.948	3000.5
941.179	2914.5
941.409	2981.5
941.64	2998.5
941.871	2964.5
942.102	2973.5
942.332	2977.5
942.563	2998.5
942.793	2963.5
943.024	2941.5
943.254	2933.5
943.484	2999.5
943.715	3020.5
943.945	2966.5
944.175	2893.5
944.405	2870.5
944.636	2908.5
944.866	2949.5
945.096	2956.5
945.326	2872.5
945.556	2890.5
945.786	2947.5
946.016	2836.5
946.245	2802.5
946.475	2790.5
946.705	2796.5
946.935	2800.5
947.164	2812.5
947.394	2768.5
947.624	2750.5
947.853	2800.5
948.083	2753.5
948.312	2695.5
948.542	2676.5
948.771	2665.5
949	2684.5
949.23	2700.5
949.459	2705.5
949.688	2788.5
949.917	2698.5
950.146	2722.5
950.375	2763.5
950.604	2652.5
950.833	2729.5
951.062	2714.5
951.291	2673.5
951.52	2639.5
951.749	2653.5
951.978	2604.5
952.206	2623.5
952.435	2633.5
952.664	2675.5
952.892	2646.5
953.121	2543.5
953.349	2634.5
953.578	2593.5
953.806	2584.5
954.035	2515.5
954.263	2581.5
954.491	2490.5
954.719	2550.5
954.948	2517.5
955.176	2509.5
955.404	2415.5
955.632	2502.5
955.86	2500.5
956.088	2502.5
956.316	2489.5
956.544	2496.5
956.772	2430.5
956.999	2412.5
957.227	2499.5
957.455	2419.5
957.683	2432.5
957.91	2374.5
958.138	2341.5
958.365	2390.5
958.593	2354.5
958.82	2316.5
959.048	2400.5
959.275	2339.5
959.502	2334.5
959.73	2338.5
959.957	2321.5
960.184	2345.5
960.411	2297.5
960.638	2404.5
960.865	2513.5
961.092	2406.5
961.319	2209.5
961.546	2331.5
961.773	2329.5
962	2307.5
962.227	2318.5
962.454	2264.5
962.68	2275.5
962.907	2284.5
963.134	2232.5
963.36	2273.5
963.587	2280.5
963.813	2186.5
964.04	2270.5
964.266	2167.5
964.493	2250.5
964.719	2208.5
964.945	2222.5
965.171	2128.5
965.398	2172.5
965.624	2157.5
965.85	2118.5
966.076	2107.5
966.302	2157.5
966.528	2105.5
966.754	2131.5
966.98	2142.5
967.206	2115.5
967.431	2026.5
967.657	2129.5
967.883	2104.5
968.109	2084.5
968.334	2063.5
968.56	2069.5
968.785	2086.5
969.011	1995.5
969.236	2057.5
969.462	2022.5
969.687	2058.5
969.912	2073.5
970.138	2073.5
970.363	1976.5
970.588	2022.5
970.813	2024.5
971.038	1983.5
971.263	2022.5
971.488	2018.5
971.713	2030.5
971.938	2000.5
972.163	1918.5
972.388	1964.5
972.613	1897.5
972.838	1955.5
973.062	1935.5
973.287	1920.5
973.512	1863.5
973.736	1903.5
973.961	1904.5
974.185	1855.5
974.41	1902.5
974.634	1794.5
974.858	1830.5
975.083	1852.5
975.307	1861.5
975.531	1811.5
975.755	1769.5
975.98	1782.5
976.204	1718.5
976.428	1735.5
976.652	1748.5
976.876	1714.5
977.1	1733.5
977.324	1723.5
977.547	1758.5
977.771	1750.5
977.995	1752.5
978.219	1681.5
978.442	1777.5
978.666	1746.5
978.89	1721.5
979.113	1709.5
979.337	1717.5
979.56	1662.5
979.783	1760.5
980.007	1657.5
980.23	1702.5
980.453	1649.5
980.677	1687.5
980.9	1671.5
981.123	1576.5
981.346	1685.5
981.569	1659.5
981.792	1687.5
982.015	1651.5
982.238	1600.5
982.461	1643.5
982.684	1611.5
982.907	1558.5
983.129	1579.5
983.352	1627.5
983.575	1593.5
983.797	1590.5
984.02	1555.5
984.242	1600.5
984.465	1554.5
984.687	1599.5
984.91	1615.5
985.132	1621.5
985.354	1592.5
985.577	1554.5
985.799	1577.5
986.021	1501.5
986.243	1504.5
986.465	1530.5
986.687	1574.5
986.909	1608.5
987.131	1548.5
987.353	1492.5
987.575	1531.5
987.797	1511.5
988.019	1433.5
988.241	1517.5
988.462	1437.5
988.684	1522.5
988.906	1562.5
989.127	1569.5
989.349	1474.5
989.57	1474.5
989.792	1513.5
990.013	1509.5
990.234	1539.5
990.456	1552.5
990.677	1508.5
990.898	1469.5
991.119	1468.5
991.341	1528.5
991.562	1433.5
991.783	1475.5
992.004	1406.5
992.225	1393.5
992.446	1447.5
992.667	1367.5
992.887	1460.5
993.108	1348.5
993.329	1485.5
993.55	1439.5
993.77	1352.5
993.991	1380.5
994.212	1409.5
994.432	1401.5
994.653	1388.5
994.873	1382.5
995.093	1297.5
995.314	1343.5
995.534	1394.5
995.754	1414.5
995.975	1411.5
996.195	1306.5
996.415	1373.5
996.635	1341.5
996.855	1363.5
997.075	1317.5
997.295	1308.5
997.515	1271.5
997.735	1367.5
997.955	1334.5
998.174	1342.5
998.394	1305.5
998.614	1332.5
998.834	1300.5
999.053	1385.5
999.273	1344.5
999.492	1382.5
999.712	1317.5
999.931	1306.5
1000.151	1344.5
1000.37	1310.5
1000.589	1398.5
1000.809	1302.5
1001.028	1405.5
1001.247	1340.5
1001.466	1234.5
1001.685	1399.5
1001.904	1334.5
1002.123	1334.5
1002.342	1338.5
1002.561	1264.5
1002.78	1303.5
1002.999	1353.5
1003.218	1307.5
1003.436	1288.5
1003.655	1351.5
1003.874	1264.5
1004.092	1292.5
1004.311	1327.5
1004.53	1286.5
1004.748	1367.5
1004.966	1308.5
1005.185	1339.5
1005.403	1326.5
1005.622	1302.5
1005.84	1402.5
1006.058	1273.5
1006.276	1287.5
1006.494	1651.5
1006.712	1294.5
1006.931	1353.5
1007.149	1267.5
1007.367	1266.5
1007.584	1309.5
1007.802	1317.5
1008.02	1255.5
1008.238	1361.5
1008.456	1325.5
1008.673	1214.5
1008.891	1320.5
1009.109	1256.5
1009.326	1271.5
1009.544	1375.5
1009.761	1235.5
1009.979	1333.5
1010.196	1299.5
1010.413	1371.5
1010.631	1397.5
1010.848	1394.5
1011.065	1385.5
1011.282	1335.5
1011.5	1276.5
1011.717	1404.5
1011.934	1324.5
1012.151	1335.5
1012.368	1351.5
1012.585	1300.5
1012.801	1343.5
1013.018	1312.5
1013.235	1270.5
1013.452	1278.5
1013.669	1296.5
1013.885	1265.5
1014.102	1322.5
1014.318	1263.5
1014.535	1211.5
1014.751	1256.5
1014.968	1247.5
1015.184	1287.5
1015.401	1223.5
1015.617	1227.5
1015.833	1208.5
1016.049	1241.5
1016.266	1210.5
1016.482	1211.5
1016.698	1151.5
1016.914	1213.5
1017.13	1157.5
1017.346	1170.5
1017.562	1230.5
1017.778	1155.5
1017.993	1116.5
1018.209	1176.5
1018.425	1160.5
1018.641	1121.5
1018.856	1102.5
1019.072	1129.5
1019.288	1209.5
1019.503	1128.5
1019.719	1047.5
1019.934	1065.5
1020.149	1154.5
1020.365	1088.5
1020.58	1023.5
1020.795	1126.5
1021.011	1072.5
1021.226	1047.5
1021.441	1080.5
1021.656	1008.5
1021.871	962.5
1022.086	953.5
1022.301	950.5
1022.516	942.5
1022.731	1034.5
1022.946	909.5
1023.16	900.5
1023.375	881.5
1023.59	880.5
1023.804	860.5
1024.019	952.5
1024.234	841.5
1024.448	898.5
1024.663	799.5
1024.877	841.5
1025.092	846.5
1025.306	874.5
1025.52	763.5
1025.734	864.5
1025.949	797.5
1026.163	765.5
1026.377	722.5
1026.591	770.5
1026.805	693.5
1027.019	694.5
1027.233	686.5
1027.447	616.5
1027.661	728.5
1027.875	671.5
1028.088	667.5
1028.302	615.5
1028.516	617.5
1028.73	608.5
1028.943	611.5
1029.157	572.5
1029.37	533.5
1029.584	-1.5
1029.797	-3.5
1030.011	-1.5
1030.224	1.5
