Data from QEP037381__21__13-25-14-035.txt Node

Date: Fri Apr 28 13:25:14 EDT 2023
User: dcclab
Spectrometer: QEP03738
Trigger mode: 4
Integration Time (sec): 1.000000E1
Scans to average: 1
Electric dark correction enabled: true
Nonlinearity correction enabled: false
Boxcar width: 0
XAxis mode: Wavelengths
Number of Pixels in Spectrum: 1044
>>>>>Begin Spectral Data<<<<<
784.041	16.5
784.3	-1.5
784.558	-3.5
784.817	-4.5
785.075	69351.5
785.334	13502.5
785.592	6957.5
785.851	4945.5
786.109	3676.5
786.368	2941.5
786.626	2373.5
786.884	1969.5
787.143	1692.5
787.401	1385.5
787.659	1260.5
787.917	1060.5
788.175	1006.5
788.433	897.5
788.691	790.5
788.949	738.5
789.207	716.5
789.465	609.5
789.723	608.5
789.98	537.5
790.238	586.5
790.496	556.5
790.753	523.5
791.011	567.5
791.268	509.5
791.526	477.5
791.783	520.5
792.041	486.5
792.298	407.5
792.556	483.5
792.813	457.5
793.07	432.5
793.327	439.5
793.584	485.5
793.841	435.5
794.099	435.5
794.356	500.5
794.613	407.5
794.869	440.5
795.126	404.5
795.383	386.5
795.64	406.5
795.897	371.5
796.153	414.5
796.41	403.5
796.667	388.5
796.923	392.5
797.18	386.5
797.436	434.5
797.693	385.5
797.949	454.5
798.206	467.5
798.462	372.5
798.718	434.5
798.974	421.5
799.231	453.5
799.487	442.5
799.743	439.5
799.999	453.5
800.255	455.5
800.511	428.5
800.767	486.5
801.023	467.5
801.279	485.5
801.534	512.5
801.79	547.5
802.046	550.5
802.302	679.5
802.557	760.5
802.813	918.5
803.068	1122.5
803.324	1521.5
803.579	2063.5
803.835	2846.5
804.09	3919.5
804.345	5015.5
804.601	6092.5
804.856	7104.5
805.111	8002.5
805.366	8583.5
805.621	8949.5
805.876	9205.5
806.131	9350.5
806.386	9462.5
806.641	9635.5
806.896	9870.5
807.151	10013.5
807.406	10135.5
807.661	10328.5
807.915	10554.5
808.17	10640.5
808.425	10807.5
808.679	10883.5
808.934	11137.5
809.188	11217.5
809.443	11329.5
809.697	11448.5
809.951	11513.5
810.206	11592.5
810.46	11781.5
810.714	11830.5
810.968	11983.5
811.223	12020.5
811.477	12085.5
811.731	12240.5
811.985	12243.5
812.239	12295.5
812.493	12351.5
812.747	12457.5
813	12497.5
813.254	12539.5
813.508	12577.5
813.762	12579.5
814.015	12722.5
814.269	12775.5
814.522	12981.5
814.776	13111.5
815.03	13204.5
815.283	13437.5
815.536	13608.5
815.79	13756.5
816.043	14008.5
816.296	14224.5
816.55	14331.5
816.803	14501.5
817.056	14730.5
817.309	14893.5
817.562	14948.5
817.815	15167.5
818.068	15330.5
818.321	15463.5
818.574	15665.5
818.827	16005.5
819.079	16114.5
819.332	16573.5
819.585	16716.5
819.838	16900.5
820.09	16913.5
820.343	17144.5
820.595	17210.5
820.848	17269.5
821.1	17450.5
821.353	17315.5
821.605	17447.5
821.857	17383.5
822.11	17271.5
822.362	17267.5
822.614	17178.5
822.866	17253.5
823.118	17134.5
823.37	17388.5
823.622	17365.5
823.874	17361.5
824.126	17472.5
824.378	17504.5
824.63	17544.5
824.882	17636.5
825.134	17444.5
825.385	17555.5
825.637	17568.5
825.888	17492.5
826.14	17407.5
826.392	17327.5
826.643	17266.5
826.895	17213.5
827.146	17142.5
827.397	17105.5
827.649	17149.5
827.9	17133.5
828.151	17154.5
828.402	17088.5
828.653	17255.5
828.905	17153.5
829.156	17258.5
829.407	17205.5
829.658	17137.5
829.909	17165.5
830.159	17119.5
830.41	16973.5
830.661	16930.5
830.912	16856.5
831.162	16746.5
831.413	16730.5
831.664	16774.5
831.914	16702.5
832.165	16644.5
832.415	16748.5
832.666	16736.5
832.916	16719.5
833.167	16675.5
833.417	16646.5
833.667	16617.5
833.917	16455.5
834.168	16480.5
834.418	16498.5
834.668	16341.5
834.918	16312.5
835.168	16317.5
835.418	16158.5
835.668	16183.5
835.918	16164.5
836.167	16140.5
836.417	15988.5
836.667	16016.5
836.917	15967.5
837.166	15946.5
837.416	15942.5
837.666	15827.5
837.915	15813.5
838.165	15722.5
838.414	15661.5
838.663	15609.5
838.913	15669.5
839.162	15575.5
839.411	15582.5
839.661	15528.5
839.91	15529.5
840.159	15447.5
840.408	15426.5
840.657	15462.5
840.906	15402.5
841.155	15484.5
841.404	15372.5
841.653	15405.5
841.902	15423.5
842.15	15420.5
842.399	15430.5
842.648	15410.5
842.897	15320.5
843.145	15221.5
843.394	15036.5
843.642	15097.5
843.891	15005.5
844.139	14960.5
844.388	14779.5
844.636	14698.5
844.884	14727.5
845.133	14780.5
845.381	14686.5
845.629	14695.5
845.877	14668.5
846.125	14725.5
846.373	14637.5
846.621	14511.5
846.869	14595.5
847.117	14445.5
847.365	14343.5
847.613	14221.5
847.861	14277.5
848.108	14335.5
848.356	14214.5
848.604	14143.5
848.851	14150.5
849.099	14157.5
849.346	14201.5
849.594	14274.5
849.841	14299.5
850.089	14341.5
850.336	14331.5
850.583	14264.5
850.831	14254.5
851.078	14218.5
851.325	14096.5
851.572	14111.5
851.819	14001.5
852.066	13694.5
852.313	13486.5
852.56	13468.5
852.807	13375.5
853.054	13305.5
853.301	13349.5
853.548	13344.5
853.794	13352.5
854.041	13469.5
854.288	13507.5
854.534	13733.5
854.781	13577.5
855.028	13427.5
855.274	13520.5
855.52	13442.5
855.767	13231.5
856.013	13247.5
856.26	13531.5
856.506	13166.5
856.752	13223.5
856.998	13054.5
857.244	13103.5
857.49	13136.5
857.736	13262.5
857.982	13239.5
858.228	13321.5
858.474	13094.5
858.72	13075.5
858.966	12998.5
859.212	12820.5
859.458	12659.5
859.703	12514.5
859.949	12442.5
860.195	12389.5
860.44	12349.5
860.686	12155.5
860.931	12190.5
861.177	12095.5
861.422	12089.5
861.667	12088.5
861.913	12207.5
862.158	12084.5
862.403	12214.5
862.648	12226.5
862.893	12229.5
863.138	12113.5
863.384	12042.5
863.629	12092.5
863.873	12056.5
864.118	11974.5
864.363	11852.5
864.608	11921.5
864.853	11830.5
865.098	11876.5
865.342	11753.5
865.587	11682.5
865.832	11667.5
866.076	11673.5
866.321	11602.5
866.565	11603.5
866.81	11415.5
867.054	11420.5
867.298	11421.5
867.543	11433.5
867.787	11451.5
868.031	11359.5
868.275	11310.5
868.519	11384.5
868.764	11280.5
869.008	11317.5
869.252	11327.5
869.496	11175.5
869.739	11223.5
869.983	11258.5
870.227	11207.5
870.471	11174.5
870.715	11181.5
870.958	11200.5
871.202	11233.5
871.446	11225.5
871.689	11182.5
871.933	11227.5
872.176	11177.5
872.42	11146.5
872.663	11150.5
872.906	11051.5
873.15	11007.5
873.393	10834.5
873.636	10819.5
873.879	10763.5
874.122	10746.5
874.366	10615.5
874.609	10568.5
874.852	10450.5
875.095	10399.5
875.337	10396.5
875.58	10274.5
875.823	10299.5
876.066	10373.5
876.309	10334.5
876.551	10198.5
876.794	10093.5
877.037	10181.5
877.279	10070.5
877.522	10107.5
877.764	10179.5
878.007	10057.5
878.249	10164.5
878.491	10048.5
878.734	10135.5
878.976	10100.5
879.218	9927.5
879.46	9986.5
879.702	9825.5
879.945	9821.5
880.187	9662.5
880.429	9629.5
880.671	9557.5
880.912	9563.5
881.154	9533.5
881.396	9451.5
881.638	9514.5
881.88	9532.5
882.121	9470.5
882.363	9412.5
882.605	9469.5
882.846	9342.5
883.088	9410.5
883.329	9345.5
883.571	9284.5
883.812	9294.5
884.053	9382.5
884.295	9389.5
884.536	9601.5
884.777	9463.5
885.018	9462.5
885.259	9429.5
885.5	9318.5
885.742	9456.5
885.982	9259.5
886.223	9211.5
886.464	9229.5
886.705	9087.5
886.946	9105.5
887.187	8944.5
887.428	9039.5
887.668	8842.5
887.909	8734.5
888.15	8603.5
888.39	8676.5
888.631	8651.5
888.871	8578.5
889.111	8462.5
889.352	8406.5
889.592	8343.5
889.833	8295.5
890.073	8277.5
890.313	8228.5
890.553	8084.5
890.793	8117.5
891.033	8046.5
891.273	7995.5
891.513	8020.5
891.753	7982.5
891.993	7986.5
892.233	7973.5
892.473	8038.5
892.713	8002.5
892.952	7927.5
893.192	7996.5
893.432	7941.5
893.671	7993.5
893.911	7853.5
894.15	7838.5
894.39	7691.5
894.629	7743.5
894.869	7724.5
895.108	7618.5
895.347	7592.5
895.587	7659.5
895.826	7524.5
896.065	7479.5
896.304	7568.5
896.543	7490.5
896.782	7420.5
897.021	7475.5
897.26	7490.5
897.499	7494.5
897.738	7446.5
897.977	7338.5
898.216	7298.5
898.454	7277.5
898.693	7197.5
898.932	7196.5
899.17	7121.5
899.409	7158.5
899.647	7046.5
899.886	7119.5
900.124	7097.5
900.363	7028.5
900.601	7049.5
900.839	7048.5
901.078	7108.5
901.316	7121.5
901.554	7081.5
901.792	7160.5
902.03	7059.5
902.268	7045.5
902.506	7078.5
902.744	6992.5
902.982	7001.5
903.22	6839.5
903.458	6773.5
903.695	6803.5
903.933	6739.5
904.171	6559.5
904.409	6486.5
904.646	6488.5
904.884	6370.5
905.121	6370.5
905.359	6274.5
905.596	6225.5
905.833	6125.5
906.071	6081.5
906.308	6167.5
906.545	6140.5
906.783	6061.5
907.02	6096.5
907.257	6001.5
907.494	6072.5
907.731	6085.5
907.968	6033.5
908.205	5960.5
908.442	5920.5
908.679	5933.5
908.915	5882.5
909.152	5803.5
909.389	5715.5
909.626	5743.5
909.862	5673.5
910.099	5601.5
910.335	5655.5
910.572	5549.5
910.808	5659.5
911.045	5571.5
911.281	5510.5
911.518	5550.5
911.754	5472.5
911.99	5484.5
912.226	5424.5
912.463	5392.5
912.699	5326.5
912.935	5307.5
913.171	5320.5
913.407	5230.5
913.643	5220.5
913.879	5204.5
914.114	5045.5
914.35	5015.5
914.586	5024.5
914.822	4947.5
915.057	4992.5
915.293	4867.5
915.529	4857.5
915.764	4934.5
916	4918.5
916.235	4825.5
916.471	4863.5
916.706	4841.5
916.941	4846.5
917.177	4790.5
917.412	4863.5
917.647	4828.5
917.882	4754.5
918.117	4855.5
918.352	4803.5
918.588	4818.5
918.823	4706.5
919.057	4656.5
919.292	4562.5
919.527	4668.5
919.762	4481.5
919.997	4555.5
920.232	4475.5
920.466	4505.5
920.701	4332.5
920.935	4366.5
921.17	4281.5
921.405	4303.5
921.639	4269.5
921.873	4254.5
922.108	4250.5
922.342	4295.5
922.576	4204.5
922.811	4206.5
923.045	4240.5
923.279	4244.5
923.513	4123.5
923.747	4176.5
923.981	4171.5
924.215	4082.5
924.449	4018.5
924.683	3998.5
924.917	4003.5
925.151	3987.5
925.385	4043.5
925.618	3964.5
925.852	3991.5
926.086	3905.5
926.319	3944.5
926.553	3946.5
926.786	3946.5
927.02	3940.5
927.253	3954.5
927.486	3988.5
927.72	3895.5
927.953	3909.5
928.186	3870.5
928.42	3896.5
928.653	3869.5
928.886	3788.5
929.119	3860.5
929.352	3789.5
929.585	3819.5
929.818	3749.5
930.051	3756.5
930.284	3741.5
930.516	3647.5
930.749	3608.5
930.982	3631.5
931.215	3610.5
931.447	3555.5
931.68	3578.5
931.912	3523.5
932.145	3562.5
932.377	3580.5
932.61	3650.5
932.842	3535.5
933.074	3609.5
933.307	3521.5
933.539	3595.5
933.771	3558.5
934.003	3558.5
934.236	3601.5
934.468	3626.5
934.7	3509.5
934.932	3581.5
935.164	3498.5
935.395	3468.5
935.627	3471.5
935.859	3470.5
936.091	3396.5
936.323	3463.5
936.554	3471.5
936.786	3407.5
937.017	3337.5
937.249	3382.5
937.481	3323.5
937.712	3418.5
937.943	3335.5
938.175	3367.5
938.406	3316.5
938.637	3387.5
938.869	3302.5
939.1	3360.5
939.331	3319.5
939.562	3353.5
939.793	3279.5
940.024	3321.5
940.255	3316.5
940.486	3267.5
940.717	3262.5
940.948	3198.5
941.179	3180.5
941.409	3214.5
941.64	3180.5
941.871	3249.5
942.102	3165.5
942.332	3172.5
942.563	3248.5
942.793	3195.5
943.024	3174.5
943.254	3189.5
943.484	3221.5
943.715	3242.5
943.945	3197.5
944.175	3176.5
944.405	3130.5
944.636	3133.5
944.866	3203.5
945.096	3130.5
945.326	3069.5
945.556	3114.5
945.786	3135.5
946.016	3075.5
946.245	3031.5
946.475	3015.5
946.705	2997.5
946.935	3042.5
947.164	3028.5
947.394	2972.5
947.624	2988.5
947.853	2982.5
948.083	2957.5
948.312	2943.5
948.542	2914.5
948.771	2882.5
949	2897.5
949.23	2853.5
949.459	2882.5
949.688	2965.5
949.917	2901.5
950.146	2942.5
950.375	2939.5
950.604	2839.5
950.833	2929.5
951.062	2929.5
951.291	2854.5
951.52	2867.5
951.749	2874.5
951.978	2813.5
952.206	2793.5
952.435	2847.5
952.664	2815.5
952.892	2889.5
953.121	2783.5
953.349	2830.5
953.578	2845.5
953.806	2796.5
954.035	2734.5
954.263	2769.5
954.491	2689.5
954.719	2751.5
954.948	2702.5
955.176	2684.5
955.404	2601.5
955.632	2698.5
955.86	2666.5
956.088	2651.5
956.316	2699.5
956.544	2669.5
956.772	2585.5
956.999	2588.5
957.227	2665.5
957.455	2567.5
957.683	2588.5
957.91	2525.5
958.138	2565.5
958.365	2541.5
958.593	2554.5
958.82	2505.5
959.048	2553.5
959.275	2509.5
959.502	2493.5
959.73	2461.5
959.957	2498.5
960.184	2526.5
960.411	2448.5
960.638	2548.5
960.865	2498.5
961.092	2489.5
961.319	2425.5
961.546	2495.5
961.773	2517.5
962	2466.5
962.227	2492.5
962.454	2500.5
962.68	2413.5
962.907	2466.5
963.134	2410.5
963.36	2429.5
963.587	2426.5
963.813	2394.5
964.04	2393.5
964.266	2344.5
964.493	2400.5
964.719	2400.5
964.945	2385.5
965.171	2250.5
965.398	2340.5
965.624	2319.5
965.85	2261.5
966.076	2280.5
966.302	2310.5
966.528	2236.5
966.754	2290.5
966.98	2278.5
967.206	2273.5
967.431	2207.5
967.657	2280.5
967.883	2292.5
968.109	2250.5
968.334	2200.5
968.56	2203.5
968.785	2195.5
969.011	2156.5
969.236	2207.5
969.462	2143.5
969.687	2161.5
969.912	2235.5
970.138	2209.5
970.363	2123.5
970.588	2176.5
970.813	2137.5
971.038	2145.5
971.263	2199.5
971.488	2137.5
971.713	2201.5
971.938	2121.5
972.163	2057.5
972.388	2078.5
972.613	2085.5
972.838	2075.5
973.062	2087.5
973.287	2085.5
973.512	1981.5
973.736	2045.5
973.961	2026.5
974.185	1972.5
974.41	2029.5
974.634	1967.5
974.858	1950.5
975.083	1995.5
975.307	1978.5
975.531	1949.5
975.755	1864.5
975.98	1912.5
976.204	1837.5
976.428	1873.5
976.652	1864.5
976.876	1851.5
977.1	1861.5
977.324	1842.5
977.547	1879.5
977.771	1914.5
977.995	1863.5
978.219	1822.5
978.442	1893.5
978.666	1845.5
978.89	1854.5
979.113	1810.5
979.337	1848.5
979.56	1788.5
979.783	1859.5
980.007	1746.5
980.23	1829.5
980.453	1777.5
980.677	1836.5
980.9	1807.5
981.123	1693.5
981.346	1812.5
981.569	1794.5
981.792	1783.5
982.015	1755.5
982.238	1721.5
982.461	1755.5
982.684	1687.5
982.907	1684.5
983.129	1665.5
983.352	1717.5
983.575	1702.5
983.797	1698.5
984.02	1653.5
984.242	1666.5
984.465	1652.5
984.687	1681.5
984.91	1721.5
985.132	1689.5
985.354	1693.5
985.577	1666.5
985.799	1644.5
986.021	1574.5
986.243	1617.5
986.465	1615.5
986.687	1663.5
986.909	1698.5
987.131	1638.5
987.353	1590.5
987.575	1632.5
987.797	1597.5
988.019	1546.5
988.241	1597.5
988.462	1571.5
988.684	1590.5
988.906	1630.5
989.127	1672.5
989.349	1530.5
989.57	1578.5
989.792	1621.5
990.013	1611.5
990.234	1635.5
990.456	1631.5
990.677	1591.5
990.898	1536.5
991.119	1550.5
991.341	1574.5
991.562	1503.5
991.783	1566.5
992.004	1506.5
992.225	1463.5
992.446	1518.5
992.667	1434.5
992.887	1524.5
993.108	1448.5
993.329	1565.5
993.55	1471.5
993.77	1449.5
993.991	1433.5
994.212	1472.5
994.432	1469.5
994.653	1461.5
994.873	1492.5
995.093	1372.5
995.314	1402.5
995.534	1464.5
995.754	1469.5
995.975	1505.5
996.195	1425.5
996.415	1434.5
996.635	1433.5
996.855	1420.5
997.075	1410.5
997.295	1408.5
997.515	1383.5
997.735	1427.5
997.955	1413.5
998.174	1401.5
998.394	1376.5
998.614	1438.5
998.834	1365.5
999.053	1433.5
999.273	1419.5
999.492	1475.5
999.712	1407.5
999.931	1373.5
1000.151	1416.5
1000.37	1433.5
1000.589	1433.5
1000.809	1361.5
1001.028	1491.5
1001.247	1408.5
1001.466	1291.5
1001.685	1455.5
1001.904	1415.5
1002.123	1363.5
1002.342	1387.5
1002.561	1338.5
1002.78	1374.5
1002.999	1429.5
1003.218	1358.5
1003.436	1342.5
1003.655	1390.5
1003.874	1338.5
1004.092	1372.5
1004.311	1404.5
1004.53	1348.5
1004.748	1409.5
1004.966	1345.5
1005.185	1402.5
1005.403	1387.5
1005.622	1384.5
1005.84	1457.5
1006.058	1325.5
1006.276	1371.5
1006.494	1737.5
1006.712	1355.5
1006.931	1426.5
1007.149	1325.5
1007.367	1349.5
1007.584	1359.5
1007.802	1414.5
1008.02	1325.5
1008.238	1421.5
1008.456	1417.5
1008.673	1264.5
1008.891	1375.5
1009.109	1327.5
1009.326	1363.5
1009.544	1414.5
1009.761	1325.5
1009.979	1419.5
1010.196	1382.5
1010.413	1478.5
1010.631	1469.5
1010.848	1520.5
1011.065	1483.5
1011.282	1409.5
1011.5	1367.5
1011.717	1474.5
1011.934	1421.5
1012.151	1470.5
1012.368	1452.5
1012.585	1382.5
1012.801	1441.5
1013.018	1421.5
1013.235	1366.5
1013.452	1388.5
1013.669	1383.5
1013.885	1357.5
1014.102	1392.5
1014.318	1359.5
1014.535	1340.5
1014.751	1380.5
1014.968	1356.5
1015.184	1381.5
1015.401	1334.5
1015.617	1354.5
1015.833	1278.5
1016.049	1308.5
1016.266	1278.5
1016.482	1310.5
1016.698	1231.5
1016.914	1290.5
1017.13	1262.5
1017.346	1255.5
1017.562	1303.5
1017.778	1231.5
1017.993	1200.5
1018.209	1273.5
1018.425	1264.5
1018.641	1242.5
1018.856	1189.5
1019.072	1230.5
1019.288	1275.5
1019.503	1218.5
1019.719	1128.5
1019.934	1170.5
1020.149	1234.5
1020.365	1189.5
1020.58	1129.5
1020.795	1187.5
1021.011	1133.5
1021.226	1117.5
1021.441	1142.5
1021.656	1087.5
1021.871	1015.5
1022.086	1043.5
1022.301	1040.5
1022.516	1004.5
1022.731	1094.5
1022.946	996.5
1023.16	971.5
1023.375	961.5
1023.59	936.5
1023.804	924.5
1024.019	1033.5
1024.234	875.5
1024.448	933.5
1024.663	844.5
1024.877	880.5
1025.092	906.5
1025.306	916.5
1025.52	834.5
1025.734	925.5
1025.949	834.5
1026.163	809.5
1026.377	761.5
1026.591	800.5
1026.805	734.5
1027.019	747.5
1027.233	707.5
1027.447	665.5
1027.661	751.5
1027.875	719.5
1028.088	707.5
1028.302	657.5
1028.516	629.5
1028.73	650.5
1028.943	635.5
1029.157	602.5
1029.37	568.5
1029.584	-0.5
1029.797	-0.5
1030.011	-1.5
1030.224	-4.5
