Data from QEP037381__27__13-26-14-035.txt Node

Date: Fri Apr 28 13:26:14 EDT 2023
User: dcclab
Spectrometer: QEP03738
Trigger mode: 4
Integration Time (sec): 1.000000E1
Scans to average: 1
Electric dark correction enabled: true
Nonlinearity correction enabled: false
Boxcar width: 0
XAxis mode: Wavelengths
Number of Pixels in Spectrum: 1044
>>>>>Begin Spectral Data<<<<<
784.041	13.75
784.3	-3.25
784.558	-4.25
784.817	-3.25
785.075	68838.75
785.334	13620.75
785.592	7085.75
785.851	4954.75
786.109	3798.75
786.368	2947.75
786.626	2433.75
786.884	2035.75
787.143	1683.75
787.401	1404.75
787.659	1280.75
787.917	1103.75
788.175	997.75
788.433	865.75
788.691	791.75
788.949	731.75
789.207	710.75
789.465	617.75
789.723	590.75
789.98	540.75
790.238	565.75
790.496	552.75
790.753	539.75
791.011	578.75
791.268	504.75
791.526	485.75
791.783	529.75
792.041	483.75
792.298	408.75
792.556	483.75
792.813	441.75
793.07	453.75
793.327	436.75
793.584	508.75
793.841	428.75
794.099	444.75
794.356	498.75
794.613	402.75
794.869	441.75
795.126	392.75
795.383	391.75
795.64	406.75
795.897	356.75
796.153	417.75
796.41	390.75
796.667	388.75
796.923	395.75
797.18	389.75
797.436	429.75
797.693	371.75
797.949	436.75
798.206	446.75
798.462	366.75
798.718	430.75
798.974	415.75
799.231	444.75
799.487	432.75
799.743	425.75
799.999	465.75
800.255	459.75
800.511	435.75
800.767	493.75
801.023	452.75
801.279	495.75
801.534	525.75
801.79	561.75
802.046	529.75
802.302	668.75
802.557	725.75
802.813	897.75
803.068	1081.75
803.324	1484.75
803.579	1985.75
803.835	2761.75
804.09	3785.75
804.345	4847.75
804.601	6012.75
804.856	7039.75
805.111	7792.75
805.366	8340.75
805.621	8677.75
805.876	8973.75
806.131	9118.75
806.386	9269.75
806.641	9338.75
806.896	9518.75
807.151	9825.75
807.406	9898.75
807.661	10054.75
807.915	10242.75
808.17	10310.75
808.425	10562.75
808.679	10557.75
808.934	10867.75
809.188	10888.75
809.443	10980.75
809.697	11137.75
809.951	11194.75
810.206	11297.75
810.46	11402.75
810.714	11548.75
810.968	11571.75
811.223	11651.75
811.477	11798.75
811.731	11869.75
811.985	11829.75
812.239	11883.75
812.493	12050.75
812.747	12170.75
813	12112.75
813.254	12218.75
813.508	12252.75
813.762	12373.75
814.015	12325.75
814.269	12451.75
814.522	12662.75
814.776	12706.75
815.03	12887.75
815.283	13022.75
815.536	13258.75
815.79	13431.75
816.043	13627.75
816.296	13716.75
816.55	13939.75
816.803	14206.75
817.056	14360.75
817.309	14396.75
817.562	14609.75
817.815	14818.75
818.068	14879.75
818.321	15098.75
818.574	15291.75
818.827	15568.75
819.079	15746.75
819.332	16052.75
819.585	16210.75
819.838	16447.75
820.09	16518.75
820.343	16773.75
820.595	16739.75
820.848	16926.75
821.1	16968.75
821.353	16846.75
821.605	16943.75
821.857	16927.75
822.11	16732.75
822.362	16826.75
822.614	16885.75
822.866	16789.75
823.118	16710.75
823.37	16930.75
823.622	16856.75
823.874	16970.75
824.126	17163.75
824.378	17082.75
824.63	17184.75
824.882	17228.75
825.134	17125.75
825.385	17099.75
825.637	17049.75
825.888	17040.75
826.14	16920.75
826.392	16859.75
826.643	16790.75
826.895	16732.75
827.146	16661.75
827.397	16678.75
827.649	16711.75
827.9	16576.75
828.151	16555.75
828.402	16488.75
828.653	16742.75
828.905	16642.75
829.156	16863.75
829.407	16765.75
829.658	16682.75
829.909	16669.75
830.159	16679.75
830.41	16503.75
830.661	16407.75
830.912	16279.75
831.162	16292.75
831.413	16305.75
831.664	16289.75
831.914	16239.75
832.165	16338.75
832.415	16222.75
832.666	16190.75
832.916	16261.75
833.167	16101.75
833.417	16254.75
833.667	16133.75
833.917	15933.75
834.168	16110.75
834.418	15999.75
834.668	15840.75
834.918	15812.75
835.168	15768.75
835.418	15613.75
835.668	15684.75
835.918	15648.75
836.167	15708.75
836.417	15494.75
836.667	15584.75
836.917	15535.75
837.166	15420.75
837.416	15441.75
837.666	15369.75
837.915	15346.75
838.165	15374.75
838.414	15201.75
838.663	15196.75
838.913	15182.75
839.162	15061.75
839.411	15148.75
839.661	15003.75
839.91	14996.75
840.159	14979.75
840.408	15009.75
840.657	14970.75
840.906	14981.75
841.155	14950.75
841.404	14942.75
841.653	14935.75
841.902	14918.75
842.15	14912.75
842.399	14932.75
842.648	14922.75
842.897	14904.75
843.145	14721.75
843.394	14702.75
843.642	14572.75
843.891	14499.75
844.139	14446.75
844.388	14355.75
844.636	14277.75
844.884	14291.75
845.133	14233.75
845.381	14179.75
845.629	14259.75
845.877	14233.75
846.125	14110.75
846.373	14093.75
846.621	14029.75
846.869	14008.75
847.117	13968.75
847.365	13921.75
847.613	13860.75
847.861	13852.75
848.108	13794.75
848.356	13818.75
848.604	13722.75
848.851	13732.75
849.099	13809.75
849.346	13767.75
849.594	13831.75
849.841	13875.75
850.089	13871.75
850.336	13842.75
850.583	13837.75
850.831	13747.75
851.078	13733.75
851.325	13697.75
851.572	13705.75
851.819	13578.75
852.066	13312.75
852.313	13057.75
852.56	12927.75
852.807	13010.75
853.054	12977.75
853.301	12838.75
853.548	12853.75
853.794	13100.75
854.041	12984.75
854.288	13040.75
854.534	13144.75
854.781	13110.75
855.028	13116.75
855.274	13047.75
855.52	12899.75
855.767	12885.75
856.013	12802.75
856.26	13026.75
856.506	12685.75
856.752	12712.75
856.998	12737.75
857.244	12734.75
857.49	12795.75
857.736	12787.75
857.982	12785.75
858.228	12775.75
858.474	12578.75
858.72	12551.75
858.966	12516.75
859.212	12354.75
859.458	12220.75
859.703	12131.75
859.949	11966.75
860.195	11935.75
860.44	11853.75
860.686	11750.75
860.931	11798.75
861.177	11647.75
861.422	11779.75
861.667	11619.75
861.913	11728.75
862.158	11734.75
862.403	11831.75
862.648	11812.75
862.893	11823.75
863.138	11787.75
863.384	11680.75
863.629	11723.75
863.873	11674.75
864.118	11613.75
864.363	11480.75
864.608	11477.75
864.853	11503.75
865.098	11290.75
865.342	11319.75
865.587	11211.75
865.832	11280.75
866.076	11296.75
866.321	11198.75
866.565	11205.75
866.81	11073.75
867.054	11036.75
867.298	11039.75
867.543	10999.75
867.787	11096.75
868.031	11034.75
868.275	10948.75
868.519	10990.75
868.764	11016.75
869.008	10925.75
869.252	10904.75
869.496	10786.75
869.739	10783.75
869.983	10882.75
870.227	10788.75
870.471	10791.75
870.715	10807.75
870.958	10798.75
871.202	10745.75
871.446	10816.75
871.689	10726.75
871.933	10754.75
872.176	10787.75
872.42	10750.75
872.663	10705.75
872.906	10682.75
873.15	10559.75
873.393	10424.75
873.636	10432.75
873.879	10344.75
874.122	10308.75
874.366	10097.75
874.609	10210.75
874.852	10093.75
875.095	10071.75
875.337	9937.75
875.58	9996.75
875.823	9956.75
876.066	9938.75
876.309	9926.75
876.551	9840.75
876.794	9795.75
877.037	9788.75
877.279	9777.75
877.522	9752.75
877.764	9813.75
878.007	9795.75
878.249	9781.75
878.491	9707.75
878.734	9742.75
878.976	9675.75
879.218	9576.75
879.46	9619.75
879.702	9471.75
879.945	9385.75
880.187	9242.75
880.429	9266.75
880.671	9270.75
880.912	9205.75
881.154	9185.75
881.396	9084.75
881.638	9135.75
881.88	9207.75
882.121	9048.75
882.363	9086.75
882.605	9129.75
882.846	9016.75
883.088	9029.75
883.329	8883.75
883.571	8912.75
883.812	8911.75
884.053	8952.75
884.295	9025.75
884.536	9130.75
884.777	9067.75
885.018	9044.75
885.259	9023.75
885.5	8946.75
885.742	9115.75
885.982	8924.75
886.223	8886.75
886.464	8863.75
886.705	8760.75
886.946	8717.75
887.187	8612.75
887.428	8591.75
887.668	8485.75
887.909	8440.75
888.15	8504.75
888.39	8423.75
888.631	8332.75
888.871	8215.75
889.111	8111.75
889.352	8099.75
889.592	8024.75
889.833	7957.75
890.073	7848.75
890.313	7909.75
890.553	7697.75
890.793	7789.75
891.033	7726.75
891.273	7758.75
891.513	7658.75
891.753	7701.75
891.993	7649.75
892.233	7681.75
892.473	7803.75
892.713	7674.75
892.952	7671.75
893.192	7701.75
893.432	7635.75
893.671	7677.75
893.911	7610.75
894.15	7611.75
894.39	7458.75
894.629	7448.75
894.869	7445.75
895.108	7346.75
895.347	7281.75
895.587	7347.75
895.826	7288.75
896.065	7206.75
896.304	7253.75
896.543	7323.75
896.782	7161.75
897.021	7154.75
897.26	7174.75
897.499	7180.75
897.738	7178.75
897.977	7036.75
898.216	6989.75
898.454	7003.75
898.693	6882.75
898.932	6890.75
899.17	6850.75
899.409	6802.75
899.647	6806.75
899.886	6809.75
900.124	6844.75
900.363	6784.75
900.601	6767.75
900.839	6838.75
901.078	6797.75
901.316	6827.75
901.554	6817.75
901.792	6835.75
902.03	6750.75
902.268	6754.75
902.506	6788.75
902.744	6745.75
902.982	6742.75
903.22	6607.75
903.458	6560.75
903.695	6520.75
903.933	6440.75
904.171	6291.75
904.409	6174.75
904.646	6227.75
904.884	6107.75
905.121	6078.75
905.359	6006.75
905.596	6004.75
905.833	5928.75
906.071	5945.75
906.308	5897.75
906.545	5903.75
906.783	5824.75
907.02	5836.75
907.257	5804.75
907.494	5845.75
907.731	5797.75
907.968	5804.75
908.205	5712.75
908.442	5669.75
908.679	5727.75
908.915	5645.75
909.152	5625.75
909.389	5524.75
909.626	5479.75
909.862	5400.75
910.099	5478.75
910.335	5533.75
910.572	5399.75
910.808	5331.75
911.045	5376.75
911.281	5282.75
911.518	5416.75
911.754	5288.75
911.99	5288.75
912.226	5233.75
912.463	5160.75
912.699	5166.75
912.935	5121.75
913.171	5006.75
913.407	5028.75
913.643	5064.75
913.879	4957.75
914.114	4907.75
914.35	4853.75
914.586	4814.75
914.822	4829.75
915.057	4830.75
915.293	4702.75
915.529	4691.75
915.764	4728.75
916	4724.75
916.235	4689.75
916.471	4685.75
916.706	4585.75
916.941	4653.75
917.177	4606.75
917.412	4660.75
917.647	4637.75
917.882	4604.75
918.117	4656.75
918.352	4600.75
918.588	4649.75
918.823	4538.75
919.057	4498.75
919.292	4382.75
919.527	4462.75
919.762	4352.75
919.997	4372.75
920.232	4293.75
920.466	4310.75
920.701	4133.75
920.935	4162.75
921.17	4151.75
921.405	4108.75
921.639	4165.75
921.873	4104.75
922.108	4129.75
922.342	4094.75
922.576	4051.75
922.811	4034.75
923.045	4073.75
923.279	4086.75
923.513	3955.75
923.747	4013.75
923.981	3972.75
924.215	3893.75
924.449	3914.75
924.683	3851.75
924.917	3852.75
925.151	3844.75
925.385	3884.75
925.618	3827.75
925.852	3836.75
926.086	3753.75
926.319	3814.75
926.553	3819.75
926.786	3787.75
927.02	3782.75
927.253	3780.75
927.486	3845.75
927.72	3690.75
927.953	3750.75
928.186	3701.75
928.42	3732.75
928.653	3685.75
928.886	3617.75
929.119	3705.75
929.352	3672.75
929.585	3626.75
929.818	3560.75
930.051	3571.75
930.284	3539.75
930.516	3455.75
930.749	3448.75
930.982	3498.75
931.215	3459.75
931.447	3392.75
931.68	3433.75
931.912	3430.75
932.145	3423.75
932.377	3442.75
932.61	3554.75
932.842	3375.75
933.074	3410.75
933.307	3402.75
933.539	3488.75
933.771	3466.75
934.003	3409.75
934.236	3447.75
934.468	3461.75
934.7	3413.75
934.932	3398.75
935.164	3339.75
935.395	3343.75
935.627	3331.75
935.859	3370.75
936.091	3268.75
936.323	3311.75
936.554	3337.75
936.786	3310.75
937.017	3228.75
937.249	3261.75
937.481	3182.75
937.712	3268.75
937.943	3211.75
938.175	3213.75
938.406	3206.75
938.637	3259.75
938.869	3210.75
939.1	3234.75
939.331	3187.75
939.562	3177.75
939.793	3171.75
940.024	3215.75
940.255	3257.75
940.486	3136.75
940.717	3138.75
940.948	3091.75
941.179	3031.75
941.409	3116.75
941.64	3091.75
941.871	3091.75
942.102	3053.75
942.332	3086.75
942.563	3084.75
942.793	3121.75
943.024	3011.75
943.254	3061.75
943.484	3126.75
943.715	3095.75
943.945	3092.75
944.175	3068.75
944.405	2957.75
944.636	3001.75
944.866	3018.75
945.096	3073.75
945.326	2990.75
945.556	3043.75
945.786	3026.75
946.016	2973.75
946.245	2925.75
946.475	2941.75
946.705	2915.75
946.935	2901.75
947.164	2901.75
947.394	2869.75
947.624	2819.75
947.853	2896.75
948.083	2815.75
948.312	2835.75
948.542	2748.75
948.771	2748.75
949	2754.75
949.23	2818.75
949.459	2795.75
949.688	2845.75
949.917	2808.75
950.146	2797.75
950.375	2842.75
950.604	2751.75
950.833	2812.75
951.062	2833.75
951.291	2755.75
951.52	2747.75
951.749	2771.75
951.978	2734.75
952.206	2724.75
952.435	2687.75
952.664	2710.75
952.892	2718.75
953.121	2734.75
953.349	2729.75
953.578	2681.75
953.806	2671.75
954.035	2609.75
954.263	2634.75
954.491	2612.75
954.719	2630.75
954.948	2592.75
955.176	2582.75
955.404	2542.75
955.632	2566.75
955.86	2572.75
956.088	2574.75
956.316	2575.75
956.544	2596.75
956.772	2522.75
956.999	2511.75
957.227	2566.75
957.455	2458.75
957.683	2526.75
957.91	2444.75
958.138	2454.75
958.365	2429.75
958.593	2422.75
958.82	2373.75
959.048	2481.75
959.275	2440.75
959.502	2395.75
959.73	2392.75
959.957	2414.75
960.184	2458.75
960.411	2363.75
960.638	2438.75
960.865	2386.75
961.092	2441.75
961.319	2324.75
961.546	2426.75
961.773	2412.75
962	2370.75
962.227	2418.75
962.454	2334.75
962.68	2332.75
962.907	2366.75
963.134	2296.75
963.36	2327.75
963.587	2334.75
963.813	2271.75
964.04	2318.75
964.266	2282.75
964.493	2325.75
964.719	2295.75
964.945	2281.75
965.171	2195.75
965.398	2219.75
965.624	2246.75
965.85	2189.75
966.076	2173.75
966.302	2232.75
966.528	2173.75
966.754	2204.75
966.98	2200.75
967.206	2178.75
967.431	2111.75
967.657	2226.75
967.883	2179.75
968.109	2171.75
968.334	2114.75
968.56	2080.75
968.785	2128.75
969.011	2080.75
969.236	2131.75
969.462	2089.75
969.687	2094.75
969.912	2148.75
970.138	2131.75
970.363	2066.75
970.588	2078.75
970.813	2077.75
971.038	2049.75
971.263	2071.75
971.488	2074.75
971.713	2101.75
971.938	2062.75
972.163	1985.75
972.388	2011.75
972.613	1982.75
972.838	2009.75
973.062	1981.75
973.287	1970.75
973.512	1901.75
973.736	1940.75
973.961	1937.75
974.185	1920.75
974.41	1964.75
974.634	1851.75
974.858	1905.75
975.083	1892.75
975.307	1959.75
975.531	1855.75
975.755	1807.75
975.98	1844.75
976.204	1799.75
976.428	1761.75
976.652	1813.75
976.876	1783.75
977.1	1793.75
977.324	1768.75
977.547	1821.75
977.771	1829.75
977.995	1787.75
978.219	1739.75
978.442	1860.75
978.666	1799.75
978.89	1779.75
979.113	1788.75
979.337	1791.75
979.56	1759.75
979.783	1815.75
980.007	1729.75
980.23	1780.75
980.453	1715.75
980.677	1744.75
980.9	1740.75
981.123	1642.75
981.346	1753.75
981.569	1725.75
981.792	1700.75
982.015	1709.75
982.238	1648.75
982.461	1689.75
982.684	1632.75
982.907	1639.75
983.129	1601.75
983.352	1696.75
983.575	1661.75
983.797	1662.75
984.02	1628.75
984.242	1624.75
984.465	1588.75
984.687	1653.75
984.91	1645.75
985.132	1631.75
985.354	1635.75
985.577	1596.75
985.799	1572.75
986.021	1539.75
986.243	1579.75
986.465	1556.75
986.687	1577.75
986.909	1637.75
987.131	1560.75
987.353	1550.75
987.575	1552.75
987.797	1544.75
988.019	1492.75
988.241	1575.75
988.462	1525.75
988.684	1554.75
988.906	1580.75
989.127	1594.75
989.349	1509.75
989.57	1506.75
989.792	1560.75
990.013	1571.75
990.234	1601.75
990.456	1610.75
990.677	1574.75
990.898	1502.75
991.119	1502.75
991.341	1529.75
991.562	1466.75
991.783	1505.75
992.004	1435.75
992.225	1417.75
992.446	1491.75
992.667	1402.75
992.887	1493.75
993.108	1374.75
993.329	1483.75
993.55	1464.75
993.77	1390.75
993.991	1419.75
994.212	1442.75
994.432	1424.75
994.653	1437.75
994.873	1413.75
995.093	1326.75
995.314	1350.75
995.534	1441.75
995.754	1436.75
995.975	1462.75
996.195	1350.75
996.415	1428.75
996.635	1355.75
996.855	1393.75
997.075	1351.75
997.295	1361.75
997.515	1329.75
997.735	1364.75
997.955	1362.75
998.174	1342.75
998.394	1331.75
998.614	1362.75
998.834	1322.75
999.053	1400.75
999.273	1384.75
999.492	1443.75
999.712	1357.75
999.931	1325.75
1000.151	1362.75
1000.37	1333.75
1000.589	1393.75
1000.809	1352.75
1001.028	1440.75
1001.247	1375.75
1001.466	1304.75
1001.685	1422.75
1001.904	1361.75
1002.123	1344.75
1002.342	1357.75
1002.561	1317.75
1002.78	1329.75
1002.999	1390.75
1003.218	1316.75
1003.436	1322.75
1003.655	1362.75
1003.874	1309.75
1004.092	1304.75
1004.311	1375.75
1004.53	1305.75
1004.748	1398.75
1004.966	1305.75
1005.185	1348.75
1005.403	1335.75
1005.622	1342.75
1005.84	1406.75
1006.058	1320.75
1006.276	1311.75
1006.494	1671.75
1006.712	1309.75
1006.931	1367.75
1007.149	1317.75
1007.367	1287.75
1007.584	1327.75
1007.802	1346.75
1008.02	1299.75
1008.238	1400.75
1008.456	1391.75
1008.673	1235.75
1008.891	1358.75
1009.109	1273.75
1009.326	1324.75
1009.544	1410.75
1009.761	1292.75
1009.979	1350.75
1010.196	1343.75
1010.413	1404.75
1010.631	1422.75
1010.848	1430.75
1011.065	1428.75
1011.282	1397.75
1011.5	1320.75
1011.717	1437.75
1011.934	1349.75
1012.151	1418.75
1012.368	1392.75
1012.585	1321.75
1012.801	1385.75
1013.018	1339.75
1013.235	1324.75
1013.452	1329.75
1013.669	1326.75
1013.885	1335.75
1014.102	1350.75
1014.318	1310.75
1014.535	1264.75
1014.751	1300.75
1014.968	1300.75
1015.184	1325.75
1015.401	1249.75
1015.617	1294.75
1015.833	1245.75
1016.049	1252.75
1016.266	1227.75
1016.482	1268.75
1016.698	1185.75
1016.914	1268.75
1017.13	1189.75
1017.346	1200.75
1017.562	1279.75
1017.778	1193.75
1017.993	1168.75
1018.209	1228.75
1018.425	1191.75
1018.641	1167.75
1018.856	1159.75
1019.072	1184.75
1019.288	1229.75
1019.503	1183.75
1019.719	1079.75
1019.934	1115.75
1020.149	1185.75
1020.365	1136.75
1020.58	1083.75
1020.795	1175.75
1021.011	1123.75
1021.226	1076.75
1021.441	1093.75
1021.656	1030.75
1021.871	988.75
1022.086	979.75
1022.301	1002.75
1022.516	966.75
1022.731	1058.75
1022.946	940.75
1023.16	943.75
1023.375	916.75
1023.59	917.75
1023.804	887.75
1024.019	997.75
1024.234	864.75
1024.448	897.75
1024.663	830.75
1024.877	860.75
1025.092	852.75
1025.306	895.75
1025.52	788.75
1025.734	884.75
1025.949	800.75
1026.163	794.75
1026.377	728.75
1026.591	797.75
1026.805	731.75
1027.019	724.75
1027.233	695.75
1027.447	641.75
1027.661	745.75
1027.875	692.75
1028.088	683.75
1028.302	628.75
1028.516	619.75
1028.73	625.75
1028.943	623.75
1029.157	581.75
1029.37	538.75
1029.584	0.75
1029.797	-2.25
1030.011	-1.25
1030.224	-0.25
