Data from QEP037381__140__13-50-24-878.txt Node

Date: Wed Dec 21 13:50:24 EST 2022
User: dcclab
Spectrometer: QEP03738
Trigger mode: 4
Integration Time (sec): 1.000000E1
Scans to average: 1
Electric dark correction enabled: true
Nonlinearity correction enabled: false
Boxcar width: 0
XAxis mode: Wavelengths
Number of Pixels in Spectrum: 1044
>>>>>Begin Spectral Data<<<<<
784.041	12.88
784.3	0.88
784.558	-4.12
784.817	-4.12
785.075	94816.88
785.334	15746.88
785.592	7184.88
785.851	4919.88
786.109	3724.88
786.368	2914.88
786.626	2360.88
786.884	1965.88
787.143	1655.88
787.401	1345.88
787.659	1217.88
787.917	1058.88
788.175	971.88
788.433	849.88
788.691	785.88
788.949	721.88
789.207	696.88
789.465	596.88
789.723	570.88
789.98	527.88
790.238	578.88
790.496	532.88
790.753	504.88
791.011	552.88
791.268	492.88
791.526	467.88
791.783	492.88
792.041	476.88
792.298	406.88
792.556	460.88
792.813	441.88
793.07	407.88
793.327	406.88
793.584	488.88
793.841	418.88
794.099	417.88
794.356	487.88
794.613	406.88
794.869	435.88
795.126	394.88
795.383	385.88
795.64	397.88
795.897	343.88
796.153	410.88
796.41	384.88
796.667	387.88
796.923	386.88
797.18	373.88
797.436	404.88
797.693	370.88
797.949	413.88
798.206	435.88
798.462	358.88
798.718	416.88
798.974	382.88
799.231	425.88
799.487	396.88
799.743	418.88
799.999	431.88
800.255	439.88
800.511	423.88
800.767	424.88
801.023	417.88
801.279	442.88
801.534	464.88
801.79	478.88
802.046	474.88
802.302	549.88
802.557	577.88
802.813	664.88
803.068	735.88
803.324	945.88
803.579	1180.88
803.835	1584.88
804.09	2116.88
804.345	2689.88
804.601	3375.88
804.856	4110.88
805.111	4791.88
805.366	5227.88
805.621	5576.88
805.876	5780.88
806.131	5931.88
806.386	6034.88
806.641	6115.88
806.896	6216.88
807.151	6421.88
807.406	6400.88
807.661	6569.88
807.915	6600.88
808.17	6715.88
808.425	6799.88
808.679	6845.88
808.934	7036.88
809.188	7018.88
809.443	7117.88
809.697	7199.88
809.951	7182.88
810.206	7280.88
810.46	7318.88
810.714	7436.88
810.968	7559.88
811.223	7570.88
811.477	7651.88
811.731	7669.88
811.985	7653.88
812.239	7657.88
812.493	7790.88
812.747	7813.88
813	7783.88
813.254	7879.88
813.508	7941.88
813.762	7935.88
814.015	7944.88
814.269	8019.88
814.522	8128.88
814.776	8189.88
815.03	8319.88
815.283	8446.88
815.536	8576.88
815.79	8724.88
816.043	8856.88
816.296	8970.88
816.55	8992.88
816.803	9179.88
817.056	9343.88
817.309	9343.88
817.562	9475.88
817.815	9534.88
818.068	9607.88
818.321	9720.88
818.574	9764.88
818.827	9954.88
819.079	10067.88
819.332	10358.88
819.585	10483.88
819.838	10583.88
820.09	10595.88
820.343	10666.88
820.595	10685.88
820.848	10793.88
821.1	10865.88
821.353	10885.88
821.605	10810.88
821.857	10806.88
822.11	10731.88
822.362	10709.88
822.614	10721.88
822.866	10735.88
823.118	10724.88
823.37	10911.88
823.622	10923.88
823.874	10894.88
824.126	11084.88
824.378	11019.88
824.63	10987.88
824.882	10995.88
825.134	11036.88
825.385	11012.88
825.637	11024.88
825.888	10909.88
826.14	10923.88
826.392	10838.88
826.643	10874.88
826.895	10905.88
827.146	10840.88
827.397	10710.88
827.649	10722.88
827.9	10718.88
828.151	10741.88
828.402	10796.88
828.653	10831.88
828.905	10927.88
829.156	10959.88
829.407	10876.88
829.658	10980.88
829.909	10979.88
830.159	11038.88
830.41	11012.88
830.661	10921.88
830.912	10818.88
831.162	10820.88
831.413	10829.88
831.664	10858.88
831.914	10874.88
832.165	10837.88
832.415	10902.88
832.666	10785.88
832.916	10922.88
833.167	10773.88
833.417	10843.88
833.667	10853.88
833.917	10838.88
834.168	10851.88
834.418	10805.88
834.668	10674.88
834.918	10664.88
835.168	10650.88
835.418	10572.88
835.668	10618.88
835.918	10586.88
836.167	10548.88
836.417	10461.88
836.667	10502.88
836.917	10510.88
837.166	10566.88
837.416	10625.88
837.666	10525.88
837.915	10564.88
838.165	10522.88
838.414	10507.88
838.663	10492.88
838.913	10518.88
839.162	10469.88
839.411	10594.88
839.661	10516.88
839.91	10540.88
840.159	10522.88
840.408	10517.88
840.657	10535.88
840.906	10654.88
841.155	10547.88
841.404	10522.88
841.653	10561.88
841.902	10562.88
842.15	10589.88
842.399	10554.88
842.648	10595.88
842.897	10638.88
843.145	10441.88
843.394	10388.88
843.642	10360.88
843.891	10343.88
844.139	10285.88
844.388	10260.88
844.636	10195.88
844.884	10245.88
845.133	10209.88
845.381	10186.88
845.629	10272.88
845.877	10193.88
846.125	10131.88
846.373	10172.88
846.621	10127.88
846.869	10192.88
847.117	10085.88
847.365	9966.88
847.613	9991.88
847.861	9952.88
848.108	10073.88
848.356	10094.88
848.604	9912.88
848.851	10041.88
849.099	10084.88
849.346	10033.88
849.594	10132.88
849.841	10164.88
850.089	10272.88
850.336	10236.88
850.583	10251.88
850.831	10267.88
851.078	10162.88
851.325	10137.88
851.572	10171.88
851.819	10084.88
852.066	9938.88
852.313	9876.88
852.56	9639.88
852.807	9590.88
853.054	9626.88
853.301	9591.88
853.548	9696.88
853.794	9741.88
854.041	9840.88
854.288	9851.88
854.534	9989.88
854.781	9997.88
855.028	9883.88
855.274	9984.88
855.52	9896.88
855.767	9901.88
856.013	9949.88
856.26	10228.88
856.506	9823.88
856.752	9822.88
856.998	9818.88
857.244	9849.88
857.49	9987.88
857.736	9965.88
857.982	9958.88
858.228	9891.88
858.474	9766.88
858.72	9733.88
858.966	9628.88
859.212	9614.88
859.458	9463.88
859.703	9388.88
859.949	9298.88
860.195	9288.88
860.44	9176.88
860.686	9193.88
860.931	9268.88
861.177	9149.88
861.422	9092.88
861.667	9028.88
861.913	8992.88
862.158	9008.88
862.403	9064.88
862.648	9092.88
862.893	9083.88
863.138	9099.88
863.384	9098.88
863.629	9023.88
863.873	9033.88
864.118	9031.88
864.363	8949.88
864.608	8979.88
864.853	8983.88
865.098	8928.88
865.342	8880.88
865.587	8882.88
865.832	8893.88
866.076	8824.88
866.321	8792.88
866.565	8865.88
866.81	8780.88
867.054	8769.88
867.298	8697.88
867.543	8624.88
867.787	8763.88
868.031	8712.88
868.275	8752.88
868.519	8747.88
868.764	8766.88
869.008	8736.88
869.252	8794.88
869.496	8784.88
869.739	8776.88
869.983	8813.88
870.227	8832.88
870.471	8817.88
870.715	8904.88
870.958	8920.88
871.202	8905.88
871.446	8935.88
871.689	8921.88
871.933	8966.88
872.176	8913.88
872.42	8966.88
872.663	8890.88
872.906	9029.88
873.15	8991.88
873.393	8951.88
873.636	9098.88
873.879	8993.88
874.122	8884.88
874.366	8691.88
874.609	8614.88
874.852	8460.88
875.095	8435.88
875.337	8388.88
875.58	8321.88
875.823	8309.88
876.066	8313.88
876.309	8342.88
876.551	8224.88
876.794	8198.88
877.037	8234.88
877.279	8076.88
877.522	8155.88
877.764	8201.88
878.007	8129.88
878.249	8165.88
878.491	8069.88
878.734	8127.88
878.976	7995.88
879.218	7949.88
879.46	8006.88
879.702	7925.88
879.945	7811.88
880.187	7747.88
880.429	7799.88
880.671	7663.88
880.912	7717.88
881.154	7646.88
881.396	7529.88
881.638	7608.88
881.88	7649.88
882.121	7622.88
882.363	7656.88
882.605	7686.88
882.846	7671.88
883.088	7777.88
883.329	7680.88
883.571	7800.88
883.812	7969.88
884.053	8227.88
884.295	8505.88
884.536	8673.88
884.777	8625.88
885.018	8573.88
885.259	8484.88
885.5	8408.88
885.742	8619.88
885.982	8313.88
886.223	8184.88
886.464	8171.88
886.705	8068.88
886.946	7926.88
887.187	7667.88
887.428	7669.88
887.668	7367.88
887.909	7318.88
888.15	7209.88
888.39	7178.88
888.631	7168.88
888.871	7076.88
889.111	6989.88
889.352	6929.88
889.592	6821.88
889.833	6780.88
890.073	6736.88
890.313	6783.88
890.553	6674.88
890.793	6628.88
891.033	6631.88
891.273	6529.88
891.513	6565.88
891.753	6598.88
891.993	6564.88
892.233	6562.88
892.473	6680.88
892.713	6645.88
892.952	6619.88
893.192	6622.88
893.432	6624.88
893.671	6660.88
893.911	6602.88
894.15	6563.88
894.39	6497.88
894.629	6452.88
894.869	6482.88
895.108	6397.88
895.347	6351.88
895.587	6444.88
895.826	6345.88
896.065	6380.88
896.304	6407.88
896.543	6428.88
896.782	6311.88
897.021	6338.88
897.26	6332.88
897.499	6338.88
897.738	6397.88
897.977	6306.88
898.216	6241.88
898.454	6203.88
898.693	6216.88
898.932	6167.88
899.17	6123.88
899.409	6129.88
899.647	6163.88
899.886	6170.88
900.124	6206.88
900.363	6146.88
900.601	6211.88
900.839	6256.88
901.078	6294.88
901.316	6385.88
901.554	6469.88
901.792	6531.88
902.03	6554.88
902.268	6550.88
902.506	6601.88
902.744	6501.88
902.982	6464.88
903.22	6254.88
903.458	6179.88
903.695	6069.88
903.933	5976.88
904.171	5816.88
904.409	5774.88
904.646	5698.88
904.884	5532.88
905.121	5579.88
905.359	5493.88
905.596	5449.88
905.833	5372.88
906.071	5356.88
906.308	5326.88
906.545	5361.88
906.783	5248.88
907.02	5262.88
907.257	5261.88
907.494	5270.88
907.731	5280.88
907.968	5253.88
908.205	5217.88
908.442	5150.88
908.679	5184.88
908.915	5125.88
909.152	5088.88
909.389	5053.88
909.626	4987.88
909.862	4921.88
910.099	4953.88
910.335	4970.88
910.572	4812.88
910.808	4911.88
911.045	4850.88
911.281	4830.88
911.518	4882.88
911.754	4796.88
911.99	4796.88
912.226	4810.88
912.463	4703.88
912.699	4685.88
912.935	4665.88
913.171	4620.88
913.407	4602.88
913.643	4625.88
913.879	4528.88
914.114	4526.88
914.35	4504.88
914.586	4460.88
914.822	4364.88
915.057	4451.88
915.293	4341.88
915.529	4339.88
915.764	4336.88
916	4375.88
916.235	4321.88
916.471	4345.88
916.706	4305.88
916.941	4302.88
917.177	4239.88
917.412	4295.88
917.647	4350.88
917.882	4266.88
918.117	4322.88
918.352	4266.88
918.588	4341.88
918.823	4223.88
919.057	4173.88
919.292	4065.88
919.527	4192.88
919.762	4073.88
919.997	4121.88
920.232	4024.88
920.466	3994.88
920.701	3892.88
920.935	3962.88
921.17	3934.88
921.405	3882.88
921.639	3900.88
921.873	3913.88
922.108	3880.88
922.342	3914.88
922.576	3813.88
922.811	3852.88
923.045	3846.88
923.279	3887.88
923.513	3738.88
923.747	3805.88
923.981	3773.88
924.215	3723.88
924.449	3744.88
924.683	3645.88
924.917	3686.88
925.151	3633.88
925.385	3733.88
925.618	3651.88
925.852	3690.88
926.086	3617.88
926.319	3637.88
926.553	3658.88
926.786	3634.88
927.02	3652.88
927.253	3667.88
927.486	3679.88
927.72	3569.88
927.953	3663.88
928.186	3601.88
928.42	3625.88
928.653	3542.88
928.886	3549.88
929.119	3604.88
929.352	3530.88
929.585	3561.88
929.818	3476.88
930.051	3484.88
930.284	3463.88
930.516	3403.88
930.749	3354.88
930.982	3420.88
931.215	3398.88
931.447	3337.88
931.68	3377.88
931.912	3304.88
932.145	3361.88
932.377	3354.88
932.61	3442.88
932.842	3317.88
933.074	3371.88
933.307	3301.88
933.539	3386.88
933.771	3410.88
934.003	3385.88
934.236	3410.88
934.468	3441.88
934.7	3338.88
934.932	3357.88
935.164	3317.88
935.395	3283.88
935.627	3315.88
935.859	3324.88
936.091	3284.88
936.323	3361.88
936.554	3352.88
936.786	3260.88
937.017	3224.88
937.249	3260.88
937.481	3185.88
937.712	3283.88
937.943	3257.88
938.175	3233.88
938.406	3209.88
938.637	3297.88
938.869	3220.88
939.1	3223.88
939.331	3231.88
939.562	3260.88
939.793	3242.88
940.024	3219.88
940.255	3208.88
940.486	3169.88
940.717	3150.88
940.948	3135.88
941.179	3121.88
941.409	3114.88
941.64	3099.88
941.871	3142.88
942.102	3129.88
942.332	3138.88
942.563	3151.88
942.793	3148.88
943.024	3095.88
943.254	3076.88
943.484	3197.88
943.715	3164.88
943.945	3129.88
944.175	3062.88
944.405	3046.88
944.636	3102.88
944.866	3102.88
945.096	3120.88
945.326	3035.88
945.556	3100.88
945.786	3117.88
946.016	3030.88
946.245	3054.88
946.475	3017.88
946.705	3022.88
946.935	3008.88
947.164	3048.88
947.394	2961.88
947.624	2965.88
947.853	3018.88
948.083	2955.88
948.312	2943.88
948.542	2917.88
948.771	2866.88
949	2901.88
949.23	2899.88
949.459	2917.88
949.688	2981.88
949.917	2941.88
950.146	2905.88
950.375	2966.88
950.604	2863.88
950.833	2947.88
951.062	2963.88
951.291	2910.88
951.52	2868.88
951.749	2882.88
951.978	2874.88
952.206	2869.88
952.435	2853.88
952.664	2890.88
952.892	2886.88
953.121	2823.88
953.349	2864.88
953.578	2838.88
953.806	2829.88
954.035	2772.88
954.263	2822.88
954.491	2778.88
954.719	2785.88
954.948	2761.88
955.176	2749.88
955.404	2695.88
955.632	2725.88
955.86	2745.88
956.088	2747.88
956.316	2728.88
956.544	2710.88
956.772	2677.88
956.999	2704.88
957.227	2727.88
957.455	2664.88
957.683	2643.88
957.91	2628.88
958.138	2622.88
958.365	2615.88
958.593	2607.88
958.82	2571.88
959.048	2615.88
959.275	2566.88
959.502	2575.88
959.73	2550.88
959.957	2600.88
960.184	2617.88
960.411	2587.88
960.638	2656.88
960.865	2608.88
961.092	2591.88
961.319	2482.88
961.546	2612.88
961.773	2602.88
962	2583.88
962.227	2608.88
962.454	2535.88
962.68	2542.88
962.907	2591.88
963.134	2495.88
963.36	2548.88
963.587	2538.88
963.813	2476.88
964.04	2481.88
964.266	2437.88
964.493	2519.88
964.719	2473.88
964.945	2498.88
965.171	2383.88
965.398	2419.88
965.624	2472.88
965.85	2342.88
966.076	2388.88
966.302	2406.88
966.528	2363.88
966.754	2403.88
966.98	2398.88
967.206	2364.88
967.431	2335.88
967.657	2429.88
967.883	2386.88
968.109	2368.88
968.334	2319.88
968.56	2316.88
968.785	2337.88
969.011	2284.88
969.236	2346.88
969.462	2272.88
969.687	2297.88
969.912	2325.88
970.138	2364.88
970.363	2273.88
970.588	2284.88
970.813	2274.88
971.038	2260.88
971.263	2268.88
971.488	2308.88
971.713	2316.88
971.938	2301.88
972.163	2175.88
972.388	2230.88
972.613	2202.88
972.838	2212.88
973.062	2199.88
973.287	2176.88
973.512	2120.88
973.736	2178.88
973.961	2155.88
974.185	2147.88
974.41	2190.88
974.634	2059.88
974.858	2085.88
975.083	2124.88
975.307	2126.88
975.531	2088.88
975.755	2033.88
975.98	2066.88
976.204	1981.88
976.428	2008.88
976.652	2032.88
976.876	1969.88
977.1	2034.88
977.324	2010.88
977.547	2036.88
977.771	2069.88
977.995	2042.88
978.219	1974.88
978.442	2068.88
978.666	1994.88
978.89	1987.88
979.113	1997.88
979.337	1961.88
979.56	1931.88
979.783	2063.88
980.007	1930.88
980.23	1946.88
980.453	1937.88
980.677	1956.88
980.9	1960.88
981.123	1863.88
981.346	1991.88
981.569	1947.88
981.792	1973.88
982.015	1939.88
982.238	1858.88
982.461	1900.88
982.684	1871.88
982.907	1858.88
983.129	1804.88
983.352	1906.88
983.575	1849.88
983.797	1875.88
984.02	1837.88
984.242	1844.88
984.465	1840.88
984.687	1831.88
984.91	1878.88
985.132	1867.88
985.354	1882.88
985.577	1864.88
985.799	1802.88
986.021	1732.88
986.243	1772.88
986.465	1789.88
986.687	1823.88
986.909	1846.88
987.131	1803.88
987.353	1801.88
987.575	1829.88
987.797	1774.88
988.019	1715.88
988.241	1782.88
988.462	1729.88
988.684	1770.88
988.906	1830.88
989.127	1844.88
989.349	1711.88
989.57	1762.88
989.792	1789.88
990.013	1796.88
990.234	1829.88
990.456	1824.88
990.677	1792.88
990.898	1767.88
991.119	1742.88
991.341	1771.88
991.562	1697.88
991.783	1740.88
992.004	1684.88
992.225	1655.88
992.446	1692.88
992.667	1656.88
992.887	1736.88
993.108	1606.88
993.329	1727.88
993.55	1721.88
993.77	1628.88
993.991	1638.88
994.212	1684.88
994.432	1660.88
994.653	1668.88
994.873	1681.88
995.093	1531.88
995.314	1604.88
995.534	1683.88
995.754	1687.88
995.975	1693.88
996.195	1596.88
996.415	1662.88
996.635	1618.88
996.855	1645.88
997.075	1627.88
997.295	1629.88
997.515	1623.88
997.735	1667.88
997.955	1638.88
998.174	1602.88
998.394	1593.88
998.614	1643.88
998.834	1591.88
999.053	1652.88
999.273	1658.88
999.492	1680.88
999.712	1599.88
999.931	1573.88
1000.151	1626.88
1000.37	1572.88
1000.589	1654.88
1000.809	1558.88
1001.028	1680.88
1001.247	1605.88
1001.466	1511.88
1001.685	1638.88
1001.904	1580.88
1002.123	1551.88
1002.342	1576.88
1002.561	1519.88
1002.78	1563.88
1002.999	1623.88
1003.218	1532.88
1003.436	1517.88
1003.655	1580.88
1003.874	1550.88
1004.092	1521.88
1004.311	1573.88
1004.53	1552.88
1004.748	1633.88
1004.966	1519.88
1005.185	1605.88
1005.403	1551.88
1005.622	1570.88
1005.84	1663.88
1006.058	1543.88
1006.276	1544.88
1006.494	2071.88
1006.712	1565.88
1006.931	1640.88
1007.149	1543.88
1007.367	1575.88
1007.584	1618.88
1007.802	1684.88
1008.02	1605.88
1008.238	1752.88
1008.456	1730.88
1008.673	1634.88
1008.891	1746.88
1009.109	1719.88
1009.326	1794.88
1009.544	1914.88
1009.761	1855.88
1009.979	2010.88
1010.196	2068.88
1010.413	2187.88
1010.631	2303.88
1010.848	2407.88
1011.065	2417.88
1011.282	2368.88
1011.5	2309.88
1011.717	2427.88
1011.934	2383.88
1012.151	2373.88
1012.368	2335.88
1012.585	2285.88
1012.801	2363.88
1013.018	2378.88
1013.235	2333.88
1013.452	2335.88
1013.669	2362.88
1013.885	2343.88
1014.102	2410.88
1014.318	2378.88
1014.535	2337.88
1014.751	2400.88
1014.968	2419.88
1015.184	2396.88
1015.401	2295.88
1015.617	2300.88
1015.833	2248.88
1016.049	2254.88
1016.266	2222.88
1016.482	2200.88
1016.698	2146.88
1016.914	2159.88
1017.13	2130.88
1017.346	2123.88
1017.562	2159.88
1017.778	2113.88
1017.993	2036.88
1018.209	2098.88
1018.425	2086.88
1018.641	2078.88
1018.856	2039.88
1019.072	2044.88
1019.288	2113.88
1019.503	2085.88
1019.719	1992.88
1019.934	1984.88
1020.149	2069.88
1020.365	2006.88
1020.58	1891.88
1020.795	1909.88
1021.011	1850.88
1021.226	1778.88
1021.441	1803.88
1021.656	1681.88
1021.871	1604.88
1022.086	1604.88
1022.301	1584.88
1022.516	1561.88
1022.731	1604.88
1022.946	1477.88
1023.16	1455.88
1023.375	1442.88
1023.59	1434.88
1023.804	1340.88
1024.019	1438.88
1024.234	1293.88
1024.448	1317.88
1024.663	1235.88
1024.877	1241.88
1025.092	1242.88
1025.306	1230.88
1025.52	1110.88
1025.734	1196.88
1025.949	1117.88
1026.163	1068.88
1026.377	988.88
1026.591	1061.88
1026.805	974.88
1027.019	969.88
1027.233	924.88
1027.447	871.88
1027.661	980.88
1027.875	895.88
1028.088	891.88
1028.302	832.88
1028.516	822.88
1028.73	796.88
1028.943	797.88
1029.157	725.88
1029.37	704.88
1029.584	-4.12
1029.797	-1.12
1030.011	-2.12
1030.224	1.88
