Data from QEP037381__151__13-52-14-873.txt Node

Date: Wed Dec 21 13:52:14 EST 2022
User: dcclab
Spectrometer: QEP03738
Trigger mode: 4
Integration Time (sec): 1.000000E1
Scans to average: 1
Electric dark correction enabled: true
Nonlinearity correction enabled: false
Boxcar width: 0
XAxis mode: Wavelengths
Number of Pixels in Spectrum: 1044
>>>>>Begin Spectral Data<<<<<
784.041	13.25
784.3	2.25
784.558	-0.75
784.817	-5.75
785.075	86935.25
785.334	15162.25
785.592	7090.25
785.851	4898.25
786.109	3675.25
786.368	2855.25
786.626	2331.25
786.884	1970.25
787.143	1638.25
787.401	1326.25
787.659	1214.25
787.917	1054.25
788.175	974.25
788.433	852.25
788.691	777.25
788.949	703.25
789.207	692.25
789.465	597.25
789.723	578.25
789.98	532.25
790.238	559.25
790.496	525.25
790.753	494.25
791.011	554.25
791.268	498.25
791.526	475.25
791.783	496.25
792.041	479.25
792.298	399.25
792.556	460.25
792.813	440.25
793.07	415.25
793.327	417.25
793.584	472.25
793.841	397.25
794.099	436.25
794.356	497.25
794.613	394.25
794.869	415.25
795.126	391.25
795.383	382.25
795.64	393.25
795.897	340.25
796.153	425.25
796.41	401.25
796.667	376.25
796.923	375.25
797.18	386.25
797.436	404.25
797.693	361.25
797.949	415.25
798.206	437.25
798.462	360.25
798.718	429.25
798.974	382.25
799.231	446.25
799.487	410.25
799.743	415.25
799.999	442.25
800.255	429.25
800.511	404.25
800.767	449.25
801.023	426.25
801.279	440.25
801.534	473.25
801.79	488.25
802.046	474.25
802.302	572.25
802.557	580.25
802.813	703.25
803.068	777.25
803.324	1004.25
803.579	1285.25
803.835	1697.25
804.09	2275.25
804.345	2929.25
804.601	3663.25
804.856	4452.25
805.111	5128.25
805.366	5563.25
805.621	5974.25
805.876	6216.25
806.131	6342.25
806.386	6407.25
806.641	6523.25
806.896	6645.25
807.151	6798.25
807.406	6816.25
807.661	6984.25
807.915	7106.25
808.17	7271.25
808.425	7254.25
808.679	7343.25
808.934	7494.25
809.188	7517.25
809.443	7656.25
809.697	7752.25
809.951	7732.25
810.206	7772.25
810.46	7830.25
810.714	8016.25
810.968	8088.25
811.223	8094.25
811.477	8163.25
811.731	8238.25
811.985	8242.25
812.239	8227.25
812.493	8393.25
812.747	8453.25
813	8348.25
813.254	8485.25
813.508	8540.25
813.762	8494.25
814.015	8599.25
814.269	8660.25
814.522	8791.25
814.776	8849.25
815.03	8945.25
815.283	9040.25
815.536	9228.25
815.79	9361.25
816.043	9549.25
816.296	9645.25
816.55	9730.25
816.803	9886.25
817.056	10088.25
817.309	10097.25
817.562	10175.25
817.815	10296.25
818.068	10352.25
818.321	10498.25
818.574	10646.25
818.827	10762.25
819.079	10946.25
819.332	11199.25
819.585	11323.25
819.838	11481.25
820.09	11404.25
820.343	11592.25
820.595	11526.25
820.848	11743.25
821.1	11741.25
821.353	11760.25
821.605	11723.25
821.857	11858.25
822.11	11672.25
822.362	11716.25
822.614	11615.25
822.866	11615.25
823.118	11648.25
823.37	11827.25
823.622	11849.25
823.874	11866.25
824.126	12003.25
824.378	11911.25
824.63	11991.25
824.882	11968.25
825.134	12019.25
825.385	12011.25
825.637	11870.25
825.888	11876.25
826.14	11849.25
826.392	11802.25
826.643	11740.25
826.895	11809.25
827.146	11706.25
827.397	11695.25
827.649	11743.25
827.9	11677.25
828.151	11617.25
828.402	11780.25
828.653	11777.25
828.905	11879.25
829.156	11859.25
829.407	11832.25
829.658	11849.25
829.909	11982.25
830.159	11952.25
830.41	11958.25
830.661	11852.25
830.912	11747.25
831.162	11726.25
831.413	11765.25
831.664	11838.25
831.914	11780.25
832.165	11804.25
832.415	11796.25
832.666	11816.25
832.916	11805.25
833.167	11729.25
833.417	11754.25
833.667	11789.25
833.917	11743.25
834.168	11783.25
834.418	11706.25
834.668	11665.25
834.918	11624.25
835.168	11588.25
835.418	11516.25
835.668	11478.25
835.918	11497.25
836.167	11534.25
836.417	11513.25
836.667	11441.25
836.917	11500.25
837.166	11524.25
837.416	11474.25
837.666	11496.25
837.915	11462.25
838.165	11507.25
838.414	11386.25
838.663	11439.25
838.913	11452.25
839.162	11451.25
839.411	11535.25
839.661	11476.25
839.91	11457.25
840.159	11511.25
840.408	11481.25
840.657	11549.25
840.906	11542.25
841.155	11504.25
841.404	11575.25
841.653	11473.25
841.902	11536.25
842.15	11590.25
842.399	11629.25
842.648	11581.25
842.897	11624.25
843.145	11502.25
843.394	11348.25
843.642	11377.25
843.891	11341.25
844.139	11227.25
844.388	11138.25
844.636	11150.25
844.884	11184.25
845.133	11114.25
845.381	11086.25
845.629	11275.25
845.877	11156.25
846.125	11071.25
846.373	11173.25
846.621	11129.25
846.869	11151.25
847.117	11011.25
847.365	11025.25
847.613	10997.25
847.861	10967.25
848.108	10984.25
848.356	10982.25
848.604	10968.25
848.851	10948.25
849.099	11024.25
849.346	11049.25
849.594	11072.25
849.841	11151.25
850.089	11178.25
850.336	11275.25
850.583	11338.25
850.831	11181.25
851.078	11202.25
851.325	11160.25
851.572	11221.25
851.819	11161.25
852.066	10897.25
852.313	10608.25
852.56	10573.25
852.807	10618.25
853.054	10569.25
853.301	10621.25
853.548	10535.25
853.794	10758.25
854.041	10744.25
854.288	10826.25
854.534	10992.25
854.781	10890.25
855.028	10807.25
855.274	10939.25
855.52	10831.25
855.767	10859.25
856.013	10983.25
856.26	11206.25
856.506	10778.25
856.752	10830.25
856.998	10708.25
857.244	10725.25
857.49	10915.25
857.736	10863.25
857.982	10867.25
858.228	10827.25
858.474	10687.25
858.72	10622.25
858.966	10565.25
859.212	10551.25
859.458	10356.25
859.703	10250.25
859.949	10178.25
860.195	10104.25
860.44	10126.25
860.686	10036.25
860.931	10128.25
861.177	10007.25
861.422	9924.25
861.667	9897.25
861.913	9837.25
862.158	9933.25
862.403	9975.25
862.648	10025.25
862.893	10053.25
863.138	9927.25
863.384	9916.25
863.629	9989.25
863.873	9948.25
864.118	9932.25
864.363	9855.25
864.608	9869.25
864.853	9836.25
865.098	9769.25
865.342	9714.25
865.587	9707.25
865.832	9769.25
866.076	9733.25
866.321	9635.25
866.565	9693.25
866.81	9611.25
867.054	9622.25
867.298	9610.25
867.543	9596.25
867.787	9570.25
868.031	9520.25
868.275	9592.25
868.519	9585.25
868.764	9599.25
869.008	9548.25
869.252	9585.25
869.496	9620.25
869.739	9627.25
869.983	9694.25
870.227	9701.25
870.471	9675.25
870.715	9727.25
870.958	9752.25
871.202	9761.25
871.446	9849.25
871.689	9920.25
871.933	9804.25
872.176	9787.25
872.42	9709.25
872.663	9801.25
872.906	9786.25
873.15	9822.25
873.393	9820.25
873.636	9932.25
873.879	9833.25
874.122	9690.25
874.366	9569.25
874.609	9436.25
874.852	9340.25
875.095	9256.25
875.337	9203.25
875.58	9084.25
875.823	9120.25
876.066	9144.25
876.309	9126.25
876.551	9006.25
876.794	8996.25
877.037	9034.25
877.279	8945.25
877.522	8878.25
877.764	9004.25
878.007	8925.25
878.249	8955.25
878.491	8824.25
878.734	8918.25
878.976	8804.25
879.218	8755.25
879.46	8757.25
879.702	8683.25
879.945	8685.25
880.187	8549.25
880.429	8472.25
880.671	8447.25
880.912	8455.25
881.154	8479.25
881.396	8427.25
881.638	8446.25
881.88	8414.25
882.121	8370.25
882.363	8369.25
882.605	8519.25
882.846	8488.25
883.088	8517.25
883.329	8557.25
883.571	8614.25
883.812	8742.25
884.053	8984.25
884.295	9346.25
884.536	9518.25
884.777	9527.25
885.018	9395.25
885.259	9371.25
885.5	9231.25
885.742	9467.25
885.982	9198.25
886.223	9018.25
886.464	8963.25
886.705	8804.25
886.946	8717.25
887.187	8468.25
887.428	8436.25
887.668	8221.25
887.909	8094.25
888.15	7933.25
888.39	7972.25
888.631	7937.25
888.871	7785.25
889.111	7707.25
889.352	7676.25
889.592	7585.25
889.833	7457.25
890.073	7464.25
890.313	7515.25
890.553	7410.25
890.793	7372.25
891.033	7336.25
891.273	7301.25
891.513	7288.25
891.753	7329.25
891.993	7284.25
892.233	7328.25
892.473	7364.25
892.713	7301.25
892.952	7329.25
893.192	7344.25
893.432	7255.25
893.671	7347.25
893.911	7281.25
894.15	7299.25
894.39	7210.25
894.629	7170.25
894.869	7201.25
895.108	7140.25
895.347	7113.25
895.587	7130.25
895.826	7000.25
896.065	7024.25
896.304	7083.25
896.543	7153.25
896.782	6942.25
897.021	7050.25
897.26	7038.25
897.499	7082.25
897.738	7067.25
897.977	7026.25
898.216	6962.25
898.454	6952.25
898.693	6880.25
898.932	6880.25
899.17	6796.25
899.409	6835.25
899.647	6814.25
899.886	6782.25
900.124	6843.25
900.363	6860.25
900.601	6935.25
900.839	6987.25
901.078	7007.25
901.316	7071.25
901.554	7130.25
901.792	7194.25
902.03	7157.25
902.268	7268.25
902.506	7218.25
902.744	7154.25
902.982	7135.25
903.22	6970.25
903.458	6844.25
903.695	6732.25
903.933	6663.25
904.171	6459.25
904.409	6331.25
904.646	6256.25
904.884	6160.25
905.121	6115.25
905.359	6085.25
905.596	5984.25
905.833	5922.25
906.071	5897.25
906.308	5945.25
906.545	5841.25
906.783	5832.25
907.02	5884.25
907.257	5789.25
907.494	5818.25
907.731	5803.25
907.968	5809.25
908.205	5764.25
908.442	5657.25
908.679	5675.25
908.915	5666.25
909.152	5621.25
909.389	5499.25
909.626	5532.25
909.862	5460.25
910.099	5495.25
910.335	5430.25
910.572	5352.25
910.808	5427.25
911.045	5372.25
911.281	5299.25
911.518	5373.25
911.754	5339.25
911.99	5343.25
912.226	5275.25
912.463	5215.25
912.699	5219.25
912.935	5172.25
913.171	5125.25
913.407	5077.25
913.643	5146.25
913.879	5047.25
914.114	4998.25
914.35	4933.25
914.586	4902.25
914.822	4842.25
915.057	4906.25
915.293	4756.25
915.529	4713.25
915.764	4791.25
916	4798.25
916.235	4784.25
916.471	4824.25
916.706	4732.25
916.941	4732.25
917.177	4725.25
917.412	4798.25
917.647	4781.25
917.882	4703.25
918.117	4794.25
918.352	4701.25
918.588	4776.25
918.823	4629.25
919.057	4593.25
919.292	4509.25
919.527	4652.25
919.762	4510.25
919.997	4531.25
920.232	4437.25
920.466	4438.25
920.701	4339.25
920.935	4380.25
921.17	4324.25
921.405	4296.25
921.639	4337.25
921.873	4295.25
922.108	4308.25
922.342	4296.25
922.576	4204.25
922.811	4230.25
923.045	4234.25
923.279	4280.25
923.513	4137.25
923.747	4259.25
923.981	4152.25
924.215	4097.25
924.449	4113.25
924.683	4069.25
924.917	4061.25
925.151	4028.25
925.385	4125.25
925.618	4045.25
925.852	4047.25
926.086	3988.25
926.319	4016.25
926.553	4056.25
926.786	4000.25
927.02	4011.25
927.253	4041.25
927.486	4069.25
927.72	3983.25
927.953	4071.25
928.186	3980.25
928.42	4009.25
928.653	3919.25
928.886	3916.25
929.119	3978.25
929.352	3944.25
929.585	3905.25
929.818	3879.25
930.051	3896.25
930.284	3860.25
930.516	3719.25
930.749	3783.25
930.982	3799.25
931.215	3743.25
931.447	3696.25
931.68	3737.25
931.912	3696.25
932.145	3698.25
932.377	3730.25
932.61	3814.25
932.842	3659.25
933.074	3726.25
933.307	3694.25
933.539	3763.25
933.771	3745.25
934.003	3683.25
934.236	3783.25
934.468	3781.25
934.7	3691.25
934.932	3728.25
935.164	3666.25
935.395	3650.25
935.627	3743.25
935.859	3674.25
936.091	3637.25
936.323	3675.25
936.554	3715.25
936.786	3642.25
937.017	3577.25
937.249	3663.25
937.481	3545.25
937.712	3611.25
937.943	3624.25
938.175	3581.25
938.406	3589.25
938.637	3619.25
938.869	3563.25
939.1	3596.25
939.331	3580.25
939.562	3611.25
939.793	3560.25
940.024	3573.25
940.255	3578.25
940.486	3469.25
940.717	3504.25
940.948	3483.25
941.179	3439.25
941.409	3463.25
941.64	3442.25
941.871	3454.25
942.102	3427.25
942.332	3443.25
942.563	3493.25
942.793	3497.25
943.024	3410.25
943.254	3470.25
943.484	3491.25
943.715	3532.25
943.945	3468.25
944.175	3429.25
944.405	3381.25
944.636	3422.25
944.866	3491.25
945.096	3475.25
945.326	3404.25
945.556	3440.25
945.786	3453.25
946.016	3386.25
946.245	3326.25
946.475	3325.25
946.705	3340.25
946.935	3376.25
947.164	3363.25
947.394	3290.25
947.624	3316.25
947.853	3316.25
948.083	3288.25
948.312	3240.25
948.542	3219.25
948.771	3192.25
949	3211.25
949.23	3188.25
949.459	3229.25
949.688	3288.25
949.917	3235.25
950.146	3255.25
950.375	3280.25
950.604	3187.25
950.833	3262.25
951.062	3276.25
951.291	3238.25
951.52	3160.25
951.749	3221.25
951.978	3167.25
952.206	3163.25
952.435	3098.25
952.664	3164.25
952.892	3182.25
953.121	3150.25
953.349	3170.25
953.578	3172.25
953.806	3123.25
954.035	3086.25
954.263	3118.25
954.491	3083.25
954.719	3088.25
954.948	3050.25
955.176	3052.25
955.404	2974.25
955.632	3106.25
955.86	3020.25
956.088	3024.25
956.316	3031.25
956.544	3066.25
956.772	2987.25
956.999	2942.25
957.227	3040.25
957.455	2916.25
957.683	2940.25
957.91	2900.25
958.138	2906.25
958.365	2875.25
958.593	2860.25
958.82	2843.25
959.048	2908.25
959.275	2847.25
959.502	2887.25
959.73	2830.25
959.957	2853.25
960.184	2851.25
960.411	2840.25
960.638	2899.25
960.865	2843.25
961.092	2851.25
961.319	2777.25
961.546	2861.25
961.773	2862.25
962	2838.25
962.227	2892.25
962.454	2835.25
962.68	2830.25
962.907	2814.25
963.134	2754.25
963.36	2782.25
963.587	2766.25
963.813	2712.25
964.04	2720.25
964.266	2645.25
964.493	2790.25
964.719	2721.25
964.945	2756.25
965.171	2627.25
965.398	2681.25
965.624	2676.25
965.85	2638.25
966.076	2650.25
966.302	2690.25
966.528	2635.25
966.754	2682.25
966.98	2634.25
967.206	2636.25
967.431	2552.25
967.657	2638.25
967.883	2636.25
968.109	2616.25
968.334	2559.25
968.56	2525.25
968.785	2544.25
969.011	2542.25
969.236	2603.25
969.462	2530.25
969.687	2541.25
969.912	2580.25
970.138	2619.25
970.363	2523.25
970.588	2535.25
970.813	2484.25
971.038	2491.25
971.263	2482.25
971.488	2507.25
971.713	2539.25
971.938	2515.25
972.163	2403.25
972.388	2441.25
972.613	2404.25
972.838	2442.25
973.062	2440.25
973.287	2429.25
973.512	2340.25
973.736	2374.25
973.961	2379.25
974.185	2335.25
974.41	2396.25
974.634	2310.25
974.858	2317.25
975.083	2360.25
975.307	2349.25
975.531	2279.25
975.755	2256.25
975.98	2268.25
976.204	2194.25
976.428	2233.25
976.652	2213.25
976.876	2208.25
977.1	2214.25
977.324	2216.25
977.547	2248.25
977.771	2238.25
977.995	2205.25
978.219	2154.25
978.442	2257.25
978.666	2194.25
978.89	2187.25
979.113	2210.25
979.337	2218.25
979.56	2125.25
979.783	2243.25
980.007	2137.25
980.23	2148.25
980.453	2102.25
980.677	2142.25
980.9	2117.25
981.123	2066.25
981.346	2162.25
981.569	2144.25
981.792	2155.25
982.015	2107.25
982.238	2079.25
982.461	2066.25
982.684	2038.25
982.907	2048.25
983.129	2032.25
983.352	2062.25
983.575	2021.25
983.797	2079.25
984.02	1987.25
984.242	2018.25
984.465	2008.25
984.687	2044.25
984.91	2084.25
985.132	2030.25
985.354	2038.25
985.577	1984.25
985.799	2000.25
986.021	1908.25
986.243	1927.25
986.465	1990.25
986.687	1976.25
986.909	2022.25
987.131	1983.25
987.353	1940.25
987.575	1946.25
987.797	1954.25
988.019	1879.25
988.241	1938.25
988.462	1917.25
988.684	1930.25
988.906	1952.25
989.127	2001.25
989.349	1881.25
989.57	1927.25
989.792	1961.25
990.013	1949.25
990.234	1951.25
990.456	1963.25
990.677	1946.25
990.898	1902.25
991.119	1912.25
991.341	1929.25
991.562	1861.25
991.783	1915.25
992.004	1823.25
992.225	1819.25
992.446	1886.25
992.667	1788.25
992.887	1834.25
993.108	1771.25
993.329	1904.25
993.55	1838.25
993.77	1761.25
993.991	1796.25
994.212	1839.25
994.432	1795.25
994.653	1810.25
994.873	1806.25
995.093	1691.25
995.314	1730.25
995.534	1800.25
995.754	1825.25
995.975	1835.25
996.195	1705.25
996.415	1822.25
996.635	1756.25
996.855	1773.25
997.075	1767.25
997.295	1760.25
997.515	1764.25
997.735	1791.25
997.955	1799.25
998.174	1769.25
998.394	1739.25
998.614	1798.25
998.834	1748.25
999.053	1824.25
999.273	1765.25
999.492	1813.25
999.712	1748.25
999.931	1708.25
1000.151	1754.25
1000.37	1716.25
1000.589	1754.25
1000.809	1712.25
1001.028	1808.25
1001.247	1746.25
1001.466	1644.25
1001.685	1771.25
1001.904	1686.25
1002.123	1677.25
1002.342	1685.25
1002.561	1639.25
1002.78	1675.25
1002.999	1725.25
1003.218	1673.25
1003.436	1666.25
1003.655	1718.25
1003.874	1609.25
1004.092	1659.25
1004.311	1674.25
1004.53	1644.25
1004.748	1725.25
1004.966	1624.25
1005.185	1683.25
1005.403	1664.25
1005.622	1652.25
1005.84	1773.25
1006.058	1647.25
1006.276	1685.25
1006.494	2178.25
1006.712	1685.25
1006.931	1779.25
1007.149	1681.25
1007.367	1682.25
1007.584	1736.25
1007.802	1774.25
1008.02	1727.25
1008.238	1830.25
1008.456	1863.25
1008.673	1738.25
1008.891	1863.25
1009.109	1860.25
1009.326	1943.25
1009.544	2029.25
1009.761	1986.25
1009.979	2100.25
1010.196	2212.25
1010.413	2340.25
1010.631	2470.25
1010.848	2527.25
1011.065	2600.25
1011.282	2542.25
1011.5	2493.25
1011.717	2607.25
1011.934	2519.25
1012.151	2565.25
1012.368	2550.25
1012.585	2444.25
1012.801	2566.25
1013.018	2508.25
1013.235	2486.25
1013.452	2543.25
1013.669	2522.25
1013.885	2547.25
1014.102	2605.25
1014.318	2607.25
1014.535	2534.25
1014.751	2556.25
1014.968	2574.25
1015.184	2577.25
1015.401	2494.25
1015.617	2489.25
1015.833	2394.25
1016.049	2407.25
1016.266	2376.25
1016.482	2374.25
1016.698	2296.25
1016.914	2366.25
1017.13	2280.25
1017.346	2313.25
1017.562	2366.25
1017.778	2258.25
1017.993	2220.25
1018.209	2291.25
1018.425	2260.25
1018.641	2216.25
1018.856	2218.25
1019.072	2210.25
1019.288	2296.25
1019.503	2241.25
1019.719	2146.25
1019.934	2171.25
1020.149	2226.25
1020.365	2158.25
1020.58	2056.25
1020.795	2077.25
1021.011	1964.25
1021.226	1922.25
1021.441	1922.25
1021.656	1822.25
1021.871	1741.25
1022.086	1746.25
1022.301	1709.25
1022.516	1700.25
1022.731	1749.25
1022.946	1629.25
1023.16	1596.25
1023.375	1549.25
1023.59	1519.25
1023.804	1460.25
1024.019	1553.25
1024.234	1399.25
1024.448	1405.25
1024.663	1320.25
1024.877	1321.25
1025.092	1350.25
1025.306	1348.25
1025.52	1238.25
1025.734	1282.25
1025.949	1181.25
1026.163	1156.25
1026.377	1102.25
1026.591	1130.25
1026.805	1074.25
1027.019	1023.25
1027.233	998.25
1027.447	941.25
1027.661	1025.25
1027.875	962.25
1028.088	987.25
1028.302	899.25
1028.516	885.25
1028.73	873.25
1028.943	840.25
1029.157	813.25
1029.37	758.25
1029.584	-2.75
1029.797	-2.75
1030.011	-1.75
1030.224	-1.75
