Data from QEP037381__153__13-52-34-872.txt Node

Date: Wed Dec 21 13:52:34 EST 2022
User: dcclab
Spectrometer: QEP03738
Trigger mode: 4
Integration Time (sec): 1.000000E1
Scans to average: 1
Electric dark correction enabled: true
Nonlinearity correction enabled: false
Boxcar width: 0
XAxis mode: Wavelengths
Number of Pixels in Spectrum: 1044
>>>>>Begin Spectral Data<<<<<
784.041	13.25
784.3	2.25
784.558	-3.75
784.817	-1.75
785.075	88881.25
785.334	15062.25
785.592	6966.25
785.851	4842.25
786.109	3615.25
786.368	2809.25
786.626	2255.25
786.884	1904.25
787.143	1572.25
787.401	1321.25
787.659	1209.25
787.917	1047.25
788.175	954.25
788.433	842.25
788.691	783.25
788.949	708.25
789.207	690.25
789.465	581.25
789.723	569.25
789.98	519.25
790.238	568.25
790.496	526.25
790.753	515.25
791.011	554.25
791.268	506.25
791.526	478.25
791.783	495.25
792.041	484.25
792.298	397.25
792.556	470.25
792.813	452.25
793.07	425.25
793.327	409.25
793.584	496.25
793.841	413.25
794.099	440.25
794.356	500.25
794.613	386.25
794.869	437.25
795.126	389.25
795.383	380.25
795.64	410.25
795.897	361.25
796.153	415.25
796.41	391.25
796.667	388.25
796.923	389.25
797.18	381.25
797.436	403.25
797.693	368.25
797.949	434.25
798.206	445.25
798.462	350.25
798.718	422.25
798.974	399.25
799.231	432.25
799.487	402.25
799.743	417.25
799.999	437.25
800.255	435.25
800.511	415.25
800.767	450.25
801.023	435.25
801.279	447.25
801.534	476.25
801.79	505.25
802.046	485.25
802.302	599.25
802.557	630.25
802.813	741.25
803.068	786.25
803.324	1100.25
803.579	1403.25
803.835	1872.25
804.09	2517.25
804.345	3233.25
804.601	4046.25
804.856	4840.25
805.111	5614.25
805.366	6131.25
805.621	6475.25
805.876	6697.25
806.131	6870.25
806.386	6970.25
806.641	7086.25
806.896	7200.25
807.151	7363.25
807.406	7361.25
807.661	7644.25
807.915	7713.25
808.17	7829.25
808.425	7940.25
808.679	8003.25
808.934	8086.25
809.188	8146.25
809.443	8237.25
809.697	8363.25
809.951	8395.25
810.206	8454.25
810.46	8590.25
810.714	8616.25
810.968	8754.25
811.223	8811.25
811.477	8925.25
811.731	9000.25
811.985	8981.25
812.239	9006.25
812.493	9110.25
812.747	9078.25
813	9090.25
813.254	9158.25
813.508	9222.25
813.762	9305.25
814.015	9335.25
814.269	9425.25
814.522	9463.25
814.776	9608.25
815.03	9736.25
815.283	9851.25
815.536	10072.25
815.79	10207.25
816.043	10330.25
816.296	10463.25
816.55	10609.25
816.803	10728.25
817.056	10899.25
817.309	11039.25
817.562	11092.25
817.815	11296.25
818.068	11305.25
818.321	11425.25
818.574	11592.25
818.827	11699.25
819.079	11905.25
819.332	12234.25
819.585	12329.25
819.838	12374.25
820.09	12506.25
820.343	12631.25
820.595	12662.25
820.848	12710.25
821.1	12809.25
821.353	12789.25
821.605	12769.25
821.857	12803.25
822.11	12732.25
822.362	12674.25
822.614	12698.25
822.866	12790.25
823.118	12694.25
823.37	12849.25
823.622	12901.25
823.874	12945.25
824.126	13032.25
824.378	13031.25
824.63	13078.25
824.882	13072.25
825.134	13067.25
825.385	13004.25
825.637	13013.25
825.888	12984.25
826.14	12893.25
826.392	12933.25
826.643	12819.25
826.895	12820.25
827.146	12735.25
827.397	12695.25
827.649	12854.25
827.9	12736.25
828.151	12725.25
828.402	12708.25
828.653	12812.25
828.905	12862.25
829.156	13002.25
829.407	12824.25
829.658	12928.25
829.909	13052.25
830.159	13110.25
830.41	13073.25
830.661	12986.25
830.912	12894.25
831.162	12769.25
831.413	12724.25
831.664	12823.25
831.914	12698.25
832.165	12794.25
832.415	12795.25
832.666	12877.25
832.916	12818.25
833.167	12888.25
833.417	12903.25
833.667	12825.25
833.917	12726.25
834.168	12836.25
834.418	12728.25
834.668	12718.25
834.918	12638.25
835.168	12682.25
835.418	12551.25
835.668	12609.25
835.918	12584.25
836.167	12577.25
836.417	12489.25
836.667	12421.25
836.917	12414.25
837.166	12513.25
837.416	12500.25
837.666	12578.25
837.915	12452.25
838.165	12432.25
838.414	12419.25
838.663	12411.25
838.913	12431.25
839.162	12423.25
839.411	12385.25
839.661	12396.25
839.91	12420.25
840.159	12428.25
840.408	12460.25
840.657	12477.25
840.906	12538.25
841.155	12541.25
841.404	12418.25
841.653	12528.25
841.902	12507.25
842.15	12605.25
842.399	12612.25
842.648	12582.25
842.897	12493.25
843.145	12508.25
843.394	12378.25
843.642	12261.25
843.891	12261.25
844.139	12243.25
844.388	12101.25
844.636	12035.25
844.884	12091.25
845.133	12075.25
845.381	12030.25
845.629	12155.25
845.877	12034.25
846.125	12073.25
846.373	12112.25
846.621	11976.25
846.869	12071.25
847.117	12099.25
847.365	11947.25
847.613	11902.25
847.861	11875.25
848.108	11986.25
848.356	11874.25
848.604	11899.25
848.851	11899.25
849.099	11951.25
849.346	11962.25
849.594	12081.25
849.841	12089.25
850.089	12077.25
850.336	12049.25
850.583	12155.25
850.831	12125.25
851.078	12046.25
851.325	11979.25
851.572	12149.25
851.819	11976.25
852.066	11726.25
852.313	11577.25
852.56	11447.25
852.807	11415.25
853.054	11420.25
853.301	11470.25
853.548	11492.25
853.794	11597.25
854.041	11596.25
854.288	11630.25
854.534	11861.25
854.781	11747.25
855.028	11787.25
855.274	11772.25
855.52	11679.25
855.767	11713.25
856.013	11784.25
856.26	12119.25
856.506	11610.25
856.752	11706.25
856.998	11550.25
857.244	11593.25
857.49	11725.25
857.736	11768.25
857.982	11789.25
858.228	11743.25
858.474	11542.25
858.72	11522.25
858.966	11315.25
859.212	11271.25
859.458	11239.25
859.703	11077.25
859.949	10944.25
860.195	10925.25
860.44	10882.25
860.686	10841.25
860.931	10875.25
861.177	10868.25
861.422	10744.25
861.667	10574.25
861.913	10664.25
862.158	10663.25
862.403	10695.25
862.648	10723.25
862.893	10820.25
863.138	10687.25
863.384	10691.25
863.629	10725.25
863.873	10769.25
864.118	10706.25
864.363	10601.25
864.608	10639.25
864.853	10662.25
865.098	10487.25
865.342	10500.25
865.587	10458.25
865.832	10463.25
866.076	10525.25
866.321	10404.25
866.565	10408.25
866.81	10283.25
867.054	10367.25
867.298	10331.25
867.543	10313.25
867.787	10336.25
868.031	10332.25
868.275	10311.25
868.519	10276.25
868.764	10363.25
869.008	10359.25
869.252	10376.25
869.496	10321.25
869.739	10347.25
869.983	10349.25
870.227	10506.25
870.471	10360.25
870.715	10539.25
870.958	10500.25
871.202	10511.25
871.446	10592.25
871.689	10609.25
871.933	10505.25
872.176	10517.25
872.42	10594.25
872.663	10584.25
872.906	10566.25
873.15	10581.25
873.393	10620.25
873.636	10711.25
873.879	10562.25
874.122	10478.25
874.366	10230.25
874.609	10086.25
874.852	10028.25
875.095	9966.25
875.337	9877.25
875.58	9789.25
875.823	9810.25
876.066	9782.25
876.309	9847.25
876.551	9678.25
876.794	9622.25
877.037	9646.25
877.279	9594.25
877.522	9570.25
877.764	9636.25
878.007	9578.25
878.249	9586.25
878.491	9490.25
878.734	9548.25
878.976	9433.25
879.218	9409.25
879.46	9385.25
879.702	9343.25
879.945	9213.25
880.187	9147.25
880.429	9161.25
880.671	9099.25
880.912	9044.25
881.154	9024.25
881.396	8891.25
881.638	8947.25
881.88	8998.25
882.121	9012.25
882.363	8974.25
882.605	9072.25
882.846	9044.25
883.088	9046.25
883.329	9103.25
883.571	9196.25
883.812	9446.25
884.053	9716.25
884.295	10053.25
884.536	10284.25
884.777	10239.25
885.018	10114.25
885.259	10090.25
885.5	9867.25
885.742	10131.25
885.982	9902.25
886.223	9702.25
886.464	9588.25
886.705	9397.25
886.946	9364.25
887.187	9073.25
887.428	9001.25
887.668	8778.25
887.909	8586.25
888.15	8499.25
888.39	8492.25
888.631	8439.25
888.871	8378.25
889.111	8226.25
889.352	8152.25
889.592	8003.25
889.833	8028.25
890.073	7982.25
890.313	8013.25
890.553	7832.25
890.793	7852.25
891.033	7770.25
891.273	7786.25
891.513	7706.25
891.753	7770.25
891.993	7760.25
892.233	7804.25
892.473	7842.25
892.713	7813.25
892.952	7783.25
893.192	7792.25
893.432	7790.25
893.671	7857.25
893.911	7793.25
894.15	7722.25
894.39	7547.25
894.629	7589.25
894.869	7594.25
895.108	7563.25
895.347	7517.25
895.587	7546.25
895.826	7550.25
896.065	7504.25
896.304	7534.25
896.543	7544.25
896.782	7364.25
897.021	7382.25
897.26	7404.25
897.499	7483.25
897.738	7518.25
897.977	7362.25
898.216	7332.25
898.454	7322.25
898.693	7260.25
898.932	7287.25
899.17	7238.25
899.409	7252.25
899.647	7214.25
899.886	7240.25
900.124	7297.25
900.363	7237.25
900.601	7297.25
900.839	7326.25
901.078	7445.25
901.316	7512.25
901.554	7541.25
901.792	7656.25
902.03	7568.25
902.268	7682.25
902.506	7680.25
902.744	7605.25
902.982	7588.25
903.22	7358.25
903.458	7258.25
903.695	7142.25
903.933	6988.25
904.171	6776.25
904.409	6718.25
904.646	6718.25
904.884	6559.25
905.121	6470.25
905.359	6436.25
905.596	6350.25
905.833	6267.25
906.071	6277.25
906.308	6284.25
906.545	6237.25
906.783	6216.25
907.02	6164.25
907.257	6110.25
907.494	6187.25
907.731	6150.25
907.968	6129.25
908.205	6053.25
908.442	6046.25
908.679	5990.25
908.915	5995.25
909.152	5963.25
909.389	5836.25
909.626	5836.25
909.862	5777.25
910.099	5813.25
910.335	5787.25
910.572	5648.25
910.808	5757.25
911.045	5683.25
911.281	5704.25
911.518	5675.25
911.754	5663.25
911.99	5681.25
912.226	5566.25
912.463	5504.25
912.699	5481.25
912.935	5466.25
913.171	5459.25
913.407	5363.25
913.643	5416.25
913.879	5345.25
914.114	5259.25
914.35	5167.25
914.586	5162.25
914.822	5160.25
915.057	5163.25
915.293	5032.25
915.529	5035.25
915.764	5113.25
916	5077.25
916.235	5062.25
916.471	5103.25
916.706	4912.25
916.941	5030.25
917.177	5011.25
917.412	5050.25
917.647	5041.25
917.882	4972.25
918.117	5045.25
918.352	5004.25
918.588	5012.25
918.823	4928.25
919.057	4903.25
919.292	4781.25
919.527	4862.25
919.762	4740.25
919.997	4780.25
920.232	4652.25
920.466	4753.25
920.701	4559.25
920.935	4616.25
921.17	4499.25
921.405	4587.25
921.639	4619.25
921.873	4509.25
922.108	4551.25
922.342	4550.25
922.576	4466.25
922.811	4464.25
923.045	4461.25
923.279	4507.25
923.513	4342.25
923.747	4421.25
923.981	4350.25
924.215	4362.25
924.449	4354.25
924.683	4231.25
924.917	4233.25
925.151	4237.25
925.385	4314.25
925.618	4230.25
925.852	4277.25
926.086	4169.25
926.319	4225.25
926.553	4218.25
926.786	4308.25
927.02	4218.25
927.253	4240.25
927.486	4214.25
927.72	4172.25
927.953	4278.25
928.186	4177.25
928.42	4211.25
928.653	4191.25
928.886	4115.25
929.119	4140.25
929.352	4126.25
929.585	4143.25
929.818	4089.25
930.051	4055.25
930.284	4026.25
930.516	3916.25
930.749	3954.25
930.982	3993.25
931.215	3947.25
931.447	3879.25
931.68	3892.25
931.912	3891.25
932.145	3873.25
932.377	3916.25
932.61	3991.25
932.842	3828.25
933.074	3909.25
933.307	3892.25
933.539	3947.25
933.771	3943.25
934.003	3875.25
934.236	3949.25
934.468	3960.25
934.7	3888.25
934.932	3938.25
935.164	3857.25
935.395	3855.25
935.627	3853.25
935.859	3892.25
936.091	3781.25
936.323	3840.25
936.554	3863.25
936.786	3804.25
937.017	3737.25
937.249	3826.25
937.481	3678.25
937.712	3783.25
937.943	3762.25
938.175	3720.25
938.406	3740.25
938.637	3811.25
938.869	3749.25
939.1	3787.25
939.331	3708.25
939.562	3736.25
939.793	3709.25
940.024	3733.25
940.255	3718.25
940.486	3681.25
940.717	3646.25
940.948	3675.25
941.179	3573.25
941.409	3641.25
941.64	3585.25
941.871	3604.25
942.102	3607.25
942.332	3623.25
942.563	3668.25
942.793	3616.25
943.024	3541.25
943.254	3576.25
943.484	3634.25
943.715	3674.25
943.945	3615.25
944.175	3560.25
944.405	3568.25
944.636	3604.25
944.866	3583.25
945.096	3621.25
945.326	3513.25
945.556	3566.25
945.786	3599.25
946.016	3578.25
946.245	3484.25
946.475	3504.25
946.705	3453.25
946.935	3482.25
947.164	3490.25
947.394	3425.25
947.624	3430.25
947.853	3459.25
948.083	3383.25
948.312	3424.25
948.542	3364.25
948.771	3322.25
949	3329.25
949.23	3322.25
949.459	3346.25
949.688	3393.25
949.917	3383.25
950.146	3355.25
950.375	3420.25
950.604	3309.25
950.833	3400.25
951.062	3415.25
951.291	3325.25
951.52	3296.25
951.749	3298.25
951.978	3259.25
952.206	3288.25
952.435	3257.25
952.664	3321.25
952.892	3301.25
953.121	3263.25
953.349	3301.25
953.578	3300.25
953.806	3226.25
954.035	3196.25
954.263	3215.25
954.491	3175.25
954.719	3237.25
954.948	3158.25
955.176	3145.25
955.404	3089.25
955.632	3164.25
955.86	3144.25
956.088	3108.25
956.316	3151.25
956.544	3171.25
956.772	3090.25
956.999	3055.25
957.227	3123.25
957.455	3026.25
957.683	3051.25
957.91	2974.25
958.138	3020.25
958.365	2997.25
958.593	3004.25
958.82	2918.25
959.048	2935.25
959.275	2970.25
959.502	2971.25
959.73	2955.25
959.957	2970.25
960.184	3012.25
960.411	2959.25
960.638	3054.25
960.865	2964.25
961.092	2963.25
961.319	2860.25
961.546	2936.25
961.773	2964.25
962	2909.25
962.227	2957.25
962.454	2944.25
962.68	2925.25
962.907	2950.25
963.134	2878.25
963.36	2885.25
963.587	2882.25
963.813	2809.25
964.04	2834.25
964.266	2792.25
964.493	2857.25
964.719	2832.25
964.945	2869.25
965.171	2741.25
965.398	2786.25
965.624	2800.25
965.85	2697.25
966.076	2710.25
966.302	2745.25
966.528	2693.25
966.754	2725.25
966.98	2742.25
967.206	2720.25
967.431	2630.25
967.657	2720.25
967.883	2685.25
968.109	2706.25
968.334	2673.25
968.56	2629.25
968.785	2664.25
969.011	2618.25
969.236	2670.25
969.462	2620.25
969.687	2628.25
969.912	2621.25
970.138	2671.25
970.363	2546.25
970.588	2596.25
970.813	2565.25
971.038	2518.25
971.263	2618.25
971.488	2596.25
971.713	2590.25
971.938	2572.25
972.163	2485.25
972.388	2506.25
972.613	2484.25
972.838	2501.25
973.062	2451.25
973.287	2460.25
973.512	2426.25
973.736	2478.25
973.961	2485.25
974.185	2436.25
974.41	2446.25
974.634	2353.25
974.858	2357.25
975.083	2420.25
975.307	2412.25
975.531	2364.25
975.755	2315.25
975.98	2307.25
976.204	2269.25
976.428	2309.25
976.652	2278.25
976.876	2291.25
977.1	2292.25
977.324	2271.25
977.547	2273.25
977.771	2295.25
977.995	2255.25
978.219	2213.25
978.442	2323.25
978.666	2256.25
978.89	2252.25
979.113	2228.25
979.337	2233.25
979.56	2212.25
979.783	2273.25
980.007	2209.25
980.23	2231.25
980.453	2173.25
980.677	2206.25
980.9	2204.25
981.123	2120.25
981.346	2212.25
981.569	2176.25
981.792	2198.25
982.015	2159.25
982.238	2100.25
982.461	2132.25
982.684	2113.25
982.907	2078.25
983.129	2086.25
983.352	2102.25
983.575	2097.25
983.797	2107.25
984.02	2059.25
984.242	2067.25
984.465	2063.25
984.687	2095.25
984.91	2093.25
985.132	2091.25
985.354	2071.25
985.577	2063.25
985.799	2031.25
986.021	1956.25
986.243	1998.25
986.465	2044.25
986.687	2059.25
986.909	2107.25
987.131	2022.25
987.353	1977.25
987.575	2016.25
987.797	1990.25
988.019	1896.25
988.241	1970.25
988.462	1923.25
988.684	2010.25
988.906	2014.25
989.127	2048.25
989.349	1934.25
989.57	1955.25
989.792	1964.25
990.013	1997.25
990.234	2019.25
990.456	2031.25
990.677	1988.25
990.898	1947.25
991.119	1942.25
991.341	1960.25
991.562	1886.25
991.783	1960.25
992.004	1907.25
992.225	1848.25
992.446	1962.25
992.667	1827.25
992.887	1901.25
993.108	1807.25
993.329	1917.25
993.55	1885.25
993.77	1797.25
993.991	1796.25
994.212	1851.25
994.432	1832.25
994.653	1847.25
994.873	1840.25
995.093	1738.25
995.314	1769.25
995.534	1875.25
995.754	1846.25
995.975	1890.25
996.195	1792.25
996.415	1817.25
996.635	1784.25
996.855	1825.25
997.075	1795.25
997.295	1824.25
997.515	1778.25
997.735	1866.25
997.955	1788.25
998.174	1800.25
998.394	1778.25
998.614	1820.25
998.834	1795.25
999.053	1843.25
999.273	1804.25
999.492	1824.25
999.712	1808.25
999.931	1764.25
1000.151	1814.25
1000.37	1751.25
1000.589	1816.25
1000.809	1698.25
1001.028	1849.25
1001.247	1765.25
1001.466	1652.25
1001.685	1798.25
1001.904	1752.25
1002.123	1699.25
1002.342	1703.25
1002.561	1677.25
1002.78	1708.25
1002.999	1759.25
1003.218	1688.25
1003.436	1673.25
1003.655	1706.25
1003.874	1652.25
1004.092	1688.25
1004.311	1699.25
1004.53	1672.25
1004.748	1762.25
1004.966	1684.25
1005.185	1733.25
1005.403	1729.25
1005.622	1698.25
1005.84	1769.25
1006.058	1696.25
1006.276	1692.25
1006.494	2190.25
1006.712	1695.25
1006.931	1779.25
1007.149	1753.25
1007.367	1734.25
1007.584	1754.25
1007.802	1809.25
1008.02	1775.25
1008.238	1892.25
1008.456	1914.25
1008.673	1783.25
1008.891	1937.25
1009.109	1909.25
1009.326	1999.25
1009.544	2129.25
1009.761	2054.25
1009.979	2247.25
1010.196	2308.25
1010.413	2493.25
1010.631	2650.25
1010.848	2752.25
1011.065	2786.25
1011.282	2733.25
1011.5	2687.25
1011.717	2746.25
1011.934	2699.25
1012.151	2724.25
1012.368	2725.25
1012.585	2666.25
1012.801	2710.25
1013.018	2649.25
1013.235	2638.25
1013.452	2705.25
1013.669	2722.25
1013.885	2695.25
1014.102	2784.25
1014.318	2799.25
1014.535	2727.25
1014.751	2761.25
1014.968	2721.25
1015.184	2750.25
1015.401	2635.25
1015.617	2647.25
1015.833	2591.25
1016.049	2535.25
1016.266	2549.25
1016.482	2518.25
1016.698	2422.25
1016.914	2498.25
1017.13	2421.25
1017.346	2428.25
1017.562	2444.25
1017.778	2380.25
1017.993	2317.25
1018.209	2395.25
1018.425	2365.25
1018.641	2328.25
1018.856	2297.25
1019.072	2348.25
1019.288	2372.25
1019.503	2345.25
1019.719	2257.25
1019.934	2264.25
1020.149	2318.25
1020.365	2240.25
1020.58	2116.25
1020.795	2156.25
1021.011	2068.25
1021.226	2006.25
1021.441	1984.25
1021.656	1900.25
1021.871	1796.25
1022.086	1809.25
1022.301	1739.25
1022.516	1717.25
1022.731	1783.25
1022.946	1679.25
1023.16	1623.25
1023.375	1577.25
1023.59	1539.25
1023.804	1492.25
1024.019	1586.25
1024.234	1428.25
1024.448	1455.25
1024.663	1331.25
1024.877	1347.25
1025.092	1353.25
1025.306	1340.25
1025.52	1227.25
1025.734	1284.25
1025.949	1201.25
1026.163	1147.25
1026.377	1119.25
1026.591	1125.25
1026.805	1075.25
1027.019	1026.25
1027.233	1011.25
1027.447	967.25
1027.661	1031.25
1027.875	989.25
1028.088	988.25
1028.302	891.25
1028.516	900.25
1028.73	872.25
1028.943	861.25
1029.157	786.25
1029.37	750.25
1029.584	-2.75
1029.797	-1.75
1030.011	-2.75
1030.224	-2.75
