Data from QEP037381__115__13-46-14-890.txt Node

Date: Wed Dec 21 13:46:14 EST 2022
User: dcclab
Spectrometer: QEP03738
Trigger mode: 4
Integration Time (sec): 1.000000E1
Scans to average: 1
Electric dark correction enabled: true
Nonlinearity correction enabled: false
Boxcar width: 0
XAxis mode: Wavelengths
Number of Pixels in Spectrum: 1044
>>>>>Begin Spectral Data<<<<<
784.041	12.12
784.3	1.12
784.558	-2.88
784.817	-2.88
785.075	83794.12
785.334	14521.12
785.592	6753.12
785.851	4667.12
786.109	3523.12
786.368	2765.12
786.626	2242.12
786.884	1884.12
787.143	1572.12
787.401	1314.12
787.659	1196.12
787.917	1035.12
788.175	959.12
788.433	842.12
788.691	746.12
788.949	707.12
789.207	669.12
789.465	583.12
789.723	573.12
789.98	536.12
790.238	573.12
790.496	536.12
790.753	497.12
791.011	563.12
791.268	482.12
791.526	488.12
791.783	493.12
792.041	478.12
792.298	403.12
792.556	457.12
792.813	449.12
793.07	439.12
793.327	409.12
793.584	486.12
793.841	424.12
794.099	443.12
794.356	499.12
794.613	404.12
794.869	438.12
795.126	412.12
795.383	395.12
795.64	409.12
795.897	350.12
796.153	420.12
796.41	397.12
796.667	379.12
796.923	386.12
797.18	390.12
797.436	416.12
797.693	371.12
797.949	428.12
798.206	457.12
798.462	369.12
798.718	424.12
798.974	399.12
799.231	447.12
799.487	429.12
799.743	435.12
799.999	444.12
800.255	453.12
800.511	422.12
800.767	472.12
801.023	456.12
801.279	477.12
801.534	498.12
801.79	532.12
802.046	520.12
802.302	624.12
802.557	675.12
802.813	807.12
803.068	926.12
803.324	1276.12
803.579	1607.12
803.835	2189.12
804.09	2939.12
804.345	3715.12
804.601	4626.12
804.856	5574.12
805.111	6329.12
805.366	6982.12
805.621	7491.12
805.876	7788.12
806.131	7988.12
806.386	8178.12
806.641	8303.12
806.896	8419.12
807.151	8612.12
807.406	8723.12
807.661	8889.12
807.915	9003.12
808.17	9158.12
808.425	9212.12
808.679	9331.12
808.934	9436.12
809.188	9519.12
809.443	9747.12
809.697	9829.12
809.951	9795.12
810.206	9920.12
810.46	10071.12
810.714	10104.12
810.968	10185.12
811.223	10278.12
811.477	10342.12
811.731	10440.12
811.985	10385.12
812.239	10483.12
812.493	10550.12
812.747	10614.12
813	10550.12
813.254	10694.12
813.508	10765.12
813.762	10696.12
814.015	10724.12
814.269	10896.12
814.522	10944.12
814.776	11102.12
815.03	11225.12
815.283	11332.12
815.536	11583.12
815.79	11793.12
816.043	11931.12
816.296	12070.12
816.55	12218.12
816.803	12326.12
817.056	12599.12
817.309	12642.12
817.562	12716.12
817.815	12926.12
818.068	12948.12
818.321	13067.12
818.574	13254.12
818.827	13450.12
819.079	13637.12
819.332	13971.12
819.585	14136.12
819.838	14305.12
820.09	14158.12
820.343	14319.12
820.595	14372.12
820.848	14463.12
821.1	14536.12
821.353	14564.12
821.605	14426.12
821.857	14430.12
822.11	14333.12
822.362	14336.12
822.614	14367.12
822.866	14378.12
823.118	14310.12
823.37	14534.12
823.622	14525.12
823.874	14598.12
824.126	14581.12
824.378	14609.12
824.63	14618.12
824.882	14648.12
825.134	14656.12
825.385	14568.12
825.637	14565.12
825.888	14501.12
826.14	14496.12
826.392	14439.12
826.643	14327.12
826.895	14313.12
827.146	14218.12
827.397	14187.12
827.649	14257.12
827.9	14203.12
828.151	14186.12
828.402	14281.12
828.653	14335.12
828.905	14321.12
829.156	14420.12
829.407	14377.12
829.658	14538.12
829.909	14717.12
830.159	14808.12
830.41	14715.12
830.661	14499.12
830.912	14339.12
831.162	14415.12
831.413	14310.12
831.664	14396.12
831.914	14242.12
832.165	14257.12
832.415	14333.12
832.666	14319.12
832.916	14460.12
833.167	14259.12
833.417	14384.12
833.667	14255.12
833.917	14103.12
834.168	14237.12
834.418	14105.12
834.668	14070.12
834.918	13999.12
835.168	14002.12
835.418	13863.12
835.668	13855.12
835.918	13891.12
836.167	13825.12
836.417	13718.12
836.667	13802.12
836.917	13849.12
837.166	13821.12
837.416	13934.12
837.666	13951.12
837.915	13922.12
838.165	13848.12
838.414	13735.12
838.663	13834.12
838.913	13815.12
839.162	13822.12
839.411	13865.12
839.661	13815.12
839.91	13737.12
840.159	13813.12
840.408	13803.12
840.657	13891.12
840.906	13811.12
841.155	13924.12
841.404	13834.12
841.653	13841.12
841.902	13906.12
842.15	14044.12
842.399	14001.12
842.648	13986.12
842.897	13997.12
843.145	13813.12
843.394	13829.12
843.642	13681.12
843.891	13627.12
844.139	13460.12
844.388	13380.12
844.636	13293.12
844.884	13400.12
845.133	13365.12
845.381	13462.12
845.629	13411.12
845.877	13312.12
846.125	13336.12
846.373	13366.12
846.621	13214.12
846.869	13231.12
847.117	13200.12
847.365	13090.12
847.613	13086.12
847.861	13068.12
848.108	13109.12
848.356	13128.12
848.604	13120.12
848.851	13069.12
849.099	13071.12
849.346	13131.12
849.594	13197.12
849.841	13285.12
850.089	13221.12
850.336	13300.12
850.583	13396.12
850.831	13334.12
851.078	13263.12
851.325	13203.12
851.572	13296.12
851.819	13195.12
852.066	12886.12
852.313	12782.12
852.56	12568.12
852.807	12560.12
853.054	12531.12
853.301	12581.12
853.548	12577.12
853.794	12755.12
854.041	12699.12
854.288	12785.12
854.534	12953.12
854.781	12920.12
855.028	12861.12
855.274	12954.12
855.52	12998.12
855.767	12951.12
856.013	13211.12
856.26	13380.12
856.506	12801.12
856.752	12822.12
856.998	12784.12
857.244	12747.12
857.49	12982.12
857.736	12955.12
857.982	12941.12
858.228	12886.12
858.474	12707.12
858.72	12638.12
858.966	12442.12
859.212	12356.12
859.458	12217.12
859.703	12086.12
859.949	11911.12
860.195	11840.12
860.44	11826.12
860.686	11850.12
860.931	11954.12
861.177	11765.12
861.422	11753.12
861.667	11528.12
861.913	11488.12
862.158	11486.12
862.403	11572.12
862.648	11540.12
862.893	11550.12
863.138	11534.12
863.384	11565.12
863.629	11541.12
863.873	11515.12
864.118	11491.12
864.363	11488.12
864.608	11485.12
864.853	11438.12
865.098	11349.12
865.342	11310.12
865.587	11202.12
865.832	11243.12
866.076	11178.12
866.321	11147.12
866.565	11139.12
866.81	11006.12
867.054	11163.12
867.298	11061.12
867.543	11039.12
867.787	11023.12
868.031	11055.12
868.275	11008.12
868.519	10996.12
868.764	11044.12
869.008	11075.12
869.252	11109.12
869.496	11060.12
869.739	11128.12
869.983	11158.12
870.227	11239.12
870.471	11221.12
870.715	11232.12
870.958	11460.12
871.202	11456.12
871.446	11482.12
871.689	11386.12
871.933	11417.12
872.176	11409.12
872.42	11351.12
872.663	11357.12
872.906	11512.12
873.15	11455.12
873.393	11601.12
873.636	11690.12
873.879	11593.12
874.122	11355.12
874.366	11064.12
874.609	10948.12
874.852	10768.12
875.095	10653.12
875.337	10605.12
875.58	10509.12
875.823	10496.12
876.066	10516.12
876.309	10505.12
876.551	10294.12
876.794	10185.12
877.037	10403.12
877.279	10209.12
877.522	10242.12
877.764	10225.12
878.007	10103.12
878.249	10181.12
878.491	10077.12
878.734	10045.12
878.976	10081.12
879.218	9905.12
879.46	9949.12
879.702	9843.12
879.945	9783.12
880.187	9720.12
880.429	9561.12
880.671	9532.12
880.912	9517.12
881.154	9450.12
881.396	9431.12
881.638	9521.12
881.88	9453.12
882.121	9427.12
882.363	9509.12
882.605	9465.12
882.846	9564.12
883.088	9543.12
883.329	9620.12
883.571	9822.12
883.812	10095.12
884.053	10538.12
884.295	11049.12
884.536	11422.12
884.777	11235.12
885.018	11030.12
885.259	10979.12
885.5	10779.12
885.742	10905.12
885.982	10705.12
886.223	10542.12
886.464	10352.12
886.705	10139.12
886.946	9947.12
887.187	9648.12
887.428	9500.12
887.668	9205.12
887.909	8893.12
888.15	8885.12
888.39	8831.12
888.631	8720.12
888.871	8573.12
889.111	8503.12
889.352	8475.12
889.592	8340.12
889.833	8269.12
890.073	8182.12
890.313	8244.12
890.553	8077.12
890.793	8074.12
891.033	8048.12
891.273	7949.12
891.513	7944.12
891.753	8013.12
891.993	8003.12
892.233	7984.12
892.473	8024.12
892.713	8024.12
892.952	7913.12
893.192	7988.12
893.432	7960.12
893.671	7972.12
893.911	7896.12
894.15	7924.12
894.39	7839.12
894.629	7751.12
894.869	7788.12
895.108	7779.12
895.347	7641.12
895.587	7693.12
895.826	7638.12
896.065	7617.12
896.304	7635.12
896.543	7698.12
896.782	7612.12
897.021	7596.12
897.26	7600.12
897.499	7646.12
897.738	7650.12
897.977	7569.12
898.216	7503.12
898.454	7444.12
898.693	7396.12
898.932	7461.12
899.17	7431.12
899.409	7411.12
899.647	7319.12
899.886	7304.12
900.124	7440.12
900.363	7432.12
900.601	7495.12
900.839	7519.12
901.078	7629.12
901.316	7723.12
901.554	7847.12
901.792	7923.12
902.03	7926.12
902.268	7961.12
902.506	8006.12
902.744	7842.12
902.982	7835.12
903.22	7595.12
903.458	7466.12
903.695	7301.12
903.933	7122.12
904.171	6884.12
904.409	6807.12
904.646	6734.12
904.884	6582.12
905.121	6543.12
905.359	6508.12
905.596	6427.12
905.833	6282.12
906.071	6333.12
906.308	6291.12
906.545	6280.12
906.783	6211.12
907.02	6238.12
907.257	6172.12
907.494	6190.12
907.731	6179.12
907.968	6200.12
908.205	6128.12
908.442	6035.12
908.679	6015.12
908.915	5992.12
909.152	5964.12
909.389	5896.12
909.626	5815.12
909.862	5762.12
910.099	5782.12
910.335	5791.12
910.572	5704.12
910.808	5746.12
911.045	5656.12
911.281	5637.12
911.518	5711.12
911.754	5606.12
911.99	5548.12
912.226	5553.12
912.463	5405.12
912.699	5444.12
912.935	5423.12
913.171	5389.12
913.407	5303.12
913.643	5414.12
913.879	5227.12
914.114	5201.12
914.35	5117.12
914.586	5171.12
914.822	5074.12
915.057	5145.12
915.293	4997.12
915.529	5005.12
915.764	5057.12
916	5001.12
916.235	5013.12
916.471	5002.12
916.706	4973.12
916.941	4955.12
917.177	4899.12
917.412	4937.12
917.647	4949.12
917.882	4884.12
918.117	4948.12
918.352	4903.12
918.588	4934.12
918.823	4807.12
919.057	4797.12
919.292	4678.12
919.527	4798.12
919.762	4682.12
919.997	4699.12
920.232	4574.12
920.466	4567.12
920.701	4510.12
920.935	4536.12
921.17	4499.12
921.405	4385.12
921.639	4468.12
921.873	4417.12
922.108	4417.12
922.342	4463.12
922.576	4348.12
922.811	4344.12
923.045	4372.12
923.279	4395.12
923.513	4304.12
923.747	4332.12
923.981	4300.12
924.215	4218.12
924.449	4205.12
924.683	4160.12
924.917	4123.12
925.151	4171.12
925.385	4234.12
925.618	4117.12
925.852	4130.12
926.086	4077.12
926.319	4023.12
926.553	4102.12
926.786	4125.12
927.02	4103.12
927.253	4140.12
927.486	4100.12
927.72	4019.12
927.953	4078.12
928.186	4025.12
928.42	4081.12
928.653	4002.12
928.886	3987.12
929.119	4037.12
929.352	3956.12
929.585	3911.12
929.818	3912.12
930.051	3942.12
930.284	3915.12
930.516	3807.12
930.749	3797.12
930.982	3838.12
931.215	3802.12
931.447	3725.12
931.68	3766.12
931.912	3740.12
932.145	3728.12
932.377	3802.12
932.61	3845.12
932.842	3676.12
933.074	3775.12
933.307	3695.12
933.539	3777.12
933.771	3755.12
934.003	3732.12
934.236	3820.12
934.468	3797.12
934.7	3678.12
934.932	3750.12
935.164	3691.12
935.395	3669.12
935.627	3738.12
935.859	3685.12
936.091	3595.12
936.323	3673.12
936.554	3707.12
936.786	3606.12
937.017	3550.12
937.249	3598.12
937.481	3521.12
937.712	3632.12
937.943	3584.12
938.175	3590.12
938.406	3541.12
938.637	3629.12
938.869	3508.12
939.1	3537.12
939.331	3541.12
939.562	3569.12
939.793	3528.12
940.024	3559.12
940.255	3512.12
940.486	3485.12
940.717	3441.12
940.948	3467.12
941.179	3408.12
941.409	3398.12
941.64	3417.12
941.871	3446.12
942.102	3390.12
942.332	3427.12
942.563	3444.12
942.793	3420.12
943.024	3379.12
943.254	3408.12
943.484	3420.12
943.715	3424.12
943.945	3399.12
944.175	3378.12
944.405	3335.12
944.636	3356.12
944.866	3373.12
945.096	3386.12
945.326	3344.12
945.556	3375.12
945.786	3395.12
946.016	3302.12
946.245	3262.12
946.475	3252.12
946.705	3253.12
946.935	3254.12
947.164	3234.12
947.394	3201.12
947.624	3191.12
947.853	3239.12
948.083	3205.12
948.312	3148.12
948.542	3088.12
948.771	3138.12
949	3087.12
949.23	3114.12
949.459	3147.12
949.688	3179.12
949.917	3109.12
950.146	3122.12
950.375	3161.12
950.604	3081.12
950.833	3129.12
951.062	3126.12
951.291	3067.12
951.52	3063.12
951.749	3123.12
951.978	3022.12
952.206	3029.12
952.435	3038.12
952.664	3066.12
952.892	3042.12
953.121	3043.12
953.349	3038.12
953.578	3032.12
953.806	3017.12
954.035	2953.12
954.263	2964.12
954.491	2923.12
954.719	2933.12
954.948	2923.12
955.176	2895.12
955.404	2825.12
955.632	2929.12
955.86	2881.12
956.088	2909.12
956.316	2906.12
956.544	2887.12
956.772	2828.12
956.999	2826.12
957.227	2890.12
957.455	2788.12
957.683	2810.12
957.91	2768.12
958.138	2744.12
958.365	2777.12
958.593	2720.12
958.82	2647.12
959.048	2732.12
959.275	2685.12
959.502	2710.12
959.73	2704.12
959.957	2685.12
960.184	2711.12
960.411	2640.12
960.638	2740.12
960.865	2677.12
961.092	2711.12
961.319	2587.12
961.546	2672.12
961.773	2689.12
962	2634.12
962.227	2693.12
962.454	2670.12
962.68	2609.12
962.907	2656.12
963.134	2593.12
963.36	2620.12
963.587	2635.12
963.813	2534.12
964.04	2572.12
964.266	2515.12
964.493	2587.12
964.719	2546.12
964.945	2552.12
965.171	2479.12
965.398	2539.12
965.624	2519.12
965.85	2419.12
966.076	2472.12
966.302	2539.12
966.528	2449.12
966.754	2479.12
966.98	2461.12
967.206	2460.12
967.431	2360.12
967.657	2454.12
967.883	2413.12
968.109	2428.12
968.334	2391.12
968.56	2348.12
968.785	2360.12
969.011	2319.12
969.236	2393.12
969.462	2325.12
969.687	2350.12
969.912	2409.12
970.138	2389.12
970.363	2306.12
970.588	2368.12
970.813	2306.12
971.038	2277.12
971.263	2291.12
971.488	2322.12
971.713	2373.12
971.938	2332.12
972.163	2260.12
972.388	2279.12
972.613	2255.12
972.838	2252.12
973.062	2230.12
973.287	2218.12
973.512	2147.12
973.736	2187.12
973.961	2215.12
974.185	2163.12
974.41	2206.12
974.634	2087.12
974.858	2119.12
975.083	2159.12
975.307	2186.12
975.531	2091.12
975.755	2051.12
975.98	2078.12
976.204	2022.12
976.428	2008.12
976.652	2015.12
976.876	2021.12
977.1	2039.12
977.324	1991.12
977.547	2045.12
977.771	2038.12
977.995	2000.12
978.219	1947.12
978.442	2083.12
978.666	2032.12
978.89	2013.12
979.113	2005.12
979.337	1969.12
979.56	1951.12
979.783	2036.12
980.007	1934.12
980.23	1997.12
980.453	1924.12
980.677	1975.12
980.9	1955.12
981.123	1833.12
981.346	1964.12
981.569	1913.12
981.792	1970.12
982.015	1894.12
982.238	1876.12
982.461	1898.12
982.684	1870.12
982.907	1843.12
983.129	1834.12
983.352	1890.12
983.575	1870.12
983.797	1847.12
984.02	1799.12
984.242	1818.12
984.465	1808.12
984.687	1843.12
984.91	1858.12
985.132	1836.12
985.354	1845.12
985.577	1835.12
985.799	1792.12
986.021	1744.12
986.243	1752.12
986.465	1772.12
986.687	1810.12
986.909	1815.12
987.131	1787.12
987.353	1757.12
987.575	1771.12
987.797	1730.12
988.019	1676.12
988.241	1747.12
988.462	1706.12
988.684	1733.12
988.906	1784.12
989.127	1822.12
989.349	1680.12
989.57	1731.12
989.792	1768.12
990.013	1801.12
990.234	1797.12
990.456	1781.12
990.677	1771.12
990.898	1713.12
991.119	1728.12
991.341	1753.12
991.562	1663.12
991.783	1688.12
992.004	1659.12
992.225	1630.12
992.446	1697.12
992.667	1614.12
992.887	1682.12
993.108	1585.12
993.329	1712.12
993.55	1633.12
993.77	1594.12
993.991	1598.12
994.212	1627.12
994.432	1622.12
994.653	1623.12
994.873	1642.12
995.093	1547.12
995.314	1551.12
995.534	1638.12
995.754	1647.12
995.975	1657.12
996.195	1557.12
996.415	1602.12
996.635	1609.12
996.855	1610.12
997.075	1583.12
997.295	1572.12
997.515	1578.12
997.735	1630.12
997.955	1609.12
998.174	1604.12
998.394	1563.12
998.614	1623.12
998.834	1595.12
999.053	1645.12
999.273	1590.12
999.492	1649.12
999.712	1566.12
999.931	1541.12
1000.151	1575.12
1000.37	1533.12
1000.589	1578.12
1000.809	1522.12
1001.028	1637.12
1001.247	1551.12
1001.466	1435.12
1001.685	1596.12
1001.904	1529.12
1002.123	1533.12
1002.342	1511.12
1002.561	1459.12
1002.78	1494.12
1002.999	1591.12
1003.218	1496.12
1003.436	1498.12
1003.655	1526.12
1003.874	1466.12
1004.092	1480.12
1004.311	1513.12
1004.53	1516.12
1004.748	1561.12
1004.966	1477.12
1005.185	1530.12
1005.403	1558.12
1005.622	1509.12
1005.84	1604.12
1006.058	1504.12
1006.276	1502.12
1006.494	1987.12
1006.712	1525.12
1006.931	1594.12
1007.149	1490.12
1007.367	1541.12
1007.584	1541.12
1007.802	1612.12
1008.02	1542.12
1008.238	1681.12
1008.456	1670.12
1008.673	1567.12
1008.891	1710.12
1009.109	1655.12
1009.326	1750.12
1009.544	1841.12
1009.761	1817.12
1009.979	1947.12
1010.196	1995.12
1010.413	2173.12
1010.631	2284.12
1010.848	2369.12
1011.065	2394.12
1011.282	2343.12
1011.5	2272.12
1011.717	2398.12
1011.934	2297.12
1012.151	2359.12
1012.368	2322.12
1012.585	2241.12
1012.801	2312.12
1013.018	2272.12
1013.235	2234.12
1013.452	2307.12
1013.669	2271.12
1013.885	2324.12
1014.102	2350.12
1014.318	2324.12
1014.535	2282.12
1014.751	2310.12
1014.968	2312.12
1015.184	2323.12
1015.401	2180.12
1015.617	2257.12
1015.833	2179.12
1016.049	2154.12
1016.266	2161.12
1016.482	2135.12
1016.698	2048.12
1016.914	2103.12
1017.13	2023.12
1017.346	2001.12
1017.562	2088.12
1017.778	1986.12
1017.993	1967.12
1018.209	2031.12
1018.425	1962.12
1018.641	1957.12
1018.856	1939.12
1019.072	1946.12
1019.288	2013.12
1019.503	1932.12
1019.719	1879.12
1019.934	1855.12
1020.149	1926.12
1020.365	1849.12
1020.58	1786.12
1020.795	1800.12
1021.011	1718.12
1021.226	1688.12
1021.441	1668.12
1021.656	1576.12
1021.871	1525.12
1022.086	1490.12
1022.301	1486.12
1022.516	1453.12
1022.731	1496.12
1022.946	1390.12
1023.16	1370.12
1023.375	1330.12
1023.59	1319.12
1023.804	1259.12
1024.019	1338.12
1024.234	1199.12
1024.448	1229.12
1024.663	1145.12
1024.877	1147.12
1025.092	1145.12
1025.306	1150.12
1025.52	1020.12
1025.734	1105.12
1025.949	1016.12
1026.163	994.12
1026.377	936.12
1026.591	999.12
1026.805	918.12
1027.019	877.12
1027.233	843.12
1027.447	772.12
1027.661	878.12
1027.875	833.12
1028.088	845.12
1028.302	772.12
1028.516	761.12
1028.73	719.12
1028.943	746.12
1029.157	675.12
1029.37	656.12
1029.584	0.12
1029.797	-0.88
1030.011	-4.88
1030.224	-1.88
