Data from QEP037381__134__13-49-24-881.txt Node

Date: Wed Dec 21 13:49:24 EST 2022
User: dcclab
Spectrometer: QEP03738
Trigger mode: 4
Integration Time (sec): 1.000000E1
Scans to average: 1
Electric dark correction enabled: true
Nonlinearity correction enabled: false
Boxcar width: 0
XAxis mode: Wavelengths
Number of Pixels in Spectrum: 1044
>>>>>Begin Spectral Data<<<<<
784.041	13.62
784.3	1.62
784.558	-4.38
784.817	-2.38
785.075	86780.62
785.334	15034.62
785.592	7026.62
785.851	4889.62
786.109	3684.62
786.368	2848.62
786.626	2318.62
786.884	1931.62
787.143	1642.62
787.401	1319.62
787.659	1223.62
787.917	1060.62
788.175	975.62
788.433	856.62
788.691	793.62
788.949	720.62
789.207	706.62
789.465	581.62
789.723	583.62
789.98	530.62
790.238	575.62
790.496	546.62
790.753	512.62
791.011	558.62
791.268	509.62
791.526	500.62
791.783	494.62
792.041	488.62
792.298	399.62
792.556	461.62
792.813	450.62
793.07	433.62
793.327	429.62
793.584	505.62
793.841	408.62
794.099	432.62
794.356	482.62
794.613	402.62
794.869	439.62
795.126	399.62
795.383	384.62
795.64	385.62
795.897	354.62
796.153	422.62
796.41	417.62
796.667	376.62
796.923	386.62
797.18	392.62
797.436	411.62
797.693	386.62
797.949	426.62
798.206	463.62
798.462	366.62
798.718	418.62
798.974	417.62
799.231	452.62
799.487	439.62
799.743	431.62
799.999	443.62
800.255	439.62
800.511	430.62
800.767	462.62
801.023	449.62
801.279	465.62
801.534	509.62
801.79	515.62
802.046	536.62
802.302	609.62
802.557	665.62
802.813	784.62
803.068	903.62
803.324	1188.62
803.579	1569.62
803.835	2101.62
804.09	2844.62
804.345	3661.62
804.601	4613.62
804.856	5532.62
805.111	6401.62
805.366	7058.62
805.621	7515.62
805.876	7842.62
806.131	8010.62
806.386	8167.62
806.641	8370.62
806.896	8437.62
807.151	8650.62
807.406	8787.62
807.661	8963.62
807.915	9110.62
808.17	9232.62
808.425	9356.62
808.679	9426.62
808.934	9580.62
809.188	9621.62
809.443	9742.62
809.697	9896.62
809.951	9996.62
810.206	10002.62
810.46	10167.62
810.714	10229.62
810.968	10413.62
811.223	10429.62
811.477	10496.62
811.731	10648.62
811.985	10615.62
812.239	10705.62
812.493	10710.62
812.747	10709.62
813	10853.62
813.254	10861.62
813.508	10899.62
813.762	10963.62
814.015	11058.62
814.269	11160.62
814.522	11297.62
814.776	11456.62
815.03	11532.62
815.283	11678.62
815.536	11844.62
815.79	12051.62
816.043	12188.62
816.296	12386.62
816.55	12552.62
816.803	12707.62
817.056	12988.62
817.309	13020.62
817.562	13197.62
817.815	13354.62
818.068	13408.62
818.321	13564.62
818.574	13686.62
818.827	13867.62
819.079	13990.62
819.332	14443.62
819.585	14565.62
819.838	14727.62
820.09	14801.62
820.343	14874.62
820.595	14850.62
820.848	15058.62
821.1	15101.62
821.353	15117.62
821.605	15110.62
821.857	15030.62
822.11	14962.62
822.362	14914.62
822.614	14930.62
822.866	15000.62
823.118	14958.62
823.37	15156.62
823.622	15165.62
823.874	15244.62
824.126	15337.62
824.378	15276.62
824.63	15365.62
824.882	15342.62
825.134	15338.62
825.385	15325.62
825.637	15368.62
825.888	15257.62
826.14	15212.62
826.392	15193.62
826.643	15062.62
826.895	15067.62
827.146	14979.62
827.397	14957.62
827.649	14914.62
827.9	14965.62
828.151	14931.62
828.402	15004.62
828.653	15092.62
828.905	15123.62
829.156	15184.62
829.407	15106.62
829.658	15284.62
829.909	15417.62
830.159	15424.62
830.41	15358.62
830.661	15195.62
830.912	15086.62
831.162	15200.62
831.413	15165.62
831.664	15143.62
831.914	15223.62
832.165	15117.62
832.415	15081.62
832.666	15113.62
832.916	15154.62
833.167	15100.62
833.417	15140.62
833.667	15130.62
833.917	14985.62
834.168	14939.62
834.418	15044.62
834.668	14883.62
834.918	14913.62
835.168	14816.62
835.418	14759.62
835.668	14789.62
835.918	14736.62
836.167	14604.62
836.417	14615.62
836.667	14661.62
836.917	14680.62
837.166	14643.62
837.416	14782.62
837.666	14782.62
837.915	14717.62
838.165	14668.62
838.414	14652.62
838.663	14628.62
838.913	14678.62
839.162	14702.62
839.411	14709.62
839.661	14607.62
839.91	14646.62
840.159	14719.62
840.408	14793.62
840.657	14736.62
840.906	14760.62
841.155	14777.62
841.404	14755.62
841.653	14763.62
841.902	14807.62
842.15	14850.62
842.399	14905.62
842.648	14897.62
842.897	14827.62
843.145	14685.62
843.394	14690.62
843.642	14454.62
843.891	14562.62
844.139	14410.62
844.388	14334.62
844.636	14168.62
844.884	14262.62
845.133	14185.62
845.381	14296.62
845.629	14293.62
845.877	14309.62
846.125	14312.62
846.373	14371.62
846.621	14221.62
846.869	14217.62
847.117	14158.62
847.365	14066.62
847.613	13979.62
847.861	14060.62
848.108	14078.62
848.356	14003.62
848.604	13921.62
848.851	14013.62
849.099	14012.62
849.346	14146.62
849.594	14167.62
849.841	14237.62
850.089	14304.62
850.336	14346.62
850.583	14503.62
850.831	14415.62
851.078	14329.62
851.325	14301.62
851.572	14352.62
851.819	14180.62
852.066	13804.62
852.313	13610.62
852.56	13438.62
852.807	13555.62
853.054	13409.62
853.301	13502.62
853.548	13503.62
853.794	13683.62
854.041	13728.62
854.288	13755.62
854.534	13935.62
854.781	13897.62
855.028	13907.62
855.274	13886.62
855.52	13847.62
855.767	13830.62
856.013	13921.62
856.26	14162.62
856.506	13730.62
856.752	13667.62
856.998	13654.62
857.244	13755.62
857.49	13919.62
857.736	13894.62
857.982	13926.62
858.228	13824.62
858.474	13680.62
858.72	13698.62
858.966	13442.62
859.212	13283.62
859.458	13141.62
859.703	13015.62
859.949	12887.62
860.195	12900.62
860.44	12810.62
860.686	12824.62
860.931	12859.62
861.177	12749.62
861.422	12674.62
861.667	12449.62
861.913	12431.62
862.158	12489.62
862.403	12553.62
862.648	12566.62
862.893	12534.62
863.138	12599.62
863.384	12563.62
863.629	12593.62
863.873	12585.62
864.118	12523.62
864.363	12568.62
864.608	12476.62
864.853	12397.62
865.098	12338.62
865.342	12281.62
865.587	12278.62
865.832	12349.62
866.076	12282.62
866.321	12180.62
866.565	12293.62
866.81	12179.62
867.054	12227.62
867.298	12097.62
867.543	12114.62
867.787	12061.62
868.031	12240.62
868.275	12155.62
868.519	12097.62
868.764	12186.62
869.008	12090.62
869.252	12215.62
869.496	12137.62
869.739	12218.62
869.983	12242.62
870.227	12282.62
870.471	12270.62
870.715	12349.62
870.958	12491.62
871.202	12431.62
871.446	12537.62
871.689	12487.62
871.933	12494.62
872.176	12478.62
872.42	12414.62
872.663	12432.62
872.906	12439.62
873.15	12470.62
873.393	12480.62
873.636	12638.62
873.879	12502.62
874.122	12284.62
874.366	12041.62
874.609	11934.62
874.852	11852.62
875.095	11762.62
875.337	11658.62
875.58	11528.62
875.823	11537.62
876.066	11497.62
876.309	11536.62
876.551	11372.62
876.794	11281.62
877.037	11430.62
877.279	11290.62
877.522	11213.62
877.764	11224.62
878.007	11210.62
878.249	11247.62
878.491	11170.62
878.734	11161.62
878.976	11139.62
879.218	11007.62
879.46	11047.62
879.702	10915.62
879.945	10832.62
880.187	10687.62
880.429	10697.62
880.671	10592.62
880.912	10612.62
881.154	10537.62
881.396	10469.62
881.638	10611.62
881.88	10603.62
882.121	10550.62
882.363	10603.62
882.605	10581.62
882.846	10575.62
883.088	10603.62
883.329	10655.62
883.571	10799.62
883.812	11024.62
884.053	11466.62
884.295	11791.62
884.536	12098.62
884.777	12031.62
885.018	11953.62
885.259	11829.62
885.5	11666.62
885.742	11927.62
885.982	11648.62
886.223	11402.62
886.464	11307.62
886.705	11148.62
886.946	10875.62
887.187	10650.62
887.428	10552.62
887.668	10234.62
887.909	10003.62
888.15	9862.62
888.39	9818.62
888.631	9837.62
888.871	9659.62
889.111	9628.62
889.352	9489.62
889.592	9398.62
889.833	9283.62
890.073	9255.62
890.313	9300.62
890.553	9197.62
890.793	9121.62
891.033	9013.62
891.273	9076.62
891.513	8992.62
891.753	9009.62
891.993	8947.62
892.233	9080.62
892.473	9055.62
892.713	9088.62
892.952	9034.62
893.192	9079.62
893.432	9034.62
893.671	9134.62
893.911	8992.62
894.15	8992.62
894.39	8881.62
894.629	8910.62
894.869	8849.62
895.108	8795.62
895.347	8767.62
895.587	8757.62
895.826	8660.62
896.065	8671.62
896.304	8706.62
896.543	8728.62
896.782	8576.62
897.021	8724.62
897.26	8662.62
897.499	8677.62
897.738	8741.62
897.977	8631.62
898.216	8594.62
898.454	8534.62
898.693	8493.62
898.932	8509.62
899.17	8516.62
899.409	8471.62
899.647	8494.62
899.886	8442.62
900.124	8426.62
900.363	8469.62
900.601	8621.62
900.839	8653.62
901.078	8742.62
901.316	8806.62
901.554	8922.62
901.792	9020.62
902.03	9055.62
902.268	8991.62
902.506	9050.62
902.744	8959.62
902.982	8887.62
903.22	8627.62
903.458	8494.62
903.695	8322.62
903.933	8156.62
904.171	7976.62
904.409	7819.62
904.646	7702.62
904.884	7674.62
905.121	7559.62
905.359	7449.62
905.596	7331.62
905.833	7261.62
906.071	7203.62
906.308	7251.62
906.545	7142.62
906.783	7159.62
907.02	7154.62
907.257	7053.62
907.494	7105.62
907.731	7043.62
907.968	7093.62
908.205	7019.62
908.442	6933.62
908.679	6982.62
908.915	6926.62
909.152	6851.62
909.389	6763.62
909.626	6703.62
909.862	6603.62
910.099	6686.62
910.335	6704.62
910.572	6561.62
910.808	6600.62
911.045	6487.62
911.281	6555.62
911.518	6548.62
911.754	6528.62
911.99	6468.62
912.226	6358.62
912.463	6362.62
912.699	6292.62
912.935	6268.62
913.171	6243.62
913.407	6142.62
913.643	6219.62
913.879	6110.62
914.114	6062.62
914.35	5968.62
914.586	5920.62
914.822	5848.62
915.057	5925.62
915.293	5739.62
915.529	5795.62
915.764	5827.62
916	5797.62
916.235	5811.62
916.471	5775.62
916.706	5742.62
916.941	5720.62
917.177	5752.62
917.412	5758.62
917.647	5749.62
917.882	5672.62
918.117	5721.62
918.352	5763.62
918.588	5670.62
918.823	5601.62
919.057	5611.62
919.292	5505.62
919.527	5543.62
919.762	5444.62
919.997	5452.62
920.232	5304.62
920.466	5366.62
920.701	5218.62
920.935	5258.62
921.17	5170.62
921.405	5162.62
921.639	5185.62
921.873	5158.62
922.108	5220.62
922.342	5170.62
922.576	5074.62
922.811	5079.62
923.045	5084.62
923.279	5089.62
923.513	4951.62
923.747	5079.62
923.981	5018.62
924.215	4951.62
924.449	4921.62
924.683	4852.62
924.917	4854.62
925.151	4830.62
925.385	4932.62
925.618	4870.62
925.852	4818.62
926.086	4806.62
926.319	4831.62
926.553	4808.62
926.786	4848.62
927.02	4809.62
927.253	4850.62
927.486	4819.62
927.72	4746.62
927.953	4801.62
928.186	4780.62
928.42	4750.62
928.653	4687.62
928.886	4679.62
929.119	4707.62
929.352	4680.62
929.585	4640.62
929.818	4596.62
930.051	4588.62
930.284	4559.62
930.516	4448.62
930.749	4465.62
930.982	4514.62
931.215	4501.62
931.447	4469.62
931.68	4411.62
931.912	4430.62
932.145	4345.62
932.377	4415.62
932.61	4570.62
932.842	4371.62
933.074	4422.62
933.307	4398.62
933.539	4468.62
933.771	4417.62
934.003	4387.62
934.236	4468.62
934.468	4478.62
934.7	4399.62
934.932	4431.62
935.164	4321.62
935.395	4304.62
935.627	4364.62
935.859	4337.62
936.091	4269.62
936.323	4320.62
936.554	4369.62
936.786	4263.62
937.017	4237.62
937.249	4291.62
937.481	4164.62
937.712	4279.62
937.943	4209.62
938.175	4210.62
938.406	4227.62
938.637	4245.62
938.869	4197.62
939.1	4238.62
939.331	4171.62
939.562	4188.62
939.793	4177.62
940.024	4170.62
940.255	4198.62
940.486	4157.62
940.717	4148.62
940.948	4111.62
941.179	4023.62
941.409	4035.62
941.64	4075.62
941.871	4016.62
942.102	4076.62
942.332	4073.62
942.563	4072.62
942.793	4102.62
943.024	4036.62
943.254	4073.62
943.484	4058.62
943.715	4120.62
943.945	4046.62
944.175	3980.62
944.405	3998.62
944.636	4000.62
944.866	4069.62
945.096	4076.62
945.326	3974.62
945.556	4022.62
945.786	4023.62
946.016	3947.62
946.245	3923.62
946.475	3861.62
946.705	3873.62
946.935	3899.62
947.164	3884.62
947.394	3851.62
947.624	3855.62
947.853	3900.62
948.083	3799.62
948.312	3824.62
948.542	3750.62
948.771	3697.62
949	3727.62
949.23	3740.62
949.459	3775.62
949.688	3847.62
949.917	3741.62
950.146	3757.62
950.375	3813.62
950.604	3720.62
950.833	3783.62
951.062	3772.62
951.291	3689.62
951.52	3704.62
951.749	3675.62
951.978	3663.62
952.206	3671.62
952.435	3664.62
952.664	3633.62
952.892	3657.62
953.121	3616.62
953.349	3671.62
953.578	3615.62
953.806	3613.62
954.035	3537.62
954.263	3609.62
954.491	3512.62
954.719	3553.62
954.948	3518.62
955.176	3494.62
955.404	3397.62
955.632	3502.62
955.86	3508.62
956.088	3472.62
956.316	3487.62
956.544	3499.62
956.772	3422.62
956.999	3360.62
957.227	3474.62
957.455	3351.62
957.683	3376.62
957.91	3315.62
958.138	3313.62
958.365	3287.62
958.593	3301.62
958.82	3253.62
959.048	3298.62
959.275	3246.62
959.502	3217.62
959.73	3246.62
959.957	3280.62
960.184	3307.62
960.411	3250.62
960.638	3342.62
960.865	3175.62
961.092	3267.62
961.319	3157.62
961.546	3281.62
961.773	3293.62
962	3202.62
962.227	3255.62
962.454	3231.62
962.68	3158.62
962.907	3211.62
963.134	3176.62
963.36	3163.62
963.587	3129.62
963.813	3090.62
964.04	3121.62
964.266	3039.62
964.493	3129.62
964.719	3094.62
964.945	3075.62
965.171	2990.62
965.398	3027.62
965.624	3031.62
965.85	2988.62
966.076	2984.62
966.302	2998.62
966.528	2956.62
966.754	2974.62
966.98	2966.62
967.206	2975.62
967.431	2896.62
967.657	2946.62
967.883	2989.62
968.109	2920.62
968.334	2901.62
968.56	2845.62
968.785	2883.62
969.011	2847.62
969.236	2893.62
969.462	2848.62
969.687	2823.62
969.912	2852.62
970.138	2846.62
970.363	2820.62
970.588	2844.62
970.813	2796.62
971.038	2796.62
971.263	2842.62
971.488	2820.62
971.713	2829.62
971.938	2821.62
972.163	2710.62
972.388	2712.62
972.613	2711.62
972.838	2701.62
973.062	2732.62
973.287	2719.62
973.512	2632.62
973.736	2673.62
973.961	2695.62
974.185	2641.62
974.41	2658.62
974.634	2579.62
974.858	2555.62
975.083	2578.62
975.307	2635.62
975.531	2578.62
975.755	2512.62
975.98	2521.62
976.204	2463.62
976.428	2432.62
976.652	2437.62
976.876	2491.62
977.1	2446.62
977.324	2448.62
977.547	2482.62
977.771	2470.62
977.995	2408.62
978.219	2360.62
978.442	2505.62
978.666	2475.62
978.89	2430.62
979.113	2417.62
979.337	2422.62
979.56	2391.62
979.783	2423.62
980.007	2344.62
980.23	2363.62
980.453	2310.62
980.677	2375.62
980.9	2373.62
981.123	2290.62
981.346	2385.62
981.569	2340.62
981.792	2323.62
982.015	2291.62
982.238	2261.62
982.461	2302.62
982.684	2274.62
982.907	2228.62
983.129	2218.62
983.352	2284.62
983.575	2265.62
983.797	2272.62
984.02	2191.62
984.242	2184.62
984.465	2189.62
984.687	2191.62
984.91	2215.62
985.132	2205.62
985.354	2208.62
985.577	2196.62
985.799	2201.62
986.021	2111.62
986.243	2165.62
986.465	2125.62
986.687	2212.62
986.909	2332.62
987.131	2648.62
987.353	2133.62
987.575	2141.62
987.797	2127.62
988.019	2066.62
988.241	2129.62
988.462	2069.62
988.684	2138.62
988.906	2160.62
989.127	2150.62
989.349	2030.62
989.57	2058.62
989.792	2131.62
990.013	2116.62
990.234	2142.62
990.456	2149.62
990.677	2108.62
990.898	2069.62
991.119	2084.62
991.341	2058.62
991.562	1989.62
991.783	2065.62
992.004	1957.62
992.225	1975.62
992.446	2019.62
992.667	1933.62
992.887	2002.62
993.108	1914.62
993.329	2048.62
993.55	1975.62
993.77	1914.62
993.991	1942.62
994.212	1956.62
994.432	1935.62
994.653	1963.62
994.873	1932.62
995.093	1838.62
995.314	1883.62
995.534	1935.62
995.754	1952.62
995.975	1968.62
996.195	1856.62
996.415	1916.62
996.635	1913.62
996.855	1883.62
997.075	1895.62
997.295	1923.62
997.515	1902.62
997.735	1962.62
997.955	1940.62
998.174	1909.62
998.394	1893.62
998.614	1938.62
998.834	1881.62
999.053	1935.62
999.273	1898.62
999.492	1952.62
999.712	1894.62
999.931	1818.62
1000.151	1859.62
1000.37	1861.62
1000.589	1891.62
1000.809	1823.62
1001.028	1938.62
1001.247	1873.62
1001.466	1742.62
1001.685	1871.62
1001.904	1820.62
1002.123	1817.62
1002.342	1796.62
1002.561	1744.62
1002.78	1770.62
1002.999	1863.62
1003.218	1768.62
1003.436	1768.62
1003.655	1807.62
1003.874	1768.62
1004.092	1757.62
1004.311	1801.62
1004.53	1758.62
1004.748	1830.62
1004.966	1754.62
1005.185	1816.62
1005.403	1810.62
1005.622	1763.62
1005.84	1835.62
1006.058	1741.62
1006.276	1785.62
1006.494	2257.62
1006.712	1807.62
1006.931	1872.62
1007.149	1783.62
1007.367	1801.62
1007.584	1830.62
1007.802	1889.62
1008.02	1848.62
1008.238	1923.62
1008.456	1981.62
1008.673	1886.62
1008.891	1970.62
1009.109	1941.62
1009.326	2050.62
1009.544	2147.62
1009.761	2099.62
1009.979	2279.62
1010.196	2367.62
1010.413	2515.62
1010.631	2672.62
1010.848	2756.62
1011.065	2802.62
1011.282	2773.62
1011.5	2695.62
1011.717	2798.62
1011.934	2749.62
1012.151	2741.62
1012.368	2732.62
1012.585	2663.62
1012.801	2734.62
1013.018	2674.62
1013.235	2714.62
1013.452	2758.62
1013.669	2752.62
1013.885	2733.62
1014.102	2826.62
1014.318	2800.62
1014.535	2771.62
1014.751	2777.62
1014.968	2770.62
1015.184	2793.62
1015.401	2665.62
1015.617	2658.62
1015.833	2610.62
1016.049	2617.62
1016.266	2569.62
1016.482	2582.62
1016.698	2465.62
1016.914	2513.62
1017.13	2482.62
1017.346	2486.62
1017.562	2485.62
1017.778	2488.62
1017.993	2413.62
1018.209	2463.62
1018.425	2444.62
1018.641	2382.62
1018.856	2393.62
1019.072	2425.62
1019.288	2476.62
1019.503	2375.62
1019.719	2328.62
1019.934	2312.62
1020.149	2369.62
1020.365	2322.62
1020.58	2209.62
1020.795	2241.62
1021.011	2130.62
1021.226	2092.62
1021.441	2052.62
1021.656	1963.62
1021.871	1898.62
1022.086	1887.62
1022.301	1839.62
1022.516	1765.62
1022.731	1839.62
1022.946	1768.62
1023.16	1680.62
1023.375	1660.62
1023.59	1591.62
1023.804	1542.62
1024.019	1655.62
1024.234	1479.62
1024.448	1520.62
1024.663	1431.62
1024.877	1407.62
1025.092	1422.62
1025.306	1419.62
1025.52	1280.62
1025.734	1346.62
1025.949	1266.62
1026.163	1212.62
1026.377	1148.62
1026.591	1199.62
1026.805	1115.62
1027.019	1074.62
1027.233	1070.62
1027.447	1012.62
1027.661	1113.62
1027.875	1047.62
1028.088	1030.62
1028.302	932.62
1028.516	949.62
1028.73	920.62
1028.943	906.62
1029.157	835.62
1029.37	774.62
1029.584	-1.38
1029.797	-0.38
1030.011	-4.38
1030.224	-2.38
