Data from QEP037381__149__13-51-54-874.txt Node

Date: Wed Dec 21 13:51:54 EST 2022
User: dcclab
Spectrometer: QEP03738
Trigger mode: 4
Integration Time (sec): 1.000000E1
Scans to average: 1
Electric dark correction enabled: true
Nonlinearity correction enabled: false
Boxcar width: 0
XAxis mode: Wavelengths
Number of Pixels in Spectrum: 1044
>>>>>Begin Spectral Data<<<<<
784.041	13.5
784.3	-0.5
784.558	-2.5
784.817	-2.5
785.075	86538.5
785.334	14830.5
785.592	6864.5
785.851	4754.5
786.109	3610.5
786.368	2774.5
786.626	2253.5
786.884	1884.5
787.143	1594.5
787.401	1313.5
787.659	1187.5
787.917	1035.5
788.175	966.5
788.433	859.5
788.691	751.5
788.949	696.5
789.207	662.5
789.465	589.5
789.723	565.5
789.98	523.5
790.238	563.5
790.496	534.5
790.753	501.5
791.011	562.5
791.268	505.5
791.526	474.5
791.783	510.5
792.041	475.5
792.298	390.5
792.556	458.5
792.813	440.5
793.07	410.5
793.327	406.5
793.584	479.5
793.841	410.5
794.099	422.5
794.356	499.5
794.613	390.5
794.869	420.5
795.126	394.5
795.383	364.5
795.64	393.5
795.897	341.5
796.153	395.5
796.41	377.5
796.667	372.5
796.923	384.5
797.18	378.5
797.436	395.5
797.693	366.5
797.949	420.5
798.206	424.5
798.462	348.5
798.718	408.5
798.974	393.5
799.231	425.5
799.487	411.5
799.743	416.5
799.999	437.5
800.255	428.5
800.511	396.5
800.767	430.5
801.023	400.5
801.279	435.5
801.534	448.5
801.79	457.5
802.046	461.5
802.302	545.5
802.557	558.5
802.813	637.5
803.068	688.5
803.324	886.5
803.579	1144.5
803.835	1481.5
804.09	1999.5
804.345	2543.5
804.601	3151.5
804.856	3814.5
805.111	4410.5
805.366	4826.5
805.621	5101.5
805.876	5272.5
806.131	5453.5
806.386	5473.5
806.641	5566.5
806.896	5670.5
807.151	5839.5
807.406	5865.5
807.661	5984.5
807.915	6082.5
808.17	6224.5
808.425	6265.5
808.679	6264.5
808.934	6359.5
809.188	6424.5
809.443	6525.5
809.697	6581.5
809.951	6567.5
810.206	6620.5
810.46	6763.5
810.714	6777.5
810.968	6882.5
811.223	6883.5
811.477	7005.5
811.731	7111.5
811.985	7056.5
812.239	7074.5
812.493	7068.5
812.747	7124.5
813	7126.5
813.254	7204.5
813.508	7238.5
813.762	7333.5
814.015	7287.5
814.269	7328.5
814.522	7454.5
814.776	7561.5
815.03	7613.5
815.283	7718.5
815.536	7872.5
815.79	7887.5
816.043	8071.5
816.296	8143.5
816.55	8265.5
816.803	8357.5
817.056	8552.5
817.309	8564.5
817.562	8594.5
817.815	8808.5
818.068	8783.5
818.321	8876.5
818.574	8951.5
818.827	9086.5
819.079	9200.5
819.332	9476.5
819.585	9570.5
819.838	9665.5
820.09	9700.5
820.343	9778.5
820.595	9735.5
820.848	9910.5
821.1	9980.5
821.353	9879.5
821.605	9922.5
821.857	9977.5
822.11	9820.5
822.362	9885.5
822.614	9819.5
822.866	9815.5
823.118	9840.5
823.37	9975.5
823.622	9979.5
823.874	9995.5
824.126	10090.5
824.378	9976.5
824.63	10067.5
824.882	10106.5
825.134	10056.5
825.385	10090.5
825.637	9995.5
825.888	9992.5
826.14	9977.5
826.392	9898.5
826.643	9921.5
826.895	9885.5
827.146	9879.5
827.397	9803.5
827.649	9811.5
827.9	9792.5
828.151	9756.5
828.402	9792.5
828.653	9910.5
828.905	9975.5
829.156	9928.5
829.407	9911.5
829.658	9961.5
829.909	10039.5
830.159	10108.5
830.41	10061.5
830.661	9944.5
830.912	9851.5
831.162	9938.5
831.413	9805.5
831.664	9894.5
831.914	9890.5
832.165	9899.5
832.415	9878.5
832.666	9866.5
832.916	9969.5
833.167	9948.5
833.417	9901.5
833.667	9873.5
833.917	9795.5
834.168	9866.5
834.418	9895.5
834.668	9775.5
834.918	9731.5
835.168	9732.5
835.418	9651.5
835.668	9690.5
835.918	9683.5
836.167	9602.5
836.417	9552.5
836.667	9657.5
836.917	9617.5
837.166	9651.5
837.416	9705.5
837.666	9608.5
837.915	9559.5
838.165	9680.5
838.414	9484.5
838.663	9466.5
838.913	9575.5
839.162	9527.5
839.411	9626.5
839.661	9514.5
839.91	9520.5
840.159	9562.5
840.408	9612.5
840.657	9564.5
840.906	9548.5
841.155	9653.5
841.404	9570.5
841.653	9552.5
841.902	9542.5
842.15	9630.5
842.399	9606.5
842.648	9617.5
842.897	9653.5
843.145	9575.5
843.394	9493.5
843.642	9468.5
843.891	9430.5
844.139	9330.5
844.388	9341.5
844.636	9238.5
844.884	9324.5
845.133	9265.5
845.381	9299.5
845.629	9341.5
845.877	9274.5
846.125	9305.5
846.373	9308.5
846.621	9232.5
846.869	9279.5
847.117	9193.5
847.365	9115.5
847.613	9151.5
847.861	9119.5
848.108	9107.5
848.356	9115.5
848.604	9080.5
848.851	9149.5
849.099	9077.5
849.346	9151.5
849.594	9293.5
849.841	9301.5
850.089	9315.5
850.336	9391.5
850.583	9396.5
850.831	9373.5
851.078	9263.5
851.325	9178.5
851.572	9287.5
851.819	9250.5
852.066	9042.5
852.313	8884.5
852.56	8792.5
852.807	8728.5
853.054	8773.5
853.301	8782.5
853.548	8851.5
853.794	8895.5
854.041	8911.5
854.288	8910.5
854.534	9118.5
854.781	9002.5
855.028	8971.5
855.274	9045.5
855.52	8959.5
855.767	8939.5
856.013	9042.5
856.26	9297.5
856.506	8922.5
856.752	8878.5
856.998	8885.5
857.244	8934.5
857.49	9013.5
857.736	9039.5
857.982	9000.5
858.228	9062.5
858.474	8890.5
858.72	8800.5
858.966	8718.5
859.212	8647.5
859.458	8546.5
859.703	8485.5
859.949	8342.5
860.195	8360.5
860.44	8374.5
860.686	8289.5
860.931	8350.5
861.177	8266.5
861.422	8193.5
861.667	8107.5
861.913	8132.5
862.158	8085.5
862.403	8255.5
862.648	8212.5
862.893	8213.5
863.138	8193.5
863.384	8197.5
863.629	8186.5
863.873	8195.5
864.118	8184.5
864.363	8090.5
864.608	8103.5
864.853	8125.5
865.098	7979.5
865.342	7966.5
865.587	7997.5
865.832	7979.5
866.076	7980.5
866.321	7990.5
866.565	7958.5
866.81	7931.5
867.054	7913.5
867.298	8016.5
867.543	7904.5
867.787	7964.5
868.031	7931.5
868.275	7885.5
868.519	7870.5
868.764	7892.5
869.008	7939.5
869.252	7996.5
869.496	7914.5
869.739	7919.5
869.983	7902.5
870.227	7976.5
870.471	8027.5
870.715	8070.5
870.958	8108.5
871.202	8060.5
871.446	8022.5
871.689	8107.5
871.933	8108.5
872.176	8088.5
872.42	8028.5
872.663	8105.5
872.906	8073.5
873.15	7999.5
873.393	8089.5
873.636	8161.5
873.879	8064.5
874.122	7977.5
874.366	7840.5
874.609	7744.5
874.852	7700.5
875.095	7611.5
875.337	7538.5
875.58	7478.5
875.823	7532.5
876.066	7552.5
876.309	7551.5
876.551	7372.5
876.794	7410.5
877.037	7466.5
877.279	7346.5
877.522	7330.5
877.764	7367.5
878.007	7262.5
878.249	7304.5
878.491	7248.5
878.734	7316.5
878.976	7245.5
879.218	7175.5
879.46	7144.5
879.702	7157.5
879.945	7063.5
880.187	7008.5
880.429	6986.5
880.671	6932.5
880.912	6918.5
881.154	6905.5
881.396	6840.5
881.638	6904.5
881.88	6913.5
882.121	6853.5
882.363	6935.5
882.605	6961.5
882.846	6907.5
883.088	6994.5
883.329	7003.5
883.571	7020.5
883.812	7190.5
884.053	7394.5
884.295	7635.5
884.536	7938.5
884.777	7747.5
885.018	7738.5
885.259	7657.5
885.5	7511.5
885.742	7814.5
885.982	7513.5
886.223	7409.5
886.464	7283.5
886.705	7163.5
886.946	7135.5
887.187	6952.5
887.428	6870.5
887.668	6686.5
887.909	6579.5
888.15	6490.5
888.39	6417.5
888.631	6447.5
888.871	6389.5
889.111	6278.5
889.352	6213.5
889.592	6132.5
889.833	6190.5
890.073	6106.5
890.313	6117.5
890.553	5979.5
890.793	6006.5
891.033	5930.5
891.273	5929.5
891.513	5960.5
891.753	5944.5
891.993	5918.5
892.233	5934.5
892.473	6056.5
892.713	6063.5
892.952	5936.5
893.192	5973.5
893.432	5987.5
893.671	6035.5
893.911	5992.5
894.15	5957.5
894.39	5799.5
894.629	5885.5
894.869	5867.5
895.108	5817.5
895.347	5760.5
895.587	5825.5
895.826	5813.5
896.065	5749.5
896.304	5778.5
896.543	5757.5
896.782	5724.5
897.021	5777.5
897.26	5720.5
897.499	5803.5
897.738	5808.5
897.977	5702.5
898.216	5665.5
898.454	5637.5
898.693	5554.5
898.932	5615.5
899.17	5586.5
899.409	5527.5
899.647	5592.5
899.886	5558.5
900.124	5607.5
900.363	5626.5
900.601	5636.5
900.839	5655.5
901.078	5760.5
901.316	5775.5
901.554	5789.5
901.792	5916.5
902.03	5849.5
902.268	5915.5
902.506	5957.5
902.744	5841.5
902.982	5840.5
903.22	5602.5
903.458	5531.5
903.695	5495.5
903.933	5394.5
904.171	5284.5
904.409	5202.5
904.646	5103.5
904.884	5035.5
905.121	5044.5
905.359	4972.5
905.596	4881.5
905.833	4795.5
906.071	4826.5
906.308	4815.5
906.545	4789.5
906.783	4750.5
907.02	4773.5
907.257	4752.5
907.494	4776.5
907.731	4731.5
907.968	4757.5
908.205	4603.5
908.442	4599.5
908.679	4668.5
908.915	4614.5
909.152	4586.5
909.389	4508.5
909.626	4471.5
909.862	4438.5
910.099	4437.5
910.335	4507.5
910.572	4371.5
910.808	4434.5
911.045	4417.5
911.281	4319.5
911.518	4387.5
911.754	4334.5
911.99	4326.5
912.226	4336.5
912.463	4217.5
912.699	4211.5
912.935	4210.5
913.171	4236.5
913.407	4119.5
913.643	4153.5
913.879	4128.5
914.114	4081.5
914.35	4024.5
914.586	3946.5
914.822	3918.5
915.057	4012.5
915.293	3887.5
915.529	3872.5
915.764	3953.5
916	3879.5
916.235	3884.5
916.471	3913.5
916.706	3807.5
916.941	3856.5
917.177	3858.5
917.412	3889.5
917.647	3878.5
917.882	3843.5
918.117	3879.5
918.352	3885.5
918.588	3901.5
918.823	3794.5
919.057	3781.5
919.292	3655.5
919.527	3748.5
919.762	3643.5
919.997	3694.5
920.232	3666.5
920.466	3617.5
920.701	3532.5
920.935	3569.5
921.17	3526.5
921.405	3467.5
921.639	3500.5
921.873	3502.5
922.108	3476.5
922.342	3515.5
922.576	3413.5
922.811	3465.5
923.045	3477.5
923.279	3509.5
923.513	3363.5
923.747	3441.5
923.981	3366.5
924.215	3346.5
924.449	3333.5
924.683	3361.5
924.917	3278.5
925.151	3269.5
925.385	3351.5
925.618	3307.5
925.852	3284.5
926.086	3218.5
926.319	3316.5
926.553	3259.5
926.786	3285.5
927.02	3246.5
927.253	3304.5
927.486	3302.5
927.72	3227.5
927.953	3278.5
928.186	3209.5
928.42	3262.5
928.653	3211.5
928.886	3175.5
929.119	3257.5
929.352	3187.5
929.585	3171.5
929.818	3129.5
930.051	3142.5
930.284	3173.5
930.516	3089.5
930.749	3103.5
930.982	3073.5
931.215	3077.5
931.447	3016.5
931.68	3030.5
931.912	3018.5
932.145	2997.5
932.377	3031.5
932.61	3146.5
932.842	2957.5
933.074	3051.5
933.307	2990.5
933.539	3097.5
933.771	3069.5
934.003	3007.5
934.236	3077.5
934.468	3153.5
934.7	2998.5
934.932	3037.5
935.164	3013.5
935.395	2975.5
935.627	2979.5
935.859	3011.5
936.091	2916.5
936.323	2984.5
936.554	3016.5
936.786	2972.5
937.017	2910.5
937.249	2958.5
937.481	2899.5
937.712	2940.5
937.943	2927.5
938.175	2931.5
938.406	2907.5
938.637	2964.5
938.869	2887.5
939.1	2951.5
939.331	2892.5
939.562	2921.5
939.793	2920.5
940.024	2930.5
940.255	2910.5
940.486	2859.5
940.717	2866.5
940.948	2831.5
941.179	2799.5
941.409	2832.5
941.64	2812.5
941.871	2847.5
942.102	2835.5
942.332	2814.5
942.563	2859.5
942.793	2845.5
943.024	2805.5
943.254	2822.5
943.484	2863.5
943.715	2891.5
943.945	2832.5
944.175	2807.5
944.405	2722.5
944.636	2768.5
944.866	2828.5
945.096	2847.5
945.326	2787.5
945.556	2817.5
945.786	2783.5
946.016	2764.5
946.245	2702.5
946.475	2741.5
946.705	2717.5
946.935	2726.5
947.164	2708.5
947.394	2662.5
947.624	2697.5
947.853	2741.5
948.083	2699.5
948.312	2709.5
948.542	2605.5
948.771	2575.5
949	2592.5
949.23	2607.5
949.459	2630.5
949.688	2694.5
949.917	2601.5
950.146	2654.5
950.375	2694.5
950.604	2615.5
950.833	2670.5
951.062	2651.5
951.291	2612.5
951.52	2597.5
951.749	2601.5
951.978	2548.5
952.206	2595.5
952.435	2587.5
952.664	2599.5
952.892	2598.5
953.121	2577.5
953.349	2613.5
953.578	2592.5
953.806	2546.5
954.035	2486.5
954.263	2553.5
954.491	2501.5
954.719	2545.5
954.948	2471.5
955.176	2434.5
955.404	2454.5
955.632	2503.5
955.86	2473.5
956.088	2463.5
956.316	2504.5
956.544	2511.5
956.772	2430.5
956.999	2428.5
957.227	2441.5
957.455	2417.5
957.683	2399.5
957.91	2367.5
958.138	2384.5
958.365	2342.5
958.593	2363.5
958.82	2314.5
959.048	2405.5
959.275	2349.5
959.502	2352.5
959.73	2316.5
959.957	2373.5
960.184	2401.5
960.411	2317.5
960.638	2386.5
960.865	2341.5
961.092	2377.5
961.319	2257.5
961.546	2344.5
961.773	2372.5
962	2320.5
962.227	2338.5
962.454	2305.5
962.68	2311.5
962.907	2315.5
963.134	2230.5
963.36	2302.5
963.587	2280.5
963.813	2222.5
964.04	2259.5
964.266	2184.5
964.493	2269.5
964.719	2249.5
964.945	2281.5
965.171	2137.5
965.398	2254.5
965.624	2252.5
965.85	2158.5
966.076	2167.5
966.302	2236.5
966.528	2168.5
966.754	2186.5
966.98	2174.5
967.206	2194.5
967.431	2068.5
967.657	2204.5
967.883	2173.5
968.109	2133.5
968.334	2103.5
968.56	2105.5
968.785	2113.5
969.011	2030.5
969.236	2158.5
969.462	2088.5
969.687	2067.5
969.912	2142.5
970.138	2153.5
970.363	2036.5
970.588	2082.5
970.813	2067.5
971.038	2045.5
971.263	2097.5
971.488	2080.5
971.713	2113.5
971.938	2059.5
972.163	1975.5
972.388	2031.5
972.613	2017.5
972.838	2024.5
973.062	2015.5
973.287	2004.5
973.512	1943.5
973.736	1971.5
973.961	1993.5
974.185	1957.5
974.41	1974.5
974.634	1898.5
974.858	1911.5
975.083	1949.5
975.307	1949.5
975.531	1877.5
975.755	1856.5
975.98	1863.5
976.204	1818.5
976.428	1839.5
976.652	1846.5
976.876	1809.5
977.1	1827.5
977.324	1794.5
977.547	1856.5
977.771	1868.5
977.995	1849.5
978.219	1764.5
978.442	1889.5
978.666	1805.5
978.89	1792.5
979.113	1779.5
979.337	1808.5
979.56	1802.5
979.783	1857.5
980.007	1749.5
980.23	1797.5
980.453	1734.5
980.677	1781.5
980.9	1763.5
981.123	1678.5
981.346	1778.5
981.569	1769.5
981.792	1793.5
982.015	1744.5
982.238	1696.5
982.461	1741.5
982.684	1709.5
982.907	1708.5
983.129	1685.5
983.352	1736.5
983.575	1693.5
983.797	1722.5
984.02	1682.5
984.242	1669.5
984.465	1658.5
984.687	1692.5
984.91	1746.5
985.132	1685.5
985.354	1716.5
985.577	1662.5
985.799	1663.5
986.021	1573.5
986.243	1631.5
986.465	1644.5
986.687	1679.5
986.909	1741.5
987.131	1653.5
987.353	1645.5
987.575	1647.5
987.797	1639.5
988.019	1567.5
988.241	1651.5
988.462	1611.5
988.684	1681.5
988.906	1661.5
989.127	1702.5
989.349	1574.5
989.57	1610.5
989.792	1654.5
990.013	1658.5
990.234	1625.5
990.456	1653.5
990.677	1658.5
990.898	1622.5
991.119	1604.5
991.341	1620.5
991.562	1569.5
991.783	1584.5
992.004	1592.5
992.225	1534.5
992.446	1601.5
992.667	1507.5
992.887	1570.5
993.108	1487.5
993.329	1603.5
993.55	1556.5
993.77	1484.5
993.991	1517.5
994.212	1561.5
994.432	1535.5
994.653	1543.5
994.873	1531.5
995.093	1436.5
995.314	1487.5
995.534	1559.5
995.754	1556.5
995.975	1587.5
996.195	1485.5
996.415	1536.5
996.635	1545.5
996.855	1549.5
997.075	1515.5
997.295	1503.5
997.515	1509.5
997.735	1563.5
997.955	1521.5
998.174	1518.5
998.394	1509.5
998.614	1542.5
998.834	1508.5
999.053	1547.5
999.273	1535.5
999.492	1557.5
999.712	1510.5
999.931	1482.5
1000.151	1491.5
1000.37	1471.5
1000.589	1538.5
1000.809	1430.5
1001.028	1556.5
1001.247	1505.5
1001.466	1394.5
1001.685	1570.5
1001.904	1459.5
1002.123	1481.5
1002.342	1486.5
1002.561	1431.5
1002.78	1456.5
1002.999	1527.5
1003.218	1454.5
1003.436	1429.5
1003.655	1505.5
1003.874	1444.5
1004.092	1451.5
1004.311	1513.5
1004.53	1450.5
1004.748	1505.5
1004.966	1441.5
1005.185	1506.5
1005.403	1493.5
1005.622	1475.5
1005.84	1533.5
1006.058	1436.5
1006.276	1459.5
1006.494	1974.5
1006.712	1487.5
1006.931	1557.5
1007.149	1479.5
1007.367	1464.5
1007.584	1514.5
1007.802	1607.5
1008.02	1525.5
1008.238	1613.5
1008.456	1635.5
1008.673	1498.5
1008.891	1639.5
1009.109	1604.5
1009.326	1674.5
1009.544	1783.5
1009.761	1717.5
1009.979	1852.5
1010.196	1914.5
1010.413	2087.5
1010.631	2187.5
1010.848	2245.5
1011.065	2266.5
1011.282	2181.5
1011.5	2153.5
1011.717	2279.5
1011.934	2219.5
1012.151	2233.5
1012.368	2196.5
1012.585	2134.5
1012.801	2187.5
1013.018	2192.5
1013.235	2167.5
1013.452	2183.5
1013.669	2208.5
1013.885	2199.5
1014.102	2245.5
1014.318	2227.5
1014.535	2183.5
1014.751	2236.5
1014.968	2253.5
1015.184	2235.5
1015.401	2138.5
1015.617	2149.5
1015.833	2074.5
1016.049	2104.5
1016.266	2065.5
1016.482	2077.5
1016.698	1982.5
1016.914	2029.5
1017.13	1967.5
1017.346	1992.5
1017.562	2025.5
1017.778	1955.5
1017.993	1931.5
1018.209	2010.5
1018.425	1956.5
1018.641	1936.5
1018.856	1917.5
1019.072	1945.5
1019.288	1994.5
1019.503	1948.5
1019.719	1854.5
1019.934	1836.5
1020.149	1939.5
1020.365	1861.5
1020.58	1782.5
1020.795	1853.5
1021.011	1741.5
1021.226	1696.5
1021.441	1687.5
1021.656	1578.5
1021.871	1506.5
1022.086	1526.5
1022.301	1494.5
1022.516	1479.5
1022.731	1520.5
1022.946	1424.5
1023.16	1388.5
1023.375	1370.5
1023.59	1334.5
1023.804	1295.5
1024.019	1368.5
1024.234	1235.5
1024.448	1254.5
1024.663	1193.5
1024.877	1182.5
1025.092	1178.5
1025.306	1157.5
1025.52	1088.5
1025.734	1165.5
1025.949	1054.5
1026.163	1023.5
1026.377	978.5
1026.591	1012.5
1026.805	949.5
1027.019	913.5
1027.233	894.5
1027.447	832.5
1027.661	915.5
1027.875	871.5
1028.088	883.5
1028.302	803.5
1028.516	790.5
1028.73	762.5
1028.943	770.5
1029.157	714.5
1029.37	674.5
1029.584	-0.5
1029.797	-3.5
1030.011	-1.5
1030.224	-2.5
