Data from QEP037381__136__13-49-44-882.txt Node

Date: Wed Dec 21 13:49:44 EST 2022
User: dcclab
Spectrometer: QEP03738
Trigger mode: 4
Integration Time (sec): 1.000000E1
Scans to average: 1
Electric dark correction enabled: true
Nonlinearity correction enabled: false
Boxcar width: 0
XAxis mode: Wavelengths
Number of Pixels in Spectrum: 1044
>>>>>Begin Spectral Data<<<<<
784.041	10.12
784.3	3.12
784.558	-1.88
784.817	-3.88
785.075	91859.12
785.334	15577.12
785.592	7232.12
785.851	5000.12
786.109	3800.12
786.368	2920.12
786.626	2355.12
786.884	1994.12
787.143	1698.12
787.401	1376.12
787.659	1248.12
787.917	1080.12
788.175	992.12
788.433	876.12
788.691	767.12
788.949	720.12
789.207	691.12
789.465	589.12
789.723	592.12
789.98	526.12
790.238	577.12
790.496	535.12
790.753	518.12
791.011	558.12
791.268	494.12
791.526	490.12
791.783	500.12
792.041	485.12
792.298	392.12
792.556	472.12
792.813	449.12
793.07	427.12
793.327	417.12
793.584	502.12
793.841	430.12
794.099	437.12
794.356	488.12
794.613	400.12
794.869	432.12
795.126	390.12
795.383	364.12
795.64	401.12
795.897	352.12
796.153	421.12
796.41	399.12
796.667	382.12
796.923	385.12
797.18	384.12
797.436	413.12
797.693	380.12
797.949	414.12
798.206	433.12
798.462	369.12
798.718	433.12
798.974	395.12
799.231	438.12
799.487	417.12
799.743	420.12
799.999	438.12
800.255	422.12
800.511	396.12
800.767	440.12
801.023	431.12
801.279	451.12
801.534	455.12
801.79	494.12
802.046	491.12
802.302	576.12
802.557	596.12
802.813	711.12
803.068	789.12
803.324	1022.12
803.579	1311.12
803.835	1721.12
804.09	2328.12
804.345	2992.12
804.601	3722.12
804.856	4470.12
805.111	5176.12
805.366	5693.12
805.621	5979.12
805.876	6299.12
806.131	6379.12
806.386	6549.12
806.641	6583.12
806.896	6693.12
807.151	6863.12
807.406	6867.12
807.661	7144.12
807.915	7182.12
808.17	7333.12
808.425	7383.12
808.679	7393.12
808.934	7576.12
809.188	7529.12
809.443	7658.12
809.697	7753.12
809.951	7752.12
810.206	7904.12
810.46	7984.12
810.714	8025.12
810.968	8092.12
811.223	8133.12
811.477	8316.12
811.731	8380.12
811.985	8343.12
812.239	8314.12
812.493	8336.12
812.747	8383.12
813	8459.12
813.254	8501.12
813.508	8587.12
813.762	8601.12
814.015	8626.12
814.269	8695.12
814.522	8746.12
814.776	8831.12
815.03	8961.12
815.283	9029.12
815.536	9252.12
815.79	9379.12
816.043	9540.12
816.296	9661.12
816.55	9772.12
816.803	9829.12
817.056	10065.12
817.309	10136.12
817.562	10173.12
817.815	10414.12
818.068	10371.12
818.321	10452.12
818.574	10587.12
818.827	10756.12
819.079	10901.12
819.332	11176.12
819.585	11325.12
819.838	11446.12
820.09	11389.12
820.343	11530.12
820.595	11472.12
820.848	11643.12
821.1	11685.12
821.353	11729.12
821.605	11684.12
821.857	11676.12
822.11	11506.12
822.362	11585.12
822.614	11539.12
822.866	11550.12
823.118	11602.12
823.37	11669.12
823.622	11620.12
823.874	11727.12
824.126	11827.12
824.378	11793.12
824.63	11788.12
824.882	11861.12
825.134	11772.12
825.385	11806.12
825.637	11747.12
825.888	11680.12
826.14	11652.12
826.392	11675.12
826.643	11595.12
826.895	11612.12
827.146	11511.12
827.397	11514.12
827.649	11578.12
827.9	11493.12
828.151	11523.12
828.402	11521.12
828.653	11575.12
828.905	11665.12
829.156	11718.12
829.407	11592.12
829.658	11775.12
829.909	11841.12
830.159	11846.12
830.41	11906.12
830.661	11710.12
830.912	11626.12
831.162	11579.12
831.413	11598.12
831.664	11618.12
831.914	11626.12
832.165	11648.12
832.415	11641.12
832.666	11566.12
832.916	11646.12
833.167	11642.12
833.417	11671.12
833.667	11563.12
833.917	11567.12
834.168	11569.12
834.418	11527.12
834.668	11472.12
834.918	11462.12
835.168	11392.12
835.418	11271.12
835.668	11312.12
835.918	11307.12
836.167	11272.12
836.417	11191.12
836.667	11291.12
836.917	11341.12
837.166	11236.12
837.416	11320.12
837.666	11357.12
837.915	11332.12
838.165	11296.12
838.414	11271.12
838.663	11255.12
838.913	11255.12
839.162	11218.12
839.411	11361.12
839.661	11230.12
839.91	11228.12
840.159	11240.12
840.408	11306.12
840.657	11339.12
840.906	11367.12
841.155	11379.12
841.404	11263.12
841.653	11285.12
841.902	11367.12
842.15	11419.12
842.399	11513.12
842.648	11492.12
842.897	11423.12
843.145	11325.12
843.394	11224.12
843.642	11161.12
843.891	11076.12
844.139	11008.12
844.388	10917.12
844.636	10888.12
844.884	10929.12
845.133	10961.12
845.381	10969.12
845.629	10974.12
845.877	10927.12
846.125	11033.12
846.373	10976.12
846.621	10820.12
846.869	10858.12
847.117	10875.12
847.365	10739.12
847.613	10735.12
847.861	10682.12
848.108	10775.12
848.356	10742.12
848.604	10688.12
848.851	10814.12
849.099	10777.12
849.346	10817.12
849.594	10849.12
849.841	10916.12
850.089	10976.12
850.336	10940.12
850.583	11059.12
850.831	11044.12
851.078	10997.12
851.325	10898.12
851.572	11091.12
851.819	10928.12
852.066	10740.12
852.313	10458.12
852.56	10361.12
852.807	10237.12
853.054	10305.12
853.301	10400.12
853.548	10354.12
853.794	10521.12
854.041	10541.12
854.288	10597.12
854.534	10768.12
854.781	10700.12
855.028	10680.12
855.274	10679.12
855.52	10737.12
855.767	10679.12
856.013	10772.12
856.26	11008.12
856.506	10571.12
856.752	10479.12
856.998	10537.12
857.244	10607.12
857.49	10771.12
857.736	10677.12
857.982	10702.12
858.228	10660.12
858.474	10511.12
858.72	10407.12
858.966	10375.12
859.212	10248.12
859.458	10109.12
859.703	10025.12
859.949	9884.12
860.195	9924.12
860.44	9844.12
860.686	9869.12
860.931	9898.12
861.177	9739.12
861.422	9699.12
861.667	9565.12
861.913	9608.12
862.158	9571.12
862.403	9629.12
862.648	9631.12
862.893	9660.12
863.138	9623.12
863.384	9505.12
863.629	9629.12
863.873	9520.12
864.118	9563.12
864.363	9568.12
864.608	9525.12
864.853	9517.12
865.098	9479.12
865.342	9399.12
865.587	9348.12
865.832	9465.12
866.076	9447.12
866.321	9355.12
866.565	9277.12
866.81	9268.12
867.054	9344.12
867.298	9270.12
867.543	9180.12
867.787	9320.12
868.031	9246.12
868.275	9280.12
868.519	9255.12
868.764	9287.12
869.008	9256.12
869.252	9293.12
869.496	9347.12
869.739	9334.12
869.983	9383.12
870.227	9403.12
870.471	9440.12
870.715	9487.12
870.958	9524.12
871.202	9535.12
871.446	9600.12
871.689	9599.12
871.933	9647.12
872.176	9633.12
872.42	9508.12
872.663	9512.12
872.906	9607.12
873.15	9641.12
873.393	9716.12
873.636	9787.12
873.879	9665.12
874.122	9577.12
874.366	9295.12
874.609	9219.12
874.852	9082.12
875.095	8990.12
875.337	8922.12
875.58	8844.12
875.823	8815.12
876.066	8883.12
876.309	8914.12
876.551	8714.12
876.794	8700.12
877.037	8737.12
877.279	8606.12
877.522	8745.12
877.764	8656.12
878.007	8579.12
878.249	8626.12
878.491	8508.12
878.734	8540.12
878.976	8504.12
879.218	8413.12
879.46	8441.12
879.702	8422.12
879.945	8273.12
880.187	8154.12
880.429	8112.12
880.671	8136.12
880.912	8041.12
881.154	8057.12
881.396	7991.12
881.638	8044.12
881.88	8116.12
882.121	8073.12
882.363	8081.12
882.605	8130.12
882.846	8085.12
883.088	8193.12
883.329	8115.12
883.571	8338.12
883.812	8520.12
884.053	8898.12
884.295	9287.12
884.536	9607.12
884.777	9461.12
885.018	9363.12
885.259	9288.12
885.5	9130.12
885.742	9384.12
885.982	9064.12
886.223	8941.12
886.464	8791.12
886.705	8587.12
886.946	8492.12
887.187	8267.12
887.428	8111.12
887.668	7883.12
887.909	7709.12
888.15	7522.12
888.39	7496.12
888.631	7479.12
888.871	7422.12
889.111	7343.12
889.352	7310.12
889.592	7115.12
889.833	7105.12
890.073	7088.12
890.313	7064.12
890.553	6912.12
890.793	6964.12
891.033	6902.12
891.273	6903.12
891.513	6895.12
891.753	6918.12
891.993	6811.12
892.233	6864.12
892.473	6958.12
892.713	6941.12
892.952	6853.12
893.192	6929.12
893.432	6952.12
893.671	6891.12
893.911	6920.12
894.15	6882.12
894.39	6771.12
894.629	6748.12
894.869	6744.12
895.108	6714.12
895.347	6650.12
895.587	6688.12
895.826	6556.12
896.065	6570.12
896.304	6675.12
896.543	6663.12
896.782	6580.12
897.021	6665.12
897.26	6590.12
897.499	6683.12
897.738	6635.12
897.977	6538.12
898.216	6558.12
898.454	6534.12
898.693	6476.12
898.932	6497.12
899.17	6448.12
899.409	6451.12
899.647	6504.12
899.886	6461.12
900.124	6487.12
900.363	6437.12
900.601	6648.12
900.839	6589.12
901.078	6655.12
901.316	6764.12
901.554	6842.12
901.792	6925.12
902.03	6954.12
902.268	7056.12
902.506	6983.12
902.744	6840.12
902.982	6775.12
903.22	6661.12
903.458	6473.12
903.695	6365.12
903.933	6311.12
904.171	6076.12
904.409	6002.12
904.646	5966.12
904.884	5854.12
905.121	5775.12
905.359	5716.12
905.596	5625.12
905.833	5515.12
906.071	5527.12
906.308	5582.12
906.545	5490.12
906.783	5457.12
907.02	5462.12
907.257	5406.12
907.494	5414.12
907.731	5437.12
907.968	5432.12
908.205	5317.12
908.442	5281.12
908.679	5309.12
908.915	5266.12
909.152	5223.12
909.389	5165.12
909.626	5130.12
909.862	5116.12
910.099	5037.12
910.335	5130.12
910.572	4983.12
910.808	4956.12
911.045	5001.12
911.281	4958.12
911.518	5011.12
911.754	4935.12
911.99	4885.12
912.226	4908.12
912.463	4809.12
912.699	4818.12
912.935	4809.12
913.171	4699.12
913.407	4674.12
913.643	4746.12
913.879	4629.12
914.114	4653.12
914.35	4565.12
914.586	4513.12
914.822	4461.12
915.057	4568.12
915.293	4422.12
915.529	4420.12
915.764	4442.12
916	4431.12
916.235	4441.12
916.471	4470.12
916.706	4374.12
916.941	4382.12
917.177	4357.12
917.412	4395.12
917.647	4398.12
917.882	4363.12
918.117	4435.12
918.352	4351.12
918.588	4406.12
918.823	4287.12
919.057	4258.12
919.292	4180.12
919.527	4267.12
919.762	4102.12
919.997	4225.12
920.232	4062.12
920.466	4092.12
920.701	4002.12
920.935	4035.12
921.17	3990.12
921.405	3922.12
921.639	4016.12
921.873	3970.12
922.108	3973.12
922.342	3984.12
922.576	3892.12
922.811	3873.12
923.045	3890.12
923.279	3949.12
923.513	3814.12
923.747	3867.12
923.981	3865.12
924.215	3782.12
924.449	3764.12
924.683	3700.12
924.917	3754.12
925.151	3738.12
925.385	3825.12
925.618	3758.12
925.852	3704.12
926.086	3635.12
926.319	3701.12
926.553	3700.12
926.786	3699.12
927.02	3702.12
927.253	3762.12
927.486	3697.12
927.72	3651.12
927.953	3706.12
928.186	3665.12
928.42	3684.12
928.653	3650.12
928.886	3607.12
929.119	3637.12
929.352	3574.12
929.585	3594.12
929.818	3527.12
930.051	3528.12
930.284	3597.12
930.516	3421.12
930.749	3418.12
930.982	3466.12
931.215	3416.12
931.447	3386.12
931.68	3386.12
931.912	3399.12
932.145	3388.12
932.377	3379.12
932.61	3559.12
932.842	3310.12
933.074	3403.12
933.307	3359.12
933.539	3495.12
933.771	3437.12
934.003	3412.12
934.236	3460.12
934.468	3467.12
934.7	3369.12
934.932	3429.12
935.164	3344.12
935.395	3389.12
935.627	3330.12
935.859	3371.12
936.091	3325.12
936.323	3356.12
936.554	3390.12
936.786	3305.12
937.017	3273.12
937.249	3298.12
937.481	3250.12
937.712	3308.12
937.943	3311.12
938.175	3262.12
938.406	3236.12
938.637	3334.12
938.869	3205.12
939.1	3227.12
939.331	3225.12
939.562	3269.12
939.793	3241.12
940.024	3294.12
940.255	3271.12
940.486	3233.12
940.717	3181.12
940.948	3184.12
941.179	3111.12
941.409	3192.12
941.64	3109.12
941.871	3143.12
942.102	3165.12
942.332	3141.12
942.563	3172.12
942.793	3180.12
943.024	3110.12
943.254	3168.12
943.484	3185.12
943.715	3186.12
943.945	3118.12
944.175	3109.12
944.405	3113.12
944.636	3083.12
944.866	3143.12
945.096	3169.12
945.326	3080.12
945.556	3099.12
945.786	3152.12
946.016	3070.12
946.245	3023.12
946.475	3006.12
946.705	3042.12
946.935	3051.12
947.164	3060.12
947.394	2982.12
947.624	3001.12
947.853	3002.12
948.083	2980.12
948.312	2940.12
948.542	2871.12
948.771	2891.12
949	2894.12
949.23	2904.12
949.459	2888.12
949.688	2957.12
949.917	2918.12
950.146	2911.12
950.375	2928.12
950.604	2836.12
950.833	2963.12
951.062	2948.12
951.291	2890.12
951.52	2875.12
951.749	2923.12
951.978	2839.12
952.206	2866.12
952.435	2853.12
952.664	2906.12
952.892	2852.12
953.121	2848.12
953.349	2910.12
953.578	2852.12
953.806	2805.12
954.035	2724.12
954.263	2804.12
954.491	2744.12
954.719	2815.12
954.948	2722.12
955.176	2760.12
955.404	2662.12
955.632	2746.12
955.86	2707.12
956.088	2698.12
956.316	2710.12
956.544	2727.12
956.772	2654.12
956.999	2667.12
957.227	2696.12
957.455	2644.12
957.683	2659.12
957.91	2624.12
958.138	2569.12
958.365	2615.12
958.593	2606.12
958.82	2531.12
959.048	2601.12
959.275	2573.12
959.502	2569.12
959.73	2515.12
959.957	2559.12
960.184	2592.12
960.411	2542.12
960.638	2605.12
960.865	2552.12
961.092	2571.12
961.319	2468.12
961.546	2539.12
961.773	2574.12
962	2512.12
962.227	2606.12
962.454	2515.12
962.68	2509.12
962.907	2543.12
963.134	2481.12
963.36	2485.12
963.587	2516.12
963.813	2438.12
964.04	2461.12
964.266	2371.12
964.493	2508.12
964.719	2479.12
964.945	2443.12
965.171	2336.12
965.398	2423.12
965.624	2411.12
965.85	2369.12
966.076	2378.12
966.302	2369.12
966.528	2324.12
966.754	2387.12
966.98	2372.12
967.206	2383.12
967.431	2244.12
967.657	2361.12
967.883	2312.12
968.109	2340.12
968.334	2278.12
968.56	2271.12
968.785	2262.12
969.011	2223.12
969.236	2300.12
969.462	2275.12
969.687	2262.12
969.912	2316.12
970.138	2313.12
970.363	2239.12
970.588	2274.12
970.813	2234.12
971.038	2222.12
971.263	2252.12
971.488	2232.12
971.713	2273.12
971.938	2261.12
972.163	2152.12
972.388	2179.12
972.613	2156.12
972.838	2189.12
973.062	2189.12
973.287	2175.12
973.512	2106.12
973.736	2132.12
973.961	2091.12
974.185	2119.12
974.41	2132.12
974.634	2079.12
974.858	2069.12
975.083	2106.12
975.307	2118.12
975.531	2056.12
975.755	2004.12
975.98	2045.12
976.204	1947.12
976.428	1963.12
976.652	1951.12
976.876	1949.12
977.1	2004.12
977.324	1944.12
977.547	1993.12
977.771	2004.12
977.995	1952.12
978.219	1926.12
978.442	2026.12
978.666	1943.12
978.89	1974.12
979.113	1971.12
979.337	1928.12
979.56	1901.12
979.783	2023.12
980.007	1870.12
980.23	1942.12
980.453	1913.12
980.677	1921.12
980.9	1903.12
981.123	1831.12
981.346	1914.12
981.569	1875.12
981.792	1920.12
982.015	1876.12
982.238	1839.12
982.461	1849.12
982.684	1814.12
982.907	1788.12
983.129	1793.12
983.352	1851.12
983.575	1810.12
983.797	1836.12
984.02	1793.12
984.242	1815.12
984.465	1790.12
984.687	1810.12
984.91	1845.12
985.132	1804.12
985.354	1837.12
985.577	1817.12
985.799	1797.12
986.021	1727.12
986.243	1723.12
986.465	1760.12
986.687	1789.12
986.909	1845.12
987.131	1778.12
987.353	1743.12
987.575	1792.12
987.797	1739.12
988.019	1684.12
988.241	1712.12
988.462	1680.12
988.684	1753.12
988.906	1772.12
989.127	1794.12
989.349	1695.12
989.57	1722.12
989.792	1729.12
990.013	1770.12
990.234	1742.12
990.456	1780.12
990.677	1768.12
990.898	1709.12
991.119	1709.12
991.341	1730.12
991.562	1700.12
991.783	1716.12
992.004	1672.12
992.225	1625.12
992.446	1706.12
992.667	1626.12
992.887	1683.12
993.108	1585.12
993.329	1734.12
993.55	1661.12
993.77	1608.12
993.991	1593.12
994.212	1668.12
994.432	1647.12
994.653	1648.12
994.873	1631.12
995.093	1511.12
995.314	1560.12
995.534	1634.12
995.754	1681.12
995.975	1655.12
996.195	1568.12
996.415	1645.12
996.635	1607.12
996.855	1607.12
997.075	1617.12
997.295	1644.12
997.515	1623.12
997.735	1652.12
997.955	1621.12
998.174	1623.12
998.394	1612.12
998.614	1664.12
998.834	1607.12
999.053	1657.12
999.273	1639.12
999.492	1666.12
999.712	1604.12
999.931	1563.12
1000.151	1565.12
1000.37	1599.12
1000.589	1636.12
1000.809	1544.12
1001.028	1671.12
1001.247	1614.12
1001.466	1482.12
1001.685	1644.12
1001.904	1564.12
1002.123	1522.12
1002.342	1566.12
1002.561	1505.12
1002.78	1532.12
1002.999	1593.12
1003.218	1541.12
1003.436	1512.12
1003.655	1546.12
1003.874	1516.12
1004.092	1510.12
1004.311	1577.12
1004.53	1543.12
1004.748	1590.12
1004.966	1517.12
1005.185	1589.12
1005.403	1589.12
1005.622	1561.12
1005.84	1623.12
1006.058	1534.12
1006.276	1555.12
1006.494	2085.12
1006.712	1569.12
1006.931	1603.12
1007.149	1565.12
1007.367	1560.12
1007.584	1609.12
1007.802	1654.12
1008.02	1620.12
1008.238	1774.12
1008.456	1740.12
1008.673	1654.12
1008.891	1809.12
1009.109	1773.12
1009.326	1834.12
1009.544	2004.12
1009.761	1953.12
1009.979	2100.12
1010.196	2186.12
1010.413	2368.12
1010.631	2513.12
1010.848	2633.12
1011.065	2625.12
1011.282	2609.12
1011.5	2528.12
1011.717	2623.12
1011.934	2546.12
1012.151	2641.12
1012.368	2538.12
1012.585	2490.12
1012.801	2590.12
1013.018	2565.12
1013.235	2555.12
1013.452	2555.12
1013.669	2626.12
1013.885	2586.12
1014.102	2639.12
1014.318	2631.12
1014.535	2623.12
1014.751	2620.12
1014.968	2594.12
1015.184	2624.12
1015.401	2531.12
1015.617	2558.12
1015.833	2453.12
1016.049	2476.12
1016.266	2406.12
1016.482	2425.12
1016.698	2362.12
1016.914	2374.12
1017.13	2324.12
1017.346	2294.12
1017.562	2363.12
1017.778	2299.12
1017.993	2235.12
1018.209	2289.12
1018.425	2256.12
1018.641	2250.12
1018.856	2193.12
1019.072	2229.12
1019.288	2283.12
1019.503	2219.12
1019.719	2160.12
1019.934	2133.12
1020.149	2204.12
1020.365	2130.12
1020.58	2036.12
1020.795	2066.12
1021.011	1985.12
1021.226	1903.12
1021.441	1904.12
1021.656	1797.12
1021.871	1740.12
1022.086	1673.12
1022.301	1675.12
1022.516	1645.12
1022.731	1719.12
1022.946	1583.12
1023.16	1554.12
1023.375	1496.12
1023.59	1462.12
1023.804	1433.12
1024.019	1499.12
1024.234	1348.12
1024.448	1365.12
1024.663	1292.12
1024.877	1279.12
1025.092	1307.12
1025.306	1272.12
1025.52	1170.12
1025.734	1258.12
1025.949	1129.12
1026.163	1105.12
1026.377	1033.12
1026.591	1083.12
1026.805	1014.12
1027.019	995.12
1027.233	954.12
1027.447	892.12
1027.661	989.12
1027.875	924.12
1028.088	952.12
1028.302	861.12
1028.516	853.12
1028.73	832.12
1028.943	818.12
1029.157	771.12
1029.37	693.12
1029.584	-2.88
1029.797	-0.88
1030.011	-2.88
1030.224	-0.88
