Data from QEP037381__155__13-52-54-878.txt Node

Date: Wed Dec 21 13:52:54 EST 2022
User: dcclab
Spectrometer: QEP03738
Trigger mode: 4
Integration Time (sec): 1.000000E1
Scans to average: 1
Electric dark correction enabled: true
Nonlinearity correction enabled: false
Boxcar width: 0
XAxis mode: Wavelengths
Number of Pixels in Spectrum: 1044
>>>>>Begin Spectral Data<<<<<
784.041	14.38
784.3	-0.62
784.558	-3.62
784.817	-4.62
785.075	89916.38
785.334	15133.38
785.592	6953.38
785.851	4725.38
786.109	3558.38
786.368	2807.38
786.626	2268.38
786.884	1870.38
787.143	1584.38
787.401	1320.38
787.659	1195.38
787.917	1036.38
788.175	946.38
788.433	843.38
788.691	743.38
788.949	700.38
789.207	692.38
789.465	585.38
789.723	582.38
789.98	529.38
790.238	561.38
790.496	526.38
790.753	503.38
791.011	546.38
791.268	491.38
791.526	471.38
791.783	502.38
792.041	479.38
792.298	401.38
792.556	453.38
792.813	443.38
793.07	424.38
793.327	402.38
793.584	506.38
793.841	407.38
794.099	440.38
794.356	471.38
794.613	390.38
794.869	426.38
795.126	387.38
795.383	366.38
795.64	386.38
795.897	328.38
796.153	402.38
796.41	390.38
796.667	374.38
796.923	388.38
797.18	367.38
797.436	413.38
797.693	365.38
797.949	433.38
798.206	438.38
798.462	360.38
798.718	406.38
798.974	376.38
799.231	427.38
799.487	413.38
799.743	419.38
799.999	424.38
800.255	434.38
800.511	391.38
800.767	434.38
801.023	413.38
801.279	438.38
801.534	446.38
801.79	475.38
802.046	488.38
802.302	549.38
802.557	564.38
802.813	649.38
803.068	698.38
803.324	949.38
803.579	1198.38
803.835	1563.38
804.09	2105.38
804.345	2694.38
804.601	3260.38
804.856	3971.38
805.111	4609.38
805.366	4988.38
805.621	5345.38
805.876	5515.38
806.131	5652.38
806.386	5686.38
806.641	5733.38
806.896	5926.38
807.151	6071.38
807.406	6077.38
807.661	6268.38
807.915	6272.38
808.17	6377.38
808.425	6463.38
808.679	6479.38
808.934	6680.38
809.188	6639.38
809.443	6716.38
809.697	6808.38
809.951	6872.38
810.206	6931.38
810.46	7015.38
810.714	7097.38
810.968	7129.38
811.223	7119.38
811.477	7320.38
811.731	7279.38
811.985	7253.38
812.239	7281.38
812.493	7431.38
812.747	7362.38
813	7369.38
813.254	7443.38
813.508	7527.38
813.762	7540.38
814.015	7526.38
814.269	7679.38
814.522	7739.38
814.776	7783.38
815.03	7851.38
815.283	7978.38
815.536	8049.38
815.79	8308.38
816.043	8336.38
816.296	8437.38
816.55	8503.38
816.803	8549.38
817.056	8828.38
817.309	8807.38
817.562	8910.38
817.815	8991.38
818.068	9073.38
818.321	9166.38
818.574	9193.38
818.827	9407.38
819.079	9528.38
819.332	9821.38
819.585	9879.38
819.838	10082.38
820.09	10013.38
820.343	10132.38
820.595	10090.38
820.848	10175.38
821.1	10280.38
821.353	10228.38
821.605	10234.38
821.857	10182.38
822.11	10233.38
822.362	10193.38
822.614	10124.38
822.866	10222.38
823.118	10183.38
823.37	10351.38
823.622	10333.38
823.874	10376.38
824.126	10454.38
824.378	10381.38
824.63	10414.38
824.882	10440.38
825.134	10456.38
825.385	10418.38
825.637	10399.38
825.888	10373.38
826.14	10331.38
826.392	10312.38
826.643	10183.38
826.895	10331.38
827.146	10203.38
827.397	10241.38
827.649	10196.38
827.9	10040.38
828.151	10165.38
828.402	10140.38
828.653	10191.38
828.905	10236.38
829.156	10328.38
829.407	10269.38
829.658	10323.38
829.909	10479.38
830.159	10481.38
830.41	10418.38
830.661	10334.38
830.912	10206.38
831.162	10197.38
831.413	10147.38
831.664	10250.38
831.914	10237.38
832.165	10243.38
832.415	10224.38
832.666	10231.38
832.916	10234.38
833.167	10177.38
833.417	10227.38
833.667	10201.38
833.917	10192.38
834.168	10174.38
834.418	10200.38
834.668	10138.38
834.918	10010.38
835.168	10074.38
835.418	10019.38
835.668	10047.38
835.918	10002.38
836.167	9997.38
836.417	9887.38
836.667	9969.38
836.917	9983.38
837.166	9942.38
837.416	9995.38
837.666	9941.38
837.915	9965.38
838.165	9905.38
838.414	9921.38
838.663	9793.38
838.913	9993.38
839.162	9886.38
839.411	9937.38
839.661	9838.38
839.91	9896.38
840.159	9904.38
840.408	10010.38
840.657	9945.38
840.906	9988.38
841.155	10002.38
841.404	9883.38
841.653	9972.38
841.902	10019.38
842.15	9985.38
842.399	10061.38
842.648	10052.38
842.897	10006.38
843.145	9905.38
843.394	9777.38
843.642	9784.38
843.891	9824.38
844.139	9771.38
844.388	9635.38
844.636	9587.38
844.884	9525.38
845.133	9644.38
845.381	9680.38
845.629	9716.38
845.877	9633.38
846.125	9582.38
846.373	9616.38
846.621	9581.38
846.869	9599.38
847.117	9555.38
847.365	9455.38
847.613	9481.38
847.861	9504.38
848.108	9551.38
848.356	9475.38
848.604	9413.38
848.851	9462.38
849.099	9519.38
849.346	9462.38
849.594	9627.38
849.841	9537.38
850.089	9647.38
850.336	9638.38
850.583	9639.38
850.831	9582.38
851.078	9562.38
851.325	9501.38
851.572	9598.38
851.819	9534.38
852.066	9308.38
852.313	9263.38
852.56	9170.38
852.807	9050.38
853.054	9143.38
853.301	9122.38
853.548	9171.38
853.794	9294.38
854.041	9269.38
854.288	9316.38
854.534	9429.38
854.781	9406.38
855.028	9329.38
855.274	9423.38
855.52	9306.38
855.767	9322.38
856.013	9402.38
856.26	9699.38
856.506	9218.38
856.752	9305.38
856.998	9179.38
857.244	9204.38
857.49	9339.38
857.736	9378.38
857.982	9371.38
858.228	9375.38
858.474	9250.38
858.72	9161.38
858.966	9020.38
859.212	9024.38
859.458	8899.38
859.703	8847.38
859.949	8675.38
860.195	8706.38
860.44	8627.38
860.686	8709.38
860.931	8621.38
861.177	8583.38
861.422	8584.38
861.667	8449.38
861.913	8440.38
862.158	8460.38
862.403	8510.38
862.648	8595.38
862.893	8573.38
863.138	8524.38
863.384	8483.38
863.629	8561.38
863.873	8574.38
864.118	8484.38
864.363	8461.38
864.608	8443.38
864.853	8430.38
865.098	8329.38
865.342	8370.38
865.587	8302.38
865.832	8396.38
866.076	8340.38
866.321	8323.38
866.565	8222.38
866.81	8211.38
867.054	8245.38
867.298	8271.38
867.543	8165.38
867.787	8228.38
868.031	8263.38
868.275	8231.38
868.519	8234.38
868.764	8187.38
869.008	8241.38
869.252	8227.38
869.496	8238.38
869.739	8225.38
869.983	8259.38
870.227	8281.38
870.471	8288.38
870.715	8337.38
870.958	8366.38
871.202	8370.38
871.446	8409.38
871.689	8456.38
871.933	8431.38
872.176	8436.38
872.42	8363.38
872.663	8363.38
872.906	8476.38
873.15	8413.38
873.393	8416.38
873.636	8505.38
873.879	8348.38
874.122	8302.38
874.366	8178.38
874.609	8113.38
874.852	8017.38
875.095	7945.38
875.337	7905.38
875.58	7758.38
875.823	7775.38
876.066	7834.38
876.309	7794.38
876.551	7678.38
876.794	7662.38
877.037	7671.38
877.279	7681.38
877.522	7672.38
877.764	7723.38
878.007	7634.38
878.249	7606.38
878.491	7608.38
878.734	7610.38
878.976	7505.38
879.218	7458.38
879.46	7486.38
879.702	7435.38
879.945	7366.38
880.187	7210.38
880.429	7313.38
880.671	7211.38
880.912	7265.38
881.154	7143.38
881.396	7038.38
881.638	7186.38
881.88	7149.38
882.121	7117.38
882.363	7097.38
882.605	7207.38
882.846	7187.38
883.088	7242.38
883.329	7193.38
883.571	7231.38
883.812	7474.38
884.053	7756.38
884.295	8025.38
884.536	8256.38
884.777	8082.38
885.018	8056.38
885.259	8053.38
885.5	7944.38
885.742	8160.38
885.982	7854.38
886.223	7741.38
886.464	7628.38
886.705	7512.38
886.946	7400.38
887.187	7249.38
887.428	7169.38
887.668	6969.38
887.909	6854.38
888.15	6741.38
888.39	6723.38
888.631	6666.38
888.871	6594.38
889.111	6556.38
889.352	6521.38
889.592	6397.38
889.833	6404.38
890.073	6332.38
890.313	6349.38
890.553	6214.38
890.793	6271.38
891.033	6176.38
891.273	6182.38
891.513	6137.38
891.753	6131.38
891.993	6174.38
892.233	6178.38
892.473	6255.38
892.713	6183.38
892.952	6138.38
893.192	6236.38
893.432	6217.38
893.671	6243.38
893.911	6155.38
894.15	6213.38
894.39	6070.38
894.629	6102.38
894.869	6060.38
895.108	6057.38
895.347	5988.38
895.587	5954.38
895.826	5971.38
896.065	5953.38
896.304	5988.38
896.543	6025.38
896.782	5858.38
897.021	5957.38
897.26	5924.38
897.499	6010.38
897.738	6012.38
897.977	5930.38
898.216	5887.38
898.454	5829.38
898.693	5764.38
898.932	5774.38
899.17	5820.38
899.409	5777.38
899.647	5798.38
899.886	5735.38
900.124	5753.38
900.363	5785.38
900.601	5852.38
900.839	5885.38
901.078	5881.38
901.316	5961.38
901.554	6056.38
901.792	6071.38
902.03	6115.38
902.268	6144.38
902.506	6162.38
902.744	6064.38
902.982	6066.38
903.22	5887.38
903.458	5772.38
903.695	5686.38
903.933	5568.38
904.171	5488.38
904.409	5333.38
904.646	5327.38
904.884	5218.38
905.121	5198.38
905.359	5174.38
905.596	5059.38
905.833	4997.38
906.071	4993.38
906.308	5030.38
906.545	4976.38
906.783	4917.38
907.02	4906.38
907.257	4868.38
907.494	4873.38
907.731	4946.38
907.968	4908.38
908.205	4844.38
908.442	4847.38
908.679	4822.38
908.915	4775.38
909.152	4764.38
909.389	4648.38
909.626	4682.38
909.862	4621.38
910.099	4588.38
910.335	4645.38
910.572	4501.38
910.808	4600.38
911.045	4519.38
911.281	4502.38
911.518	4582.38
911.754	4519.38
911.99	4471.38
912.226	4400.38
912.463	4406.38
912.699	4387.38
912.935	4371.38
913.171	4343.38
913.407	4249.38
913.643	4291.38
913.879	4223.38
914.114	4205.38
914.35	4156.38
914.586	4133.38
914.822	4092.38
915.057	4195.38
915.293	4058.38
915.529	4016.38
915.764	4113.38
916	4056.38
916.235	4063.38
916.471	4060.38
916.706	3933.38
916.941	4006.38
917.177	3985.38
917.412	4016.38
917.647	4008.38
917.882	3955.38
918.117	3996.38
918.352	3980.38
918.588	4003.38
918.823	3941.38
919.057	3884.38
919.292	3833.38
919.527	3880.38
919.762	3809.38
919.997	3880.38
920.232	3716.38
920.466	3774.38
920.701	3653.38
920.935	3673.38
921.17	3668.38
921.405	3591.38
921.639	3638.38
921.873	3611.38
922.108	3643.38
922.342	3623.38
922.576	3578.38
922.811	3552.38
923.045	3629.38
923.279	3609.38
923.513	3498.38
923.747	3570.38
923.981	3544.38
924.215	3482.38
924.449	3464.38
924.683	3417.38
924.917	3435.38
925.151	3427.38
925.385	3532.38
925.618	3389.38
925.852	3416.38
926.086	3377.38
926.319	3417.38
926.553	3394.38
926.786	3448.38
927.02	3394.38
927.253	3426.38
927.486	3425.38
927.72	3304.38
927.953	3380.38
928.186	3334.38
928.42	3383.38
928.653	3329.38
928.886	3319.38
929.119	3348.38
929.352	3324.38
929.585	3303.38
929.818	3284.38
930.051	3307.38
930.284	3253.38
930.516	3157.38
930.749	3121.38
930.982	3235.38
931.215	3181.38
931.447	3069.38
931.68	3130.38
931.912	3100.38
932.145	3097.38
932.377	3124.38
932.61	3276.38
932.842	3091.38
933.074	3153.38
933.307	3084.38
933.539	3182.38
933.771	3171.38
934.003	3115.38
934.236	3217.38
934.468	3214.38
934.7	3130.38
934.932	3154.38
935.164	3112.38
935.395	3112.38
935.627	3137.38
935.859	3108.38
936.091	3018.38
936.323	3087.38
936.554	3114.38
936.786	3041.38
937.017	3007.38
937.249	3104.38
937.481	2992.38
937.712	3082.38
937.943	3053.38
938.175	3041.38
938.406	2991.38
938.637	3092.38
938.869	3004.38
939.1	3047.38
939.331	2975.38
939.562	3014.38
939.793	3003.38
940.024	3007.38
940.255	3017.38
940.486	2975.38
940.717	2936.38
940.948	2948.38
941.179	2913.38
941.409	2894.38
941.64	2920.38
941.871	2925.38
942.102	2907.38
942.332	2906.38
942.563	2975.38
942.793	2979.38
943.024	2888.38
943.254	2912.38
943.484	2963.38
943.715	2970.38
943.945	2969.38
944.175	2881.38
944.405	2852.38
944.636	2886.38
944.866	2917.38
945.096	2897.38
945.326	2880.38
945.556	2922.38
945.786	2945.38
946.016	2909.38
946.245	2854.38
946.475	2835.38
946.705	2786.38
946.935	2813.38
947.164	2840.38
947.394	2790.38
947.624	2792.38
947.853	2796.38
948.083	2770.38
948.312	2744.38
948.542	2698.38
948.771	2684.38
949	2706.38
949.23	2703.38
949.459	2726.38
949.688	2781.38
949.917	2725.38
950.146	2746.38
950.375	2779.38
950.604	2698.38
950.833	2782.38
951.062	2768.38
951.291	2730.38
951.52	2686.38
951.749	2659.38
951.978	2649.38
952.206	2678.38
952.435	2648.38
952.664	2682.38
952.892	2714.38
953.121	2654.38
953.349	2689.38
953.578	2685.38
953.806	2645.38
954.035	2605.38
954.263	2631.38
954.491	2596.38
954.719	2659.38
954.948	2577.38
955.176	2574.38
955.404	2484.38
955.632	2586.38
955.86	2579.38
956.088	2545.38
956.316	2569.38
956.544	2587.38
956.772	2495.38
956.999	2458.38
957.227	2588.38
957.455	2437.38
957.683	2477.38
957.91	2424.38
958.138	2439.38
958.365	2476.38
958.593	2408.38
958.82	2364.38
959.048	2440.38
959.275	2426.38
959.502	2388.38
959.73	2399.38
959.957	2449.38
960.184	2468.38
960.411	2398.38
960.638	2491.38
960.865	2412.38
961.092	2445.38
961.319	2335.38
961.546	2432.38
961.773	2475.38
962	2390.38
962.227	2433.38
962.454	2401.38
962.68	2400.38
962.907	2396.38
963.134	2332.38
963.36	2352.38
963.587	2368.38
963.813	2292.38
964.04	2363.38
964.266	2268.38
964.493	2363.38
964.719	2325.38
964.945	2327.38
965.171	2243.38
965.398	2254.38
965.624	2315.38
965.85	2211.38
966.076	2232.38
966.302	2254.38
966.528	2230.38
966.754	2261.38
966.98	2234.38
967.206	2232.38
967.431	2156.38
967.657	2262.38
967.883	2230.38
968.109	2253.38
968.334	2180.38
968.56	2150.38
968.785	2161.38
969.011	2158.38
969.236	2211.38
969.462	2158.38
969.687	2157.38
969.912	2200.38
970.138	2221.38
970.363	2127.38
970.588	2171.38
970.813	2117.38
971.038	2107.38
971.263	2124.38
971.488	2149.38
971.713	2153.38
971.938	2140.38
972.163	2071.38
972.388	2074.38
972.613	2066.38
972.838	2069.38
973.062	2049.38
973.287	2069.38
973.512	1995.38
973.736	2045.38
973.961	2017.38
974.185	2004.38
974.41	2028.38
974.634	1948.38
974.858	1961.38
975.083	1998.38
975.307	2036.38
975.531	1940.38
975.755	1918.38
975.98	1947.38
976.204	1889.38
976.428	1868.38
976.652	1884.38
976.876	1829.38
977.1	1880.38
977.324	1868.38
977.547	1907.38
977.771	1939.38
977.995	1908.38
978.219	1829.38
978.442	1941.38
978.666	1853.38
978.89	1886.38
979.113	1871.38
979.337	1851.38
979.56	1829.38
979.783	1931.38
980.007	1815.38
980.23	1869.38
980.453	1811.38
980.677	1849.38
980.9	1816.38
981.123	1723.38
981.346	1846.38
981.569	1814.38
981.792	1816.38
982.015	1791.38
982.238	1768.38
982.461	1777.38
982.684	1783.38
982.907	1729.38
983.129	1738.38
983.352	1771.38
983.575	1764.38
983.797	1768.38
984.02	1722.38
984.242	1701.38
984.465	1740.38
984.687	1746.38
984.91	1765.38
985.132	1758.38
985.354	1769.38
985.577	1712.38
985.799	1710.38
986.021	1655.38
986.243	1692.38
986.465	1654.38
986.687	1740.38
986.909	1773.38
987.131	1714.38
987.353	1691.38
987.575	1722.38
987.797	1701.38
988.019	1625.38
988.241	1680.38
988.462	1633.38
988.684	1708.38
988.906	1708.38
989.127	1728.38
989.349	1633.38
989.57	1660.38
989.792	1690.38
990.013	1700.38
990.234	1718.38
990.456	1752.38
990.677	1692.38
990.898	1633.38
991.119	1660.38
991.341	1676.38
991.562	1602.38
991.783	1644.38
992.004	1594.38
992.225	1573.38
992.446	1637.38
992.667	1546.38
992.887	1627.38
993.108	1536.38
993.329	1646.38
993.55	1606.38
993.77	1561.38
993.991	1548.38
994.212	1578.38
994.432	1537.38
994.653	1563.38
994.873	1602.38
995.093	1484.38
995.314	1527.38
995.534	1614.38
995.754	1605.38
995.975	1626.38
996.195	1498.38
996.415	1577.38
996.635	1531.38
996.855	1572.38
997.075	1545.38
997.295	1567.38
997.515	1520.38
997.735	1628.38
997.955	1580.38
998.174	1583.38
998.394	1540.38
998.614	1556.38
998.834	1521.38
999.053	1590.38
999.273	1548.38
999.492	1596.38
999.712	1536.38
999.931	1501.38
1000.151	1518.38
1000.37	1508.38
1000.589	1563.38
1000.809	1498.38
1001.028	1614.38
1001.247	1547.38
1001.466	1467.38
1001.685	1597.38
1001.904	1523.38
1002.123	1523.38
1002.342	1494.38
1002.561	1437.38
1002.78	1482.38
1002.999	1525.38
1003.218	1467.38
1003.436	1482.38
1003.655	1540.38
1003.874	1459.38
1004.092	1474.38
1004.311	1521.38
1004.53	1475.38
1004.748	1541.38
1004.966	1492.38
1005.185	1535.38
1005.403	1527.38
1005.622	1513.38
1005.84	1580.38
1006.058	1473.38
1006.276	1489.38
1006.494	1993.38
1006.712	1493.38
1006.931	1594.38
1007.149	1501.38
1007.367	1533.38
1007.584	1553.38
1007.802	1585.38
1008.02	1570.38
1008.238	1658.38
1008.456	1678.38
1008.673	1560.38
1008.891	1697.38
1009.109	1657.38
1009.326	1731.38
1009.544	1826.38
1009.761	1808.38
1009.979	1941.38
1010.196	1986.38
1010.413	2175.38
1010.631	2267.38
1010.848	2348.38
1011.065	2377.38
1011.282	2354.38
1011.5	2264.38
1011.717	2367.38
1011.934	2307.38
1012.151	2320.38
1012.368	2312.38
1012.585	2239.38
1012.801	2317.38
1013.018	2287.38
1013.235	2285.38
1013.452	2314.38
1013.669	2336.38
1013.885	2328.38
1014.102	2359.38
1014.318	2324.38
1014.535	2300.38
1014.751	2359.38
1014.968	2345.38
1015.184	2337.38
1015.401	2272.38
1015.617	2278.38
1015.833	2210.38
1016.049	2226.38
1016.266	2169.38
1016.482	2144.38
1016.698	2111.38
1016.914	2158.38
1017.13	2068.38
1017.346	2084.38
1017.562	2121.38
1017.778	2058.38
1017.993	2032.38
1018.209	2053.38
1018.425	2081.38
1018.641	2024.38
1018.856	1978.38
1019.072	2030.38
1019.288	2094.38
1019.503	2033.38
1019.719	1944.38
1019.934	1963.38
1020.149	2037.38
1020.365	1906.38
1020.58	1864.38
1020.795	1889.38
1021.011	1813.38
1021.226	1754.38
1021.441	1767.38
1021.656	1663.38
1021.871	1588.38
1022.086	1572.38
1022.301	1550.38
1022.516	1523.38
1022.731	1572.38
1022.946	1471.38
1023.16	1462.38
1023.375	1408.38
1023.59	1358.38
1023.804	1330.38
1024.019	1390.38
1024.234	1271.38
1024.448	1270.38
1024.663	1201.38
1024.877	1202.38
1025.092	1223.38
1025.306	1204.38
1025.52	1082.38
1025.734	1181.38
1025.949	1063.38
1026.163	1072.38
1026.377	970.38
1026.591	1027.38
1026.805	944.38
1027.019	937.38
1027.233	908.38
1027.447	845.38
1027.661	940.38
1027.875	873.38
1028.088	898.38
1028.302	812.38
1028.516	799.38
1028.73	790.38
1028.943	771.38
1029.157	696.38
1029.37	675.38
1029.584	2.38
1029.797	-2.62
1030.011	-3.62
1030.224	-1.62
