Data from QEP037381__148__13-51-44-874.txt Node

Date: Wed Dec 21 13:51:44 EST 2022
User: dcclab
Spectrometer: QEP03738
Trigger mode: 4
Integration Time (sec): 1.000000E1
Scans to average: 1
Electric dark correction enabled: true
Nonlinearity correction enabled: false
Boxcar width: 0
XAxis mode: Wavelengths
Number of Pixels in Spectrum: 1044
>>>>>Begin Spectral Data<<<<<
784.041	8.88
784.3	2.88
784.558	-3.12
784.817	-2.12
785.075	89660.88
785.334	15116.88
785.592	6938.88
785.851	4815.88
786.109	3621.88
786.368	2832.88
786.626	2314.88
786.884	1903.88
787.143	1601.88
787.401	1331.88
787.659	1208.88
787.917	1027.88
788.175	974.88
788.433	839.88
788.691	763.88
788.949	708.88
789.207	692.88
789.465	581.88
789.723	558.88
789.98	518.88
790.238	580.88
790.496	537.88
790.753	499.88
791.011	564.88
791.268	492.88
791.526	482.88
791.783	495.88
792.041	469.88
792.298	403.88
792.556	460.88
792.813	445.88
793.07	422.88
793.327	416.88
793.584	486.88
793.841	411.88
794.099	428.88
794.356	495.88
794.613	387.88
794.869	426.88
795.126	395.88
795.383	372.88
795.64	392.88
795.897	347.88
796.153	399.88
796.41	397.88
796.667	368.88
796.923	386.88
797.18	379.88
797.436	411.88
797.693	374.88
797.949	418.88
798.206	439.88
798.462	355.88
798.718	412.88
798.974	389.88
799.231	431.88
799.487	406.88
799.743	404.88
799.999	448.88
800.255	419.88
800.511	401.88
800.767	446.88
801.023	414.88
801.279	432.88
801.534	448.88
801.79	484.88
802.046	459.88
802.302	544.88
802.557	566.88
802.813	662.88
803.068	701.88
803.324	947.88
803.579	1156.88
803.835	1535.88
804.09	2125.88
804.345	2679.88
804.601	3376.88
804.856	3999.88
805.111	4763.88
805.366	5197.88
805.621	5483.88
805.876	5648.88
806.131	5809.88
806.386	5957.88
806.641	5956.88
806.896	6117.88
807.151	6187.88
807.406	6276.88
807.661	6414.88
807.915	6473.88
808.17	6604.88
808.425	6677.88
808.679	6663.88
808.934	6841.88
809.188	6834.88
809.443	7004.88
809.697	7055.88
809.951	7013.88
810.206	7111.88
810.46	7278.88
810.714	7297.88
810.968	7393.88
811.223	7409.88
811.477	7461.88
811.731	7563.88
811.985	7525.88
812.239	7618.88
812.493	7612.88
812.747	7652.88
813	7634.88
813.254	7708.88
813.508	7788.88
813.762	7754.88
814.015	7872.88
814.269	7866.88
814.522	7994.88
814.776	8024.88
815.03	8179.88
815.283	8248.88
815.536	8367.88
815.79	8544.88
816.043	8647.88
816.296	8777.88
816.55	8849.88
816.803	8995.88
817.056	9129.88
817.309	9122.88
817.562	9251.88
817.815	9447.88
818.068	9423.88
818.321	9488.88
818.574	9619.88
818.827	9831.88
819.079	9865.88
819.332	10161.88
819.585	10285.88
819.838	10395.88
820.09	10336.88
820.343	10471.88
820.595	10556.88
820.848	10626.88
821.1	10728.88
821.353	10652.88
821.605	10693.88
821.857	10712.88
822.11	10634.88
822.362	10641.88
822.614	10575.88
822.866	10671.88
823.118	10545.88
823.37	10729.88
823.622	10768.88
823.874	10844.88
824.126	10919.88
824.378	10836.88
824.63	10859.88
824.882	10935.88
825.134	10800.88
825.385	10914.88
825.637	10901.88
825.888	10844.88
826.14	10807.88
826.392	10743.88
826.643	10698.88
826.895	10778.88
827.146	10597.88
827.397	10604.88
827.649	10662.88
827.9	10589.88
828.151	10616.88
828.402	10657.88
828.653	10713.88
828.905	10730.88
829.156	10836.88
829.407	10754.88
829.658	10758.88
829.909	10864.88
830.159	10912.88
830.41	10849.88
830.661	10835.88
830.912	10671.88
831.162	10659.88
831.413	10699.88
831.664	10714.88
831.914	10716.88
832.165	10722.88
832.415	10696.88
832.666	10681.88
832.916	10696.88
833.167	10735.88
833.417	10696.88
833.667	10711.88
833.917	10647.88
834.168	10656.88
834.418	10658.88
834.668	10618.88
834.918	10565.88
835.168	10622.88
835.418	10426.88
835.668	10457.88
835.918	10466.88
836.167	10460.88
836.417	10395.88
836.667	10445.88
836.917	10441.88
837.166	10427.88
837.416	10501.88
837.666	10471.88
837.915	10449.88
838.165	10360.88
838.414	10345.88
838.663	10321.88
838.913	10343.88
839.162	10382.88
839.411	10463.88
839.661	10337.88
839.91	10395.88
840.159	10337.88
840.408	10370.88
840.657	10411.88
840.906	10468.88
841.155	10438.88
841.404	10319.88
841.653	10419.88
841.902	10403.88
842.15	10504.88
842.399	10486.88
842.648	10479.88
842.897	10435.88
843.145	10288.88
843.394	10278.88
843.642	10321.88
843.891	10292.88
844.139	10145.88
844.388	10071.88
844.636	10067.88
844.884	10120.88
845.133	10062.88
845.381	10053.88
845.629	10050.88
845.877	10108.88
846.125	10071.88
846.373	10160.88
846.621	9991.88
846.869	10044.88
847.117	9979.88
847.365	9934.88
847.613	9921.88
847.861	9957.88
848.108	9984.88
848.356	9934.88
848.604	9880.88
848.851	9939.88
849.099	9947.88
849.346	9931.88
849.594	10028.88
849.841	10068.88
850.089	10057.88
850.336	10153.88
850.583	10066.88
850.831	10088.88
851.078	10128.88
851.325	10037.88
851.572	10069.88
851.819	9906.88
852.066	9754.88
852.313	9623.88
852.56	9592.88
852.807	9542.88
853.054	9557.88
853.301	9524.88
853.548	9563.88
853.794	9725.88
854.041	9780.88
854.288	9595.88
854.534	9943.88
854.781	9897.88
855.028	9839.88
855.274	9895.88
855.52	9764.88
855.767	9747.88
856.013	9791.88
856.26	10119.88
856.506	9672.88
856.752	9667.88
856.998	9713.88
857.244	9686.88
857.49	9805.88
857.736	9828.88
857.982	9797.88
858.228	9789.88
858.474	9638.88
858.72	9625.88
858.966	9531.88
859.212	9415.88
859.458	9373.88
859.703	9283.88
859.949	9204.88
860.195	9175.88
860.44	9138.88
860.686	9127.88
860.931	9109.88
861.177	9031.88
861.422	9094.88
861.667	8938.88
861.913	8896.88
862.158	8950.88
862.403	9026.88
862.648	9026.88
862.893	9007.88
863.138	8971.88
863.384	8959.88
863.629	9015.88
863.873	9019.88
864.118	8988.88
864.363	8896.88
864.608	8910.88
864.853	8907.88
865.098	8804.88
865.342	8777.88
865.587	8801.88
865.832	8733.88
866.076	8754.88
866.321	8711.88
866.565	8771.88
866.81	8632.88
867.054	8722.88
867.298	8624.88
867.543	8688.88
867.787	8722.88
868.031	8650.88
868.275	8596.88
868.519	8755.88
868.764	8609.88
869.008	8640.88
869.252	8632.88
869.496	8648.88
869.739	8641.88
869.983	8728.88
870.227	8716.88
870.471	8724.88
870.715	8763.88
870.958	8787.88
871.202	8766.88
871.446	8809.88
871.689	8884.88
871.933	8869.88
872.176	8812.88
872.42	8792.88
872.663	8772.88
872.906	8836.88
873.15	8835.88
873.393	8738.88
873.636	8861.88
873.879	8817.88
874.122	8710.88
874.366	8486.88
874.609	8390.88
874.852	8397.88
875.095	8344.88
875.337	8309.88
875.58	8223.88
875.823	8211.88
876.066	8142.88
876.309	8225.88
876.551	8061.88
876.794	8046.88
877.037	8122.88
877.279	8064.88
877.522	8040.88
877.764	8102.88
878.007	8053.88
878.249	8026.88
878.491	8013.88
878.734	8028.88
878.976	8008.88
879.218	7907.88
879.46	7971.88
879.702	7889.88
879.945	7808.88
880.187	7644.88
880.429	7698.88
880.671	7644.88
880.912	7675.88
881.154	7622.88
881.396	7518.88
881.638	7575.88
881.88	7626.88
882.121	7561.88
882.363	7544.88
882.605	7613.88
882.846	7557.88
883.088	7673.88
883.329	7644.88
883.571	7718.88
883.812	7907.88
884.053	8041.88
884.295	8302.88
884.536	8505.88
884.777	8442.88
885.018	8429.88
885.259	8272.88
885.5	8168.88
885.742	8421.88
885.982	8137.88
886.223	8046.88
886.464	8013.88
886.705	7848.88
886.946	7813.88
887.187	7597.88
887.428	7580.88
887.668	7339.88
887.909	7241.88
888.15	7148.88
888.39	7154.88
888.631	7130.88
888.871	7040.88
889.111	6977.88
889.352	6952.88
889.592	6876.88
889.833	6811.88
890.073	6805.88
890.313	6835.88
890.553	6727.88
890.793	6674.88
891.033	6642.88
891.273	6574.88
891.513	6626.88
891.753	6589.88
891.993	6582.88
892.233	6611.88
892.473	6693.88
892.713	6629.88
892.952	6568.88
893.192	6651.88
893.432	6641.88
893.671	6732.88
893.911	6623.88
894.15	6577.88
894.39	6463.88
894.629	6495.88
894.869	6489.88
895.108	6471.88
895.347	6374.88
895.587	6426.88
895.826	6407.88
896.065	6386.88
896.304	6395.88
896.543	6391.88
896.782	6300.88
897.021	6375.88
897.26	6340.88
897.499	6371.88
897.738	6349.88
897.977	6248.88
898.216	6269.88
898.454	6219.88
898.693	6124.88
898.932	6152.88
899.17	6120.88
899.409	6193.88
899.647	6185.88
899.886	6179.88
900.124	6173.88
900.363	6134.88
900.601	6178.88
900.839	6183.88
901.078	6275.88
901.316	6299.88
901.554	6332.88
901.792	6463.88
902.03	6367.88
902.268	6410.88
902.506	6429.88
902.744	6384.88
902.982	6342.88
903.22	6181.88
903.458	6095.88
903.695	6022.88
903.933	5957.88
904.171	5751.88
904.409	5722.88
904.646	5703.88
904.884	5545.88
905.121	5586.88
905.359	5507.88
905.596	5444.88
905.833	5294.88
906.071	5360.88
906.308	5416.88
906.545	5342.88
906.783	5257.88
907.02	5350.88
907.257	5266.88
907.494	5293.88
907.731	5281.88
907.968	5257.88
908.205	5223.88
908.442	5186.88
908.679	5215.88
908.915	5173.88
909.152	5129.88
909.389	5015.88
909.626	5010.88
909.862	4978.88
910.099	4975.88
910.335	5023.88
910.572	4869.88
910.808	4936.88
911.045	4897.88
911.281	4822.88
911.518	4911.88
911.754	4844.88
911.99	4807.88
912.226	4822.88
912.463	4746.88
912.699	4750.88
912.935	4699.88
913.171	4644.88
913.407	4602.88
913.643	4656.88
913.879	4550.88
914.114	4539.88
914.35	4527.88
914.586	4522.88
914.822	4433.88
915.057	4462.88
915.293	4326.88
915.529	4397.88
915.764	4414.88
916	4403.88
916.235	4328.88
916.471	4395.88
916.706	4310.88
916.941	4311.88
917.177	4285.88
917.412	4370.88
917.647	4369.88
917.882	4252.88
918.117	4302.88
918.352	4361.88
918.588	4357.88
918.823	4264.88
919.057	4258.88
919.292	4107.88
919.527	4185.88
919.762	4065.88
919.997	4165.88
920.232	4092.88
920.466	4117.88
920.701	3938.88
920.935	3964.88
921.17	3954.88
921.405	3929.88
921.639	3970.88
921.873	3889.88
922.108	3938.88
922.342	3900.88
922.576	3886.88
922.811	3867.88
923.045	3894.88
923.279	3930.88
923.513	3753.88
923.747	3910.88
923.981	3824.88
924.215	3786.88
924.449	3736.88
924.683	3667.88
924.917	3715.88
925.151	3727.88
925.385	3764.88
925.618	3713.88
925.852	3747.88
926.086	3653.88
926.319	3661.88
926.553	3646.88
926.786	3703.88
927.02	3696.88
927.253	3679.88
927.486	3742.88
927.72	3653.88
927.953	3673.88
928.186	3618.88
928.42	3613.88
928.653	3600.88
928.886	3595.88
929.119	3642.88
929.352	3575.88
929.585	3587.88
929.818	3576.88
930.051	3539.88
930.284	3520.88
930.516	3436.88
930.749	3414.88
930.982	3438.88
931.215	3428.88
931.447	3353.88
931.68	3426.88
931.912	3389.88
932.145	3404.88
932.377	3376.88
932.61	3541.88
932.842	3345.88
933.074	3406.88
933.307	3405.88
933.539	3502.88
933.771	3483.88
934.003	3415.88
934.236	3476.88
934.468	3477.88
934.7	3421.88
934.932	3425.88
935.164	3373.88
935.395	3362.88
935.627	3377.88
935.859	3356.88
936.091	3277.88
936.323	3357.88
936.554	3410.88
936.786	3347.88
937.017	3253.88
937.249	3309.88
937.481	3256.88
937.712	3321.88
937.943	3280.88
938.175	3243.88
938.406	3272.88
938.637	3405.88
938.869	3256.88
939.1	3324.88
939.331	3250.88
939.562	3287.88
939.793	3267.88
940.024	3291.88
940.255	3311.88
940.486	3267.88
940.717	3227.88
940.948	3208.88
941.179	3182.88
941.409	3134.88
941.64	3185.88
941.871	3213.88
942.102	3198.88
942.332	3160.88
942.563	3206.88
942.793	3243.88
943.024	3168.88
943.254	3211.88
943.484	3227.88
943.715	3234.88
943.945	3204.88
944.175	3123.88
944.405	3149.88
944.636	3134.88
944.866	3177.88
945.096	3214.88
945.326	3120.88
945.556	3203.88
945.786	3153.88
946.016	3125.88
946.245	3042.88
946.475	3097.88
946.705	3062.88
946.935	3035.88
947.164	3063.88
947.394	3034.88
947.624	3028.88
947.853	3078.88
948.083	2993.88
948.312	2992.88
948.542	2889.88
948.771	2907.88
949	2946.88
949.23	2920.88
949.459	2959.88
949.688	3047.88
949.917	2935.88
950.146	2980.88
950.375	3038.88
950.604	2934.88
950.833	3008.88
951.062	3041.88
951.291	2924.88
951.52	2913.88
951.749	2926.88
951.978	2916.88
952.206	2902.88
952.435	2882.88
952.664	2912.88
952.892	2915.88
953.121	2907.88
953.349	2958.88
953.578	2906.88
953.806	2888.88
954.035	2848.88
954.263	2877.88
954.491	2786.88
954.719	2866.88
954.948	2827.88
955.176	2799.88
955.404	2751.88
955.632	2774.88
955.86	2813.88
956.088	2772.88
956.316	2769.88
956.544	2811.88
956.772	2767.88
956.999	2728.88
957.227	2795.88
957.455	2754.88
957.683	2766.88
957.91	2678.88
958.138	2641.88
958.365	2662.88
958.593	2649.88
958.82	2590.88
959.048	2678.88
959.275	2659.88
959.502	2635.88
959.73	2622.88
959.957	2694.88
960.184	2722.88
960.411	2624.88
960.638	2693.88
960.865	2636.88
961.092	2638.88
961.319	2521.88
961.546	2668.88
961.773	2632.88
962	2610.88
962.227	2644.88
962.454	2618.88
962.68	2614.88
962.907	2638.88
963.134	2557.88
963.36	2575.88
963.587	2608.88
963.813	2518.88
964.04	2577.88
964.266	2474.88
964.493	2535.88
964.719	2531.88
964.945	2514.88
965.171	2418.88
965.398	2518.88
965.624	2485.88
965.85	2468.88
966.076	2444.88
966.302	2436.88
966.528	2449.88
966.754	2471.88
966.98	2427.88
967.206	2427.88
967.431	2379.88
967.657	2442.88
967.883	2413.88
968.109	2420.88
968.334	2354.88
968.56	2343.88
968.785	2384.88
969.011	2342.88
969.236	2382.88
969.462	2360.88
969.687	2332.88
969.912	2405.88
970.138	2418.88
970.363	2300.88
970.588	2353.88
970.813	2338.88
971.038	2329.88
971.263	2324.88
971.488	2357.88
971.713	2353.88
971.938	2358.88
972.163	2228.88
972.388	2302.88
972.613	2266.88
972.838	2253.88
973.062	2282.88
973.287	2268.88
973.512	2202.88
973.736	2203.88
973.961	2231.88
974.185	2181.88
974.41	2226.88
974.634	2158.88
974.858	2144.88
975.083	2193.88
975.307	2169.88
975.531	2103.88
975.755	2062.88
975.98	2118.88
976.204	2056.88
976.428	2040.88
976.652	2063.88
976.876	2028.88
977.1	2067.88
977.324	2058.88
977.547	2117.88
977.771	2115.88
977.995	2050.88
978.219	1995.88
978.442	2120.88
978.666	2031.88
978.89	2020.88
979.113	2043.88
979.337	2049.88
979.56	2009.88
979.783	2087.88
980.007	1960.88
980.23	2036.88
980.453	1981.88
980.677	2005.88
980.9	2017.88
981.123	1932.88
981.346	2000.88
981.569	1982.88
981.792	2034.88
982.015	1976.88
982.238	1927.88
982.461	1955.88
982.684	1893.88
982.907	1876.88
983.129	1846.88
983.352	1936.88
983.575	1897.88
983.797	1922.88
984.02	1867.88
984.242	1874.88
984.465	1878.88
984.687	1899.88
984.91	1965.88
985.132	1901.88
985.354	1901.88
985.577	1855.88
985.799	1853.88
986.021	1806.88
986.243	1805.88
986.465	1856.88
986.687	1861.88
986.909	1919.88
987.131	1881.88
987.353	1809.88
987.575	1848.88
987.797	1825.88
988.019	1759.88
988.241	1780.88
988.462	1734.88
988.684	1865.88
988.906	1867.88
989.127	1872.88
989.349	1756.88
989.57	1782.88
989.792	1803.88
990.013	1828.88
990.234	1830.88
990.456	1866.88
990.677	1847.88
990.898	1758.88
991.119	1796.88
991.341	1823.88
991.562	1759.88
991.783	1789.88
992.004	1710.88
992.225	1704.88
992.446	1765.88
992.667	1675.88
992.887	1731.88
993.108	1673.88
993.329	1774.88
993.55	1716.88
993.77	1639.88
993.991	1683.88
994.212	1680.88
994.432	1700.88
994.653	1709.88
994.873	1682.88
995.093	1569.88
995.314	1639.88
995.534	1683.88
995.754	1717.88
995.975	1728.88
996.195	1632.88
996.415	1679.88
996.635	1662.88
996.855	1681.88
997.075	1642.88
997.295	1665.88
997.515	1635.88
997.735	1693.88
997.955	1649.88
998.174	1666.88
998.394	1630.88
998.614	1660.88
998.834	1650.88
999.053	1694.88
999.273	1664.88
999.492	1696.88
999.712	1650.88
999.931	1586.88
1000.151	1612.88
1000.37	1606.88
1000.589	1688.88
1000.809	1589.88
1001.028	1689.88
1001.247	1632.88
1001.466	1514.88
1001.685	1646.88
1001.904	1603.88
1002.123	1587.88
1002.342	1598.88
1002.561	1542.88
1002.78	1585.88
1002.999	1640.88
1003.218	1569.88
1003.436	1552.88
1003.655	1605.88
1003.874	1534.88
1004.092	1557.88
1004.311	1591.88
1004.53	1567.88
1004.748	1650.88
1004.966	1540.88
1005.185	1611.88
1005.403	1600.88
1005.622	1574.88
1005.84	1685.88
1006.058	1542.88
1006.276	1564.88
1006.494	2090.88
1006.712	1587.88
1006.931	1659.88
1007.149	1593.88
1007.367	1603.88
1007.584	1634.88
1007.802	1664.88
1008.02	1620.88
1008.238	1734.88
1008.456	1724.88
1008.673	1594.88
1008.891	1713.88
1009.109	1722.88
1009.326	1792.88
1009.544	1892.88
1009.761	1811.88
1009.979	1943.88
1010.196	1981.88
1010.413	2109.88
1010.631	2199.88
1010.848	2316.88
1011.065	2303.88
1011.282	2303.88
1011.5	2214.88
1011.717	2295.88
1011.934	2273.88
1012.151	2282.88
1012.368	2272.88
1012.585	2219.88
1012.801	2256.88
1013.018	2228.88
1013.235	2206.88
1013.452	2231.88
1013.669	2286.88
1013.885	2243.88
1014.102	2292.88
1014.318	2255.88
1014.535	2232.88
1014.751	2293.88
1014.968	2253.88
1015.184	2278.88
1015.401	2174.88
1015.617	2208.88
1015.833	2116.88
1016.049	2110.88
1016.266	2091.88
1016.482	2121.88
1016.698	2027.88
1016.914	2072.88
1017.13	1995.88
1017.346	2004.88
1017.562	2045.88
1017.778	1997.88
1017.993	1938.88
1018.209	1988.88
1018.425	1975.88
1018.641	1983.88
1018.856	1926.88
1019.072	1961.88
1019.288	1979.88
1019.503	1938.88
1019.719	1859.88
1019.934	1859.88
1020.149	1941.88
1020.365	1856.88
1020.58	1803.88
1020.795	1835.88
1021.011	1744.88
1021.226	1714.88
1021.441	1703.88
1021.656	1623.88
1021.871	1568.88
1022.086	1534.88
1022.301	1522.88
1022.516	1501.88
1022.731	1572.88
1022.946	1449.88
1023.16	1411.88
1023.375	1396.88
1023.59	1349.88
1023.804	1310.88
1024.019	1397.88
1024.234	1261.88
1024.448	1284.88
1024.663	1214.88
1024.877	1212.88
1025.092	1199.88
1025.306	1209.88
1025.52	1080.88
1025.734	1203.88
1025.949	1078.88
1026.163	1060.88
1026.377	990.88
1026.591	1034.88
1026.805	966.88
1027.019	944.88
1027.233	913.88
1027.447	858.88
1027.661	973.88
1027.875	908.88
1028.088	901.88
1028.302	820.88
1028.516	806.88
1028.73	801.88
1028.943	784.88
1029.157	727.88
1029.37	679.88
1029.584	-3.12
1029.797	-1.12
1030.011	-1.12
1030.224	-1.12
