Data from QEP037381__124__13-47-44-886.txt Node

Date: Wed Dec 21 13:47:44 EST 2022
User: dcclab
Spectrometer: QEP03738
Trigger mode: 4
Integration Time (sec): 1.000000E1
Scans to average: 1
Electric dark correction enabled: true
Nonlinearity correction enabled: false
Boxcar width: 0
XAxis mode: Wavelengths
Number of Pixels in Spectrum: 1044
>>>>>Begin Spectral Data<<<<<
784.041	12.38
784.3	-2.62
784.558	0.38
784.817	-0.62
785.075	84566.38
785.334	14542.38
785.592	6773.38
785.851	4668.38
786.109	3552.38
786.368	2736.38
786.626	2168.38
786.884	1810.38
787.143	1528.38
787.401	1264.38
787.659	1188.38
787.917	996.38
788.175	936.38
788.433	811.38
788.691	760.38
788.949	699.38
789.207	655.38
789.465	588.38
789.723	557.38
789.98	518.38
790.238	566.38
790.496	527.38
790.753	490.38
791.011	549.38
791.268	494.38
791.526	472.38
791.783	484.38
792.041	473.38
792.298	373.38
792.556	462.38
792.813	449.38
793.07	431.38
793.327	400.38
793.584	480.38
793.841	398.38
794.099	435.38
794.356	487.38
794.613	397.38
794.869	423.38
795.126	388.38
795.383	367.38
795.64	392.38
795.897	350.38
796.153	404.38
796.41	398.38
796.667	373.38
796.923	387.38
797.18	379.38
797.436	399.38
797.693	374.38
797.949	418.38
798.206	444.38
798.462	356.38
798.718	413.38
798.974	388.38
799.231	427.38
799.487	422.38
799.743	419.38
799.999	435.38
800.255	433.38
800.511	408.38
800.767	439.38
801.023	412.38
801.279	446.38
801.534	471.38
801.79	495.38
802.046	479.38
802.302	563.38
802.557	578.38
802.813	684.38
803.068	753.38
803.324	985.38
803.579	1251.38
803.835	1641.38
804.09	2242.38
804.345	2872.38
804.601	3502.38
804.856	4320.38
805.111	4993.38
805.366	5500.38
805.621	5885.38
805.876	6122.38
806.131	6303.38
806.386	6352.38
806.641	6501.38
806.896	6611.38
807.151	6729.38
807.406	6811.38
807.661	6935.38
807.915	7041.38
808.17	7161.38
808.425	7270.38
808.679	7271.38
808.934	7412.38
809.188	7429.38
809.443	7528.38
809.697	7647.38
809.951	7641.38
810.206	7712.38
810.46	7839.38
810.714	7935.38
810.968	7963.38
811.223	7939.38
811.477	8154.38
811.731	8236.38
811.985	8157.38
812.239	8171.38
812.493	8248.38
812.747	8291.38
813	8258.38
813.254	8403.38
813.508	8416.38
813.762	8364.38
814.015	8461.38
814.269	8622.38
814.522	8672.38
814.776	8701.38
815.03	8887.38
815.283	8937.38
815.536	9191.38
815.79	9201.38
816.043	9397.38
816.296	9435.38
816.55	9603.38
816.803	9769.38
817.056	9928.38
817.309	9908.38
817.562	10029.38
817.815	10182.38
818.068	10260.38
818.321	10298.38
818.574	10490.38
818.827	10657.38
819.079	10701.38
819.332	11089.38
819.585	11169.38
819.838	11287.38
820.09	11305.38
820.343	11351.38
820.595	11361.38
820.848	11545.38
821.1	11515.38
821.353	11535.38
821.605	11459.38
821.857	11619.38
822.11	11511.38
822.362	11438.38
822.614	11495.38
822.866	11513.38
823.118	11479.38
823.37	11551.38
823.622	11652.38
823.874	11660.38
824.126	11662.38
824.378	11625.38
824.63	11660.38
824.882	11794.38
825.134	11763.38
825.385	11792.38
825.637	11643.38
825.888	11657.38
826.14	11668.38
826.392	11624.38
826.643	11461.38
826.895	11563.38
827.146	11476.38
827.397	11473.38
827.649	11546.38
827.9	11469.38
828.151	11498.38
828.402	11494.38
828.653	11566.38
828.905	11546.38
829.156	11678.38
829.407	11625.38
829.658	11694.38
829.909	11719.38
830.159	11728.38
830.41	11709.38
830.661	11664.38
830.912	11507.38
831.162	11466.38
831.413	11499.38
831.664	11584.38
831.914	11536.38
832.165	11495.38
832.415	11428.38
832.666	11550.38
832.916	11588.38
833.167	11490.38
833.417	11647.38
833.667	11512.38
833.917	11480.38
834.168	11504.38
834.418	11466.38
834.668	11363.38
834.918	11377.38
835.168	11353.38
835.418	11274.38
835.668	11291.38
835.918	11276.38
836.167	11278.38
836.417	11131.38
836.667	11182.38
836.917	11225.38
837.166	11255.38
837.416	11245.38
837.666	11143.38
837.915	11245.38
838.165	11174.38
838.414	11111.38
838.663	11198.38
838.913	11219.38
839.162	11227.38
839.411	11241.38
839.661	11226.38
839.91	11078.38
840.159	11149.38
840.408	11186.38
840.657	11183.38
840.906	11238.38
841.155	11265.38
841.404	11169.38
841.653	11181.38
841.902	11219.38
842.15	11217.38
842.399	11277.38
842.648	11302.38
842.897	11238.38
843.145	11147.38
843.394	11128.38
843.642	11054.38
843.891	11030.38
844.139	10994.38
844.388	10838.38
844.636	10794.38
844.884	10848.38
845.133	10815.38
845.381	10788.38
845.629	10824.38
845.877	10829.38
846.125	10802.38
846.373	10796.38
846.621	10764.38
846.869	10766.38
847.117	10734.38
847.365	10622.38
847.613	10658.38
847.861	10593.38
848.108	10611.38
848.356	10686.38
848.604	10645.38
848.851	10640.38
849.099	10646.38
849.346	10678.38
849.594	10747.38
849.841	10845.38
850.089	10854.38
850.336	10894.38
850.583	10981.38
850.831	10905.38
851.078	10851.38
851.325	10839.38
851.572	10887.38
851.819	10714.38
852.066	10529.38
852.313	10370.38
852.56	10265.38
852.807	10140.38
853.054	10211.38
853.301	10193.38
853.548	10218.38
853.794	10367.38
854.041	10407.38
854.288	10395.38
854.534	10619.38
854.781	10520.38
855.028	10464.38
855.274	10496.38
855.52	10455.38
855.767	10435.38
856.013	10531.38
856.26	10775.38
856.506	10416.38
856.752	10322.38
856.998	10351.38
857.244	10421.38
857.49	10381.38
857.736	10539.38
857.982	10492.38
858.228	10482.38
858.474	10352.38
858.72	10264.38
858.966	10203.38
859.212	10105.38
859.458	10036.38
859.703	9948.38
859.949	9810.38
860.195	9772.38
860.44	9762.38
860.686	9711.38
860.931	9715.38
861.177	9552.38
861.422	9552.38
861.667	9483.38
861.913	9480.38
862.158	9492.38
862.403	9553.38
862.648	9523.38
862.893	9639.38
863.138	9538.38
863.384	9543.38
863.629	9527.38
863.873	9553.38
864.118	9495.38
864.363	9515.38
864.608	9527.38
864.853	9462.38
865.098	9344.38
865.342	9287.38
865.587	9330.38
865.832	9329.38
866.076	9235.38
866.321	9274.38
866.565	9310.38
866.81	9261.38
867.054	9204.38
867.298	9279.38
867.543	9185.38
867.787	9214.38
868.031	9284.38
868.275	9221.38
868.519	9190.38
868.764	9205.38
869.008	9223.38
869.252	9333.38
869.496	9170.38
869.739	9250.38
869.983	9274.38
870.227	9387.38
870.471	9299.38
870.715	9360.38
870.958	9427.38
871.202	9372.38
871.446	9415.38
871.689	9459.38
871.933	9380.38
872.176	9423.38
872.42	9444.38
872.663	9385.38
872.906	9395.38
873.15	9425.38
873.393	9502.38
873.636	9483.38
873.879	9330.38
874.122	9305.38
874.366	9009.38
874.609	9048.38
874.852	8925.38
875.095	8944.38
875.337	8897.38
875.58	8694.38
875.823	8803.38
876.066	8810.38
876.309	8728.38
876.551	8669.38
876.794	8536.38
877.037	8596.38
877.279	8585.38
877.522	8496.38
877.764	8567.38
878.007	8528.38
878.249	8499.38
878.491	8399.38
878.734	8573.38
878.976	8455.38
879.218	8319.38
879.46	8366.38
879.702	8320.38
879.945	8274.38
880.187	8058.38
880.429	8143.38
880.671	8149.38
880.912	8103.38
881.154	8053.38
881.396	7922.38
881.638	8058.38
881.88	8071.38
882.121	8053.38
882.363	8069.38
882.605	8050.38
882.846	8018.38
883.088	8117.38
883.329	8090.38
883.571	8175.38
883.812	8312.38
884.053	8546.38
884.295	8892.38
884.536	9066.38
884.777	8971.38
885.018	8970.38
885.259	8919.38
885.5	8733.38
885.742	9024.38
885.982	8690.38
886.223	8624.38
886.464	8558.38
886.705	8374.38
886.946	8249.38
887.187	8052.38
887.428	7948.38
887.668	7749.38
887.909	7608.38
888.15	7522.38
888.39	7506.38
888.631	7417.38
888.871	7320.38
889.111	7246.38
889.352	7259.38
889.592	7157.38
889.833	7087.38
890.073	7029.38
890.313	7041.38
890.553	6927.38
890.793	6961.38
891.033	6884.38
891.273	6878.38
891.513	6905.38
891.753	6955.38
891.993	6870.38
892.233	6880.38
892.473	6990.38
892.713	6940.38
892.952	6894.38
893.192	6936.38
893.432	6931.38
893.671	6961.38
893.911	6890.38
894.15	6889.38
894.39	6726.38
894.629	6809.38
894.869	6756.38
895.108	6785.38
895.347	6691.38
895.587	6763.38
895.826	6684.38
896.065	6663.38
896.304	6672.38
896.543	6756.38
896.782	6602.38
897.021	6671.38
897.26	6587.38
897.499	6675.38
897.738	6733.38
897.977	6586.38
898.216	6563.38
898.454	6570.38
898.693	6494.38
898.932	6536.38
899.17	6483.38
899.409	6473.38
899.647	6467.38
899.886	6461.38
900.124	6476.38
900.363	6534.38
900.601	6586.38
900.839	6618.38
901.078	6606.38
901.316	6729.38
901.554	6834.38
901.792	6940.38
902.03	6931.38
902.268	6924.38
902.506	6940.38
902.744	6853.38
902.982	6764.38
903.22	6581.38
903.458	6453.38
903.695	6379.38
903.933	6291.38
904.171	6111.38
904.409	6011.38
904.646	5926.38
904.884	5893.38
905.121	5802.38
905.359	5709.38
905.596	5650.38
905.833	5590.38
906.071	5516.38
906.308	5587.38
906.545	5501.38
906.783	5442.38
907.02	5460.38
907.257	5435.38
907.494	5454.38
907.731	5461.38
907.968	5481.38
908.205	5353.38
908.442	5382.38
908.679	5339.38
908.915	5289.38
909.152	5287.38
909.389	5174.38
909.626	5176.38
909.862	5071.38
910.099	5131.38
910.335	5124.38
910.572	5066.38
910.808	5060.38
911.045	5018.38
911.281	4994.38
911.518	5046.38
911.754	5002.38
911.99	4951.38
912.226	4921.38
912.463	4887.38
912.699	4826.38
912.935	4858.38
913.171	4807.38
913.407	4725.38
913.643	4759.38
913.879	4656.38
914.114	4649.38
914.35	4631.38
914.586	4592.38
914.822	4513.38
915.057	4559.38
915.293	4405.38
915.529	4400.38
915.764	4494.38
916	4498.38
916.235	4472.38
916.471	4463.38
916.706	4371.38
916.941	4416.38
917.177	4347.38
917.412	4462.38
917.647	4371.38
917.882	4386.38
918.117	4408.38
918.352	4364.38
918.588	4448.38
918.823	4339.38
919.057	4331.38
919.292	4177.38
919.527	4245.38
919.762	4164.38
919.997	4214.38
920.232	4187.38
920.466	4147.38
920.701	4007.38
920.935	4057.38
921.17	4016.38
921.405	3980.38
921.639	4008.38
921.873	3954.38
922.108	3974.38
922.342	4000.38
922.576	3875.38
922.811	3895.38
923.045	3945.38
923.279	3991.38
923.513	3816.38
923.747	3924.38
923.981	3876.38
924.215	3838.38
924.449	3816.38
924.683	3768.38
924.917	3776.38
925.151	3781.38
925.385	3778.38
925.618	3761.38
925.852	3745.38
926.086	3678.38
926.319	3753.38
926.553	3738.38
926.786	3781.38
927.02	3736.38
927.253	3743.38
927.486	3730.38
927.72	3685.38
927.953	3750.38
928.186	3656.38
928.42	3665.38
928.653	3688.38
928.886	3641.38
929.119	3670.38
929.352	3625.38
929.585	3601.38
929.818	3557.38
930.051	3546.38
930.284	3582.38
930.516	3483.38
930.749	3450.38
930.982	3509.38
931.215	3478.38
931.447	3467.38
931.68	3450.38
931.912	3385.38
932.145	3463.38
932.377	3461.38
932.61	3581.38
932.842	3380.38
933.074	3466.38
933.307	3390.38
933.539	3528.38
933.771	3475.38
934.003	3434.38
934.236	3518.38
934.468	3500.38
934.7	3374.38
934.932	3417.38
935.164	3383.38
935.395	3403.38
935.627	3438.38
935.859	3432.38
936.091	3322.38
936.323	3385.38
936.554	3425.38
936.786	3380.38
937.017	3296.38
937.249	3347.38
937.481	3287.38
937.712	3392.38
937.943	3348.38
938.175	3289.38
938.406	3287.38
938.637	3395.38
938.869	3265.38
939.1	3304.38
939.331	3250.38
939.562	3308.38
939.793	3274.38
940.024	3304.38
940.255	3301.38
940.486	3236.38
940.717	3209.38
940.948	3255.38
941.179	3176.38
941.409	3208.38
941.64	3214.38
941.871	3181.38
942.102	3196.38
942.332	3214.38
942.563	3248.38
942.793	3164.38
943.024	3125.38
943.254	3185.38
943.484	3237.38
943.715	3256.38
943.945	3201.38
944.175	3141.38
944.405	3126.38
944.636	3159.38
944.866	3206.38
945.096	3203.38
945.326	3101.38
945.556	3183.38
945.786	3159.38
946.016	3129.38
946.245	3051.38
946.475	3075.38
946.705	3059.38
946.935	3063.38
947.164	3078.38
947.394	3026.38
947.624	3042.38
947.853	3040.38
948.083	3042.38
948.312	2999.38
948.542	2923.38
948.771	2915.38
949	2913.38
949.23	2945.38
949.459	2943.38
949.688	3011.38
949.917	2945.38
950.146	2947.38
950.375	3042.38
950.604	2889.38
950.833	3012.38
951.062	3002.38
951.291	2923.38
951.52	2945.38
951.749	2934.38
951.978	2915.38
952.206	2903.38
952.435	2857.38
952.664	2878.38
952.892	2961.38
953.121	2891.38
953.349	2896.38
953.578	2906.38
953.806	2852.38
954.035	2823.38
954.263	2848.38
954.491	2812.38
954.719	2860.38
954.948	2761.38
955.176	2740.38
955.404	2736.38
955.632	2782.38
955.86	2759.38
956.088	2767.38
956.316	2772.38
956.544	2754.38
956.772	2691.38
956.999	2702.38
957.227	2774.38
957.455	2671.38
957.683	2722.38
957.91	2700.38
958.138	2636.38
958.365	2651.38
958.593	2620.38
958.82	2557.38
959.048	2649.38
959.275	2640.38
959.502	2591.38
959.73	2585.38
959.957	2626.38
960.184	2654.38
960.411	2600.38
960.638	2679.38
960.865	2599.38
961.092	2619.38
961.319	2537.38
961.546	2643.38
961.773	2618.38
962	2550.38
962.227	2621.38
962.454	2584.38
962.68	2521.38
962.907	2595.38
963.134	2541.38
963.36	2531.38
963.587	2573.38
963.813	2479.38
964.04	2508.38
964.266	2441.38
964.493	2537.38
964.719	2491.38
964.945	2488.38
965.171	2390.38
965.398	2457.38
965.624	2479.38
965.85	2400.38
966.076	2447.38
966.302	2450.38
966.528	2386.38
966.754	2424.38
966.98	2431.38
967.206	2396.38
967.431	2310.38
967.657	2429.38
967.883	2377.38
968.109	2355.38
968.334	2321.38
968.56	2311.38
968.785	2332.38
969.011	2290.38
969.236	2365.38
969.462	2313.38
969.687	2313.38
969.912	2353.38
970.138	2369.38
970.363	2287.38
970.588	2280.38
970.813	2271.38
971.038	2274.38
971.263	2297.38
971.488	2266.38
971.713	2311.38
971.938	2306.38
972.163	2236.38
972.388	2209.38
972.613	2195.38
972.838	2256.38
973.062	2230.38
973.287	2204.38
973.512	2134.38
973.736	2196.38
973.961	2139.38
974.185	2136.38
974.41	2186.38
974.634	2120.38
974.858	2098.38
975.083	2152.38
975.307	2134.38
975.531	2071.38
975.755	2036.38
975.98	2067.38
976.204	2021.38
976.428	1990.38
976.652	2023.38
976.876	1978.38
977.1	2025.38
977.324	1986.38
977.547	2044.38
977.771	2023.38
977.995	2015.38
978.219	1945.38
978.442	2035.38
978.666	2018.38
978.89	2017.38
979.113	2010.38
979.337	1993.38
979.56	1935.38
979.783	2045.38
980.007	1942.38
980.23	1967.38
980.453	1912.38
980.677	1963.38
980.9	1939.38
981.123	1841.38
981.346	1936.38
981.569	1930.38
981.792	1951.38
982.015	1894.38
982.238	1878.38
982.461	1921.38
982.684	1873.38
982.907	1848.38
983.129	1831.38
983.352	1859.38
983.575	1882.38
983.797	1887.38
984.02	1822.38
984.242	1815.38
984.465	1851.38
984.687	1842.38
984.91	1854.38
985.132	1850.38
985.354	1874.38
985.577	1814.38
985.799	1816.38
986.021	1740.38
986.243	1789.38
986.465	1768.38
986.687	1827.38
986.909	1831.38
987.131	1789.38
987.353	1777.38
987.575	1823.38
987.797	1747.38
988.019	1736.38
988.241	1744.38
988.462	1724.38
988.684	1790.38
988.906	1811.38
989.127	1837.38
989.349	1681.38
989.57	1722.38
989.792	1776.38
990.013	1785.38
990.234	1784.38
990.456	1820.38
990.677	1794.38
990.898	1745.38
991.119	1737.38
991.341	1779.38
991.562	1701.38
991.783	1732.38
992.004	1664.38
992.225	1654.38
992.446	1715.38
992.667	1614.38
992.887	1698.38
993.108	1615.38
993.329	1738.38
993.55	1661.38
993.77	1631.38
993.991	1582.38
994.212	1679.38
994.432	1641.38
994.653	1658.38
994.873	1645.38
995.093	1545.38
995.314	1588.38
995.534	1661.38
995.754	1641.38
995.975	1693.38
996.195	1575.38
996.415	1658.38
996.635	1638.38
996.855	1622.38
997.075	1633.38
997.295	1632.38
997.515	1619.38
997.735	1662.38
997.955	1629.38
998.174	1641.38
998.394	1602.38
998.614	1643.38
998.834	1617.38
999.053	1660.38
999.273	1608.38
999.492	1677.38
999.712	1590.38
999.931	1544.38
1000.151	1616.38
1000.37	1562.38
1000.589	1641.38
1000.809	1550.38
1001.028	1676.38
1001.247	1604.38
1001.466	1480.38
1001.685	1625.38
1001.904	1598.38
1002.123	1570.38
1002.342	1587.38
1002.561	1508.38
1002.78	1548.38
1002.999	1602.38
1003.218	1572.38
1003.436	1533.38
1003.655	1560.38
1003.874	1526.38
1004.092	1537.38
1004.311	1582.38
1004.53	1575.38
1004.748	1616.38
1004.966	1540.38
1005.185	1574.38
1005.403	1580.38
1005.622	1545.38
1005.84	1622.38
1006.058	1542.38
1006.276	1579.38
1006.494	2086.38
1006.712	1569.38
1006.931	1640.38
1007.149	1584.38
1007.367	1583.38
1007.584	1631.38
1007.802	1673.38
1008.02	1603.38
1008.238	1724.38
1008.456	1731.38
1008.673	1615.38
1008.891	1731.38
1009.109	1714.38
1009.326	1808.38
1009.544	1922.38
1009.761	1848.38
1009.979	2000.38
1010.196	2023.38
1010.413	2180.38
1010.631	2315.38
1010.848	2393.38
1011.065	2424.38
1011.282	2371.38
1011.5	2329.38
1011.717	2410.38
1011.934	2324.38
1012.151	2392.38
1012.368	2393.38
1012.585	2313.38
1012.801	2369.38
1013.018	2356.38
1013.235	2335.38
1013.452	2347.38
1013.669	2400.38
1013.885	2389.38
1014.102	2447.38
1014.318	2383.38
1014.535	2405.38
1014.751	2411.38
1014.968	2367.38
1015.184	2401.38
1015.401	2290.38
1015.617	2338.38
1015.833	2275.38
1016.049	2266.38
1016.266	2253.38
1016.482	2207.38
1016.698	2162.38
1016.914	2198.38
1017.13	2175.38
1017.346	2166.38
1017.562	2226.38
1017.778	2172.38
1017.993	2128.38
1018.209	2190.38
1018.425	2166.38
1018.641	2111.38
1018.856	2094.38
1019.072	2155.38
1019.288	2153.38
1019.503	2136.38
1019.719	2073.38
1019.934	2072.38
1020.149	2137.38
1020.365	2051.38
1020.58	1931.38
1020.795	1997.38
1021.011	1895.38
1021.226	1875.38
1021.441	1833.38
1021.656	1724.38
1021.871	1651.38
1022.086	1651.38
1022.301	1635.38
1022.516	1634.38
1022.731	1666.38
1022.946	1558.38
1023.16	1523.38
1023.375	1505.38
1023.59	1445.38
1023.804	1398.38
1024.019	1462.38
1024.234	1329.38
1024.448	1358.38
1024.663	1296.38
1024.877	1279.38
1025.092	1275.38
1025.306	1281.38
1025.52	1162.38
1025.734	1250.38
1025.949	1156.38
1026.163	1112.38
1026.377	1060.38
1026.591	1093.38
1026.805	1024.38
1027.019	1019.38
1027.233	941.38
1027.447	900.38
1027.661	998.38
1027.875	954.38
1028.088	943.38
1028.302	856.38
1028.516	852.38
1028.73	847.38
1028.943	807.38
1029.157	776.38
1029.37	721.38
1029.584	-3.62
1029.797	-4.62
1030.011	-0.62
1030.224	-0.62
