Data from QEP037381__102__13-44-04-897.txt Node

Date: Wed Dec 21 13:44:04 EST 2022
User: dcclab
Spectrometer: QEP03738
Trigger mode: 4
Integration Time (sec): 1.000000E1
Scans to average: 1
Electric dark correction enabled: true
Nonlinearity correction enabled: false
Boxcar width: 0
XAxis mode: Wavelengths
Number of Pixels in Spectrum: 1044
>>>>>Begin Spectral Data<<<<<
784.041	13.12
784.3	-0.88
784.558	-1.88
784.817	-4.88
785.075	85521.12
785.334	15110.12
785.592	7254.12
785.851	5002.12
786.109	3723.12
786.368	2913.12
786.626	2349.12
786.884	1969.12
787.143	1697.12
787.401	1371.12
787.659	1261.12
787.917	1062.12
788.175	978.12
788.433	875.12
788.691	783.12
788.949	731.12
789.207	708.12
789.465	586.12
789.723	599.12
789.98	541.12
790.238	584.12
790.496	534.12
790.753	528.12
791.011	564.12
791.268	497.12
791.526	480.12
791.783	503.12
792.041	482.12
792.298	410.12
792.556	462.12
792.813	450.12
793.07	436.12
793.327	428.12
793.584	492.12
793.841	412.12
794.099	438.12
794.356	496.12
794.613	392.12
794.869	437.12
795.126	397.12
795.383	372.12
795.64	414.12
795.897	366.12
796.153	423.12
796.41	406.12
796.667	387.12
796.923	394.12
797.18	392.12
797.436	418.12
797.693	380.12
797.949	433.12
798.206	473.12
798.462	368.12
798.718	426.12
798.974	406.12
799.231	452.12
799.487	429.12
799.743	440.12
799.999	457.12
800.255	443.12
800.511	418.12
800.767	463.12
801.023	458.12
801.279	479.12
801.534	507.12
801.79	546.12
802.046	521.12
802.302	641.12
802.557	689.12
802.813	833.12
803.068	969.12
803.324	1305.12
803.579	1698.12
803.835	2272.12
804.09	3101.12
804.345	3933.12
804.601	4922.12
804.856	5916.12
805.111	6890.12
805.366	7465.12
805.621	8046.12
805.876	8378.12
806.131	8597.12
806.386	8734.12
806.641	8830.12
806.896	8977.12
807.151	9272.12
807.406	9301.12
807.661	9514.12
807.915	9638.12
808.17	9819.12
808.425	9952.12
808.679	9977.12
808.934	10129.12
809.188	10193.12
809.443	10414.12
809.697	10464.12
809.951	10560.12
810.206	10708.12
810.46	10735.12
810.714	10849.12
810.968	10954.12
811.223	10978.12
811.477	11190.12
811.731	11241.12
811.985	11237.12
812.239	11278.12
812.493	11262.12
812.747	11358.12
813	11380.12
813.254	11429.12
813.508	11548.12
813.762	11594.12
814.015	11649.12
814.269	11712.12
814.522	11878.12
814.776	11925.12
815.03	12079.12
815.283	12267.12
815.536	12532.12
815.79	12748.12
816.043	12820.12
816.296	13097.12
816.55	13172.12
816.803	13381.12
817.056	13664.12
817.309	13693.12
817.562	13763.12
817.815	13988.12
818.068	14027.12
818.321	14149.12
818.574	14385.12
818.827	14603.12
819.079	14670.12
819.332	15089.12
819.585	15266.12
819.838	15524.12
820.09	15465.12
820.343	15499.12
820.595	15553.12
820.848	15657.12
821.1	15827.12
821.353	15769.12
821.605	15670.12
821.857	15825.12
822.11	15628.12
822.362	15601.12
822.614	15630.12
822.866	15574.12
823.118	15636.12
823.37	15705.12
823.622	15781.12
823.874	15886.12
824.126	16010.12
824.378	15908.12
824.63	15886.12
824.882	16016.12
825.134	15951.12
825.385	15918.12
825.637	15773.12
825.888	15746.12
826.14	15774.12
826.392	15659.12
826.643	15617.12
826.895	15625.12
827.146	15473.12
827.397	15448.12
827.649	15514.12
827.9	15479.12
828.151	15491.12
828.402	15619.12
828.653	15574.12
828.905	15629.12
829.156	15699.12
829.407	15674.12
829.658	15788.12
829.909	15941.12
830.159	16103.12
830.41	15940.12
830.661	15752.12
830.912	15643.12
831.162	15633.12
831.413	15589.12
831.664	15652.12
831.914	15537.12
832.165	15506.12
832.415	15564.12
832.666	15572.12
832.916	15652.12
833.167	15516.12
833.417	15610.12
833.667	15573.12
833.917	15447.12
834.168	15460.12
834.418	15476.12
834.668	15377.12
834.918	15329.12
835.168	15333.12
835.418	15117.12
835.668	15142.12
835.918	15167.12
836.167	15082.12
836.417	14988.12
836.667	15092.12
836.917	15054.12
837.166	15015.12
837.416	15089.12
837.666	15112.12
837.915	15126.12
838.165	15146.12
838.414	15112.12
838.663	15125.12
838.913	15138.12
839.162	15034.12
839.411	15174.12
839.661	15033.12
839.91	15111.12
840.159	15078.12
840.408	15117.12
840.657	15105.12
840.906	15104.12
841.155	15093.12
841.404	15095.12
841.653	15175.12
841.902	15164.12
842.15	15218.12
842.399	15251.12
842.648	15280.12
842.897	15255.12
843.145	15077.12
843.394	14933.12
843.642	14866.12
843.891	14801.12
844.139	14713.12
844.388	14562.12
844.636	14462.12
844.884	14593.12
845.133	14573.12
845.381	14584.12
845.629	14599.12
845.877	14624.12
846.125	14544.12
846.373	14619.12
846.621	14469.12
846.869	14472.12
847.117	14406.12
847.365	14220.12
847.613	14266.12
847.861	14304.12
848.108	14322.12
848.356	14306.12
848.604	14224.12
848.851	14309.12
849.099	14266.12
849.346	14334.12
849.594	14388.12
849.841	14463.12
850.089	14536.12
850.336	14623.12
850.583	14618.12
850.831	14581.12
851.078	14422.12
851.325	14555.12
851.572	14561.12
851.819	14492.12
852.066	14116.12
852.313	13861.12
852.56	13681.12
852.807	13659.12
853.054	13628.12
853.301	13648.12
853.548	13691.12
853.794	13896.12
854.041	13943.12
854.288	13877.12
854.534	14159.12
854.781	14085.12
855.028	14016.12
855.274	14023.12
855.52	14092.12
855.767	14041.12
856.013	14214.12
856.26	14458.12
856.506	13978.12
856.752	13972.12
856.998	13935.12
857.244	13940.12
857.49	14121.12
857.736	14179.12
857.982	14113.12
858.228	13989.12
858.474	13819.12
858.72	13685.12
858.966	13565.12
859.212	13447.12
859.458	13313.12
859.703	13077.12
859.949	13001.12
860.195	12997.12
860.44	12998.12
860.686	12966.12
860.931	12990.12
861.177	12720.12
861.422	12716.12
861.667	12522.12
861.913	12589.12
862.158	12542.12
862.403	12653.12
862.648	12613.12
862.893	12654.12
863.138	12602.12
863.384	12608.12
863.629	12538.12
863.873	12614.12
864.118	12570.12
864.363	12538.12
864.608	12546.12
864.853	12486.12
865.098	12289.12
865.342	12345.12
865.587	12210.12
865.832	12351.12
866.076	12232.12
866.321	12260.12
866.565	12261.12
866.81	12135.12
867.054	12170.12
867.298	12152.12
867.543	11993.12
867.787	12130.12
868.031	12043.12
868.275	12100.12
868.519	12133.12
868.764	12164.12
869.008	12024.12
869.252	12069.12
869.496	12072.12
869.739	12138.12
869.983	12195.12
870.227	12314.12
870.471	12249.12
870.715	12350.12
870.958	12409.12
871.202	12510.12
871.446	12428.12
871.689	12411.12
871.933	12449.12
872.176	12427.12
872.42	12389.12
872.663	12359.12
872.906	12458.12
873.15	12425.12
873.393	12519.12
873.636	12687.12
873.879	12529.12
874.122	12298.12
874.366	12033.12
874.609	11866.12
874.852	11738.12
875.095	11666.12
875.337	11529.12
875.58	11451.12
875.823	11512.12
876.066	11451.12
876.309	11447.12
876.551	11184.12
876.794	11183.12
877.037	11319.12
877.279	11154.12
877.522	11132.12
877.764	11211.12
878.007	11073.12
878.249	11096.12
878.491	10965.12
878.734	11034.12
878.976	10954.12
879.218	10921.12
879.46	10868.12
879.702	10806.12
879.945	10670.12
880.187	10515.12
880.429	10513.12
880.671	10449.12
880.912	10419.12
881.154	10422.12
881.396	10300.12
881.638	10409.12
881.88	10343.12
882.121	10388.12
882.363	10381.12
882.605	10480.12
882.846	10395.12
883.088	10441.12
883.329	10471.12
883.571	10596.12
883.812	10968.12
884.053	11550.12
884.295	11961.12
884.536	12186.12
884.777	12083.12
885.018	12013.12
885.259	11848.12
885.5	11671.12
885.742	11817.12
885.982	11591.12
886.223	11364.12
886.464	11241.12
886.705	11068.12
886.946	10779.12
887.187	10550.12
887.428	10361.12
887.668	10106.12
887.909	9875.12
888.15	9757.12
888.39	9664.12
888.631	9602.12
888.871	9468.12
889.111	9327.12
889.352	9311.12
889.592	9162.12
889.833	9078.12
890.073	8994.12
890.313	9065.12
890.553	8848.12
890.793	8871.12
891.033	8792.12
891.273	8735.12
891.513	8802.12
891.753	8778.12
891.993	8774.12
892.233	8807.12
892.473	8812.12
892.713	8787.12
892.952	8739.12
893.192	8758.12
893.432	8836.12
893.671	8822.12
893.911	8738.12
894.15	8710.12
894.39	8608.12
894.629	8531.12
894.869	8551.12
895.108	8527.12
895.347	8457.12
895.587	8424.12
895.826	8400.12
896.065	8400.12
896.304	8410.12
896.543	8413.12
896.782	8327.12
897.021	8425.12
897.26	8408.12
897.499	8416.12
897.738	8393.12
897.977	8338.12
898.216	8295.12
898.454	8216.12
898.693	8210.12
898.932	8243.12
899.17	8129.12
899.409	8124.12
899.647	8173.12
899.886	8143.12
900.124	8229.12
900.363	8170.12
900.601	8261.12
900.839	8371.12
901.078	8316.12
901.316	8516.12
901.554	8593.12
901.792	8762.12
902.03	8721.12
902.268	8713.12
902.506	8752.12
902.744	8647.12
902.982	8638.12
903.22	8355.12
903.458	8164.12
903.695	8012.12
903.933	7840.12
904.171	7611.12
904.409	7543.12
904.646	7445.12
904.884	7309.12
905.121	7230.12
905.359	7126.12
905.596	6982.12
905.833	6960.12
906.071	6904.12
906.308	6930.12
906.545	6906.12
906.783	6867.12
907.02	6832.12
907.257	6775.12
907.494	6820.12
907.731	6767.12
907.968	6814.12
908.205	6709.12
908.442	6659.12
908.679	6642.12
908.915	6600.12
909.152	6600.12
909.389	6472.12
909.626	6416.12
909.862	6334.12
910.099	6349.12
910.335	6386.12
910.572	6242.12
910.808	6316.12
911.045	6264.12
911.281	6193.12
911.518	6207.12
911.754	6140.12
911.99	6151.12
912.226	6040.12
912.463	6025.12
912.699	6000.12
912.935	5977.12
913.171	5904.12
913.407	5828.12
913.643	5827.12
913.879	5819.12
914.114	5731.12
914.35	5730.12
914.586	5678.12
914.822	5607.12
915.057	5620.12
915.293	5483.12
915.529	5541.12
915.764	5551.12
916	5527.12
916.235	5477.12
916.471	5538.12
916.706	5383.12
916.941	5455.12
917.177	5420.12
917.412	5476.12
917.647	5479.12
917.882	5419.12
918.117	5462.12
918.352	5415.12
918.588	5467.12
918.823	5253.12
919.057	5299.12
919.292	5211.12
919.527	5261.12
919.762	5109.12
919.997	5170.12
920.232	5040.12
920.466	5078.12
920.701	4907.12
920.935	4968.12
921.17	4940.12
921.405	4859.12
921.639	4934.12
921.873	4901.12
922.108	4834.12
922.342	4834.12
922.576	4764.12
922.811	4804.12
923.045	4813.12
923.279	4836.12
923.513	4663.12
923.747	4726.12
923.981	4665.12
924.215	4645.12
924.449	4620.12
924.683	4592.12
924.917	4612.12
925.151	4579.12
925.385	4675.12
925.618	4587.12
925.852	4554.12
926.086	4488.12
926.319	4546.12
926.553	4554.12
926.786	4551.12
927.02	4509.12
927.253	4556.12
927.486	4540.12
927.72	4459.12
927.953	4552.12
928.186	4514.12
928.42	4519.12
928.653	4422.12
928.886	4414.12
929.119	4453.12
929.352	4407.12
929.585	4396.12
929.818	4318.12
930.051	4280.12
930.284	4312.12
930.516	4180.12
930.749	4185.12
930.982	4236.12
931.215	4178.12
931.447	4103.12
931.68	4137.12
931.912	4167.12
932.145	4183.12
932.377	4144.12
932.61	4245.12
932.842	4096.12
933.074	4119.12
933.307	4110.12
933.539	4147.12
933.771	4191.12
934.003	4105.12
934.236	4206.12
934.468	4247.12
934.7	4088.12
934.932	4139.12
935.164	4054.12
935.395	4044.12
935.627	4048.12
935.859	4102.12
936.091	4004.12
936.323	4055.12
936.554	4032.12
936.786	4042.12
937.017	3930.12
937.249	4011.12
937.481	3890.12
937.712	3992.12
937.943	3942.12
938.175	3947.12
938.406	3914.12
938.637	4005.12
938.869	3877.12
939.1	3925.12
939.331	3879.12
939.562	3890.12
939.793	3954.12
940.024	3883.12
940.255	3894.12
940.486	3847.12
940.717	3826.12
940.948	3842.12
941.179	3806.12
941.409	3775.12
941.64	3792.12
941.871	3827.12
942.102	3757.12
942.332	3794.12
942.563	3779.12
942.793	3805.12
943.024	3704.12
943.254	3758.12
943.484	3806.12
943.715	3815.12
943.945	3774.12
944.175	3699.12
944.405	3688.12
944.636	3698.12
944.866	3727.12
945.096	3708.12
945.326	3630.12
945.556	3752.12
945.786	3751.12
946.016	3652.12
946.245	3618.12
946.475	3606.12
946.705	3568.12
946.935	3610.12
947.164	3610.12
947.394	3560.12
947.624	3554.12
947.853	3573.12
948.083	3547.12
948.312	3509.12
948.542	3445.12
948.771	3420.12
949	3468.12
949.23	3450.12
949.459	3447.12
949.688	3535.12
949.917	3389.12
950.146	3470.12
950.375	3508.12
950.604	3430.12
950.833	3473.12
951.062	3451.12
951.291	3471.12
951.52	3378.12
951.749	3388.12
951.978	3397.12
952.206	3426.12
952.435	3342.12
952.664	3389.12
952.892	3356.12
953.121	3310.12
953.349	3367.12
953.578	3350.12
953.806	3269.12
954.035	3260.12
954.263	3335.12
954.491	3235.12
954.719	3255.12
954.948	3180.12
955.176	3217.12
955.404	3140.12
955.632	3219.12
955.86	3222.12
956.088	3178.12
956.316	3170.12
956.544	3171.12
956.772	3132.12
956.999	3108.12
957.227	3206.12
957.455	3070.12
957.683	3101.12
957.91	3052.12
958.138	3002.12
958.365	3053.12
958.593	3000.12
958.82	2960.12
959.048	3056.12
959.275	3037.12
959.502	2970.12
959.73	3002.12
959.957	2975.12
960.184	3021.12
960.411	2979.12
960.638	3020.12
960.865	2990.12
961.092	2987.12
961.319	2886.12
961.546	2964.12
961.773	2980.12
962	2941.12
962.227	3002.12
962.454	2917.12
962.68	2894.12
962.907	2910.12
963.134	2880.12
963.36	2893.12
963.587	2901.12
963.813	2843.12
964.04	2896.12
964.266	2778.12
964.493	2874.12
964.719	2832.12
964.945	2829.12
965.171	2760.12
965.398	2792.12
965.624	2764.12
965.85	2737.12
966.076	2703.12
966.302	2729.12
966.528	2679.12
966.754	2701.12
966.98	2702.12
967.206	2713.12
967.431	2618.12
967.657	2684.12
967.883	2702.12
968.109	2694.12
968.334	2609.12
968.56	2630.12
968.785	2635.12
969.011	2587.12
969.236	2636.12
969.462	2560.12
969.687	2601.12
969.912	2620.12
970.138	2655.12
970.363	2563.12
970.588	2591.12
970.813	2540.12
971.038	2528.12
971.263	2567.12
971.488	2517.12
971.713	2571.12
971.938	2568.12
972.163	2454.12
972.388	2496.12
972.613	2479.12
972.838	2498.12
973.062	2480.12
973.287	2478.12
973.512	2379.12
973.736	2456.12
973.961	2427.12
974.185	2394.12
974.41	2459.12
974.634	2299.12
974.858	2333.12
975.083	2406.12
975.307	2348.12
975.531	2309.12
975.755	2269.12
975.98	2278.12
976.204	2231.12
976.428	2211.12
976.652	2223.12
976.876	2231.12
977.1	2245.12
977.324	2183.12
977.547	2221.12
977.771	2231.12
977.995	2213.12
978.219	2150.12
978.442	2342.12
978.666	2211.12
978.89	2199.12
979.113	2225.12
979.337	2204.12
979.56	2142.12
979.783	2249.12
980.007	2139.12
980.23	2166.12
980.453	2135.12
980.677	2155.12
980.9	2142.12
981.123	2067.12
981.346	2124.12
981.569	2149.12
981.792	2140.12
982.015	2101.12
982.238	2025.12
982.461	2072.12
982.684	2033.12
982.907	2020.12
983.129	2041.12
983.352	2090.12
983.575	2013.12
983.797	2054.12
984.02	2009.12
984.242	1997.12
984.465	2007.12
984.687	2040.12
984.91	2007.12
985.132	2019.12
985.354	2009.12
985.577	2011.12
985.799	1998.12
986.021	1915.12
986.243	1924.12
986.465	1962.12
986.687	1995.12
986.909	2031.12
987.131	1989.12
987.353	1895.12
987.575	1951.12
987.797	1914.12
988.019	1854.12
988.241	1935.12
988.462	1880.12
988.684	1965.12
988.906	1921.12
989.127	2000.12
989.349	1872.12
989.57	1900.12
989.792	1939.12
990.013	1948.12
990.234	1924.12
990.456	1937.12
990.677	1934.12
990.898	1899.12
991.119	1864.12
991.341	1886.12
991.562	1851.12
991.783	1892.12
992.004	1789.12
992.225	1823.12
992.446	1852.12
992.667	1778.12
992.887	1851.12
993.108	1748.12
993.329	1871.12
993.55	1813.12
993.77	1767.12
993.991	1762.12
994.212	1786.12
994.432	1779.12
994.653	1792.12
994.873	1743.12
995.093	1649.12
995.314	1724.12
995.534	1793.12
995.754	1822.12
995.975	1791.12
996.195	1703.12
996.415	1760.12
996.635	1736.12
996.855	1776.12
997.075	1769.12
997.295	1747.12
997.515	1707.12
997.735	1812.12
997.955	1764.12
998.174	1763.12
998.394	1710.12
998.614	1752.12
998.834	1704.12
999.053	1785.12
999.273	1731.12
999.492	1799.12
999.712	1727.12
999.931	1706.12
1000.151	1720.12
1000.37	1661.12
1000.589	1732.12
1000.809	1622.12
1001.028	1757.12
1001.247	1692.12
1001.466	1600.12
1001.685	1751.12
1001.904	1667.12
1002.123	1638.12
1002.342	1645.12
1002.561	1599.12
1002.78	1658.12
1002.999	1712.12
1003.218	1663.12
1003.436	1581.12
1003.655	1648.12
1003.874	1575.12
1004.092	1623.12
1004.311	1652.12
1004.53	1619.12
1004.748	1723.12
1004.966	1614.12
1005.185	1673.12
1005.403	1654.12
1005.622	1629.12
1005.84	1748.12
1006.058	1596.12
1006.276	1647.12
1006.494	2131.12
1006.712	1656.12
1006.931	1732.12
1007.149	1638.12
1007.367	1664.12
1007.584	1686.12
1007.802	1743.12
1008.02	1690.12
1008.238	1796.12
1008.456	1821.12
1008.673	1691.12
1008.891	1825.12
1009.109	1840.12
1009.326	1906.12
1009.544	2044.12
1009.761	1991.12
1009.979	2163.12
1010.196	2236.12
1010.413	2410.12
1010.631	2511.12
1010.848	2649.12
1011.065	2696.12
1011.282	2650.12
1011.5	2579.12
1011.717	2645.12
1011.934	2575.12
1012.151	2615.12
1012.368	2578.12
1012.585	2528.12
1012.801	2603.12
1013.018	2561.12
1013.235	2559.12
1013.452	2559.12
1013.669	2612.12
1013.885	2616.12
1014.102	2663.12
1014.318	2590.12
1014.535	2594.12
1014.751	2605.12
1014.968	2600.12
1015.184	2600.12
1015.401	2510.12
1015.617	2510.12
1015.833	2437.12
1016.049	2415.12
1016.266	2443.12
1016.482	2400.12
1016.698	2307.12
1016.914	2358.12
1017.13	2274.12
1017.346	2264.12
1017.562	2336.12
1017.778	2268.12
1017.993	2219.12
1018.209	2270.12
1018.425	2238.12
1018.641	2202.12
1018.856	2204.12
1019.072	2213.12
1019.288	2261.12
1019.503	2220.12
1019.719	2129.12
1019.934	2094.12
1020.149	2180.12
1020.365	2088.12
1020.58	2042.12
1020.795	2028.12
1021.011	1956.12
1021.226	1879.12
1021.441	1890.12
1021.656	1758.12
1021.871	1695.12
1022.086	1708.12
1022.301	1666.12
1022.516	1610.12
1022.731	1664.12
1022.946	1579.12
1023.16	1535.12
1023.375	1512.12
1023.59	1431.12
1023.804	1399.12
1024.019	1502.12
1024.234	1339.12
1024.448	1346.12
1024.663	1274.12
1024.877	1265.12
1025.092	1270.12
1025.306	1274.12
1025.52	1141.12
1025.734	1236.12
1025.949	1135.12
1026.163	1092.12
1026.377	1035.12
1026.591	1086.12
1026.805	990.12
1027.019	982.12
1027.233	960.12
1027.447	884.12
1027.661	985.12
1027.875	929.12
1028.088	909.12
1028.302	849.12
1028.516	831.12
1028.73	820.12
1028.943	817.12
1029.157	757.12
1029.37	683.12
1029.584	-0.88
1029.797	-0.88
1030.011	-2.88
1030.224	-0.88
