Data from QEP037381__139__13-50-14-879.txt Node

Date: Wed Dec 21 13:50:14 EST 2022
User: dcclab
Spectrometer: QEP03738
Trigger mode: 4
Integration Time (sec): 1.000000E1
Scans to average: 1
Electric dark correction enabled: true
Nonlinearity correction enabled: false
Boxcar width: 0
XAxis mode: Wavelengths
Number of Pixels in Spectrum: 1044
>>>>>Begin Spectral Data<<<<<
784.041	16.5
784.3	-3.5
784.558	-2.5
784.817	-3.5
785.075	87578.5
785.334	15027.5
785.592	7009.5
785.851	4815.5
786.109	3649.5
786.368	2839.5
786.626	2248.5
786.884	1911.5
787.143	1622.5
787.401	1339.5
787.659	1212.5
787.917	1034.5
788.175	974.5
788.433	838.5
788.691	771.5
788.949	712.5
789.207	678.5
789.465	589.5
789.723	565.5
789.98	528.5
790.238	571.5
790.496	541.5
790.753	497.5
791.011	561.5
791.268	501.5
791.526	479.5
791.783	502.5
792.041	475.5
792.298	391.5
792.556	455.5
792.813	441.5
793.07	406.5
793.327	409.5
793.584	494.5
793.841	408.5
794.099	425.5
794.356	493.5
794.613	394.5
794.869	433.5
795.126	396.5
795.383	367.5
795.64	409.5
795.897	338.5
796.153	399.5
796.41	372.5
796.667	374.5
796.923	378.5
797.18	378.5
797.436	413.5
797.693	371.5
797.949	425.5
798.206	455.5
798.462	347.5
798.718	432.5
798.974	390.5
799.231	418.5
799.487	417.5
799.743	437.5
799.999	442.5
800.255	419.5
800.511	401.5
800.767	438.5
801.023	432.5
801.279	437.5
801.534	448.5
801.79	497.5
802.046	482.5
802.302	560.5
802.557	592.5
802.813	678.5
803.068	727.5
803.324	965.5
803.579	1178.5
803.835	1586.5
804.09	2130.5
804.345	2698.5
804.601	3392.5
804.856	4155.5
805.111	4726.5
805.366	5177.5
805.621	5543.5
805.876	5741.5
806.131	5952.5
806.386	6028.5
806.641	6112.5
806.896	6128.5
807.151	6365.5
807.406	6297.5
807.661	6540.5
807.915	6635.5
808.17	6720.5
808.425	6764.5
808.679	6817.5
808.934	6934.5
809.188	6977.5
809.443	7076.5
809.697	7212.5
809.951	7142.5
810.206	7172.5
810.46	7297.5
810.714	7347.5
810.968	7481.5
811.223	7508.5
811.477	7610.5
811.731	7698.5
811.985	7669.5
812.239	7634.5
812.493	7735.5
812.747	7833.5
813	7736.5
813.254	7879.5
813.508	7927.5
813.762	7882.5
814.015	7912.5
814.269	7987.5
814.522	8156.5
814.776	8166.5
815.03	8314.5
815.283	8412.5
815.536	8510.5
815.79	8691.5
816.043	8762.5
816.296	8871.5
816.55	8986.5
816.803	9087.5
817.056	9297.5
817.309	9294.5
817.562	9458.5
817.815	9579.5
818.068	9556.5
818.321	9679.5
818.574	9842.5
818.827	9943.5
819.079	9999.5
819.332	10366.5
819.585	10431.5
819.838	10551.5
820.09	10513.5
820.343	10647.5
820.595	10601.5
820.848	10772.5
821.1	10790.5
821.353	10806.5
821.605	10809.5
821.857	10816.5
822.11	10735.5
822.362	10790.5
822.614	10720.5
822.866	10757.5
823.118	10715.5
823.37	10896.5
823.622	10825.5
823.874	11007.5
824.126	10958.5
824.378	11016.5
824.63	11109.5
824.882	11099.5
825.134	11110.5
825.385	11028.5
825.637	10930.5
825.888	10864.5
826.14	10940.5
826.392	10892.5
826.643	10799.5
826.895	10879.5
827.146	10739.5
827.397	10696.5
827.649	10747.5
827.9	10726.5
828.151	10698.5
828.402	10780.5
828.653	10814.5
828.905	10772.5
829.156	10909.5
829.407	10883.5
829.658	10894.5
829.909	11007.5
830.159	11075.5
830.41	11011.5
830.661	10918.5
830.912	10836.5
831.162	10843.5
831.413	10780.5
831.664	10805.5
831.914	10766.5
832.165	10829.5
832.415	10865.5
832.666	10760.5
832.916	10852.5
833.167	10857.5
833.417	10909.5
833.667	10725.5
833.917	10803.5
834.168	10844.5
834.418	10758.5
834.668	10750.5
834.918	10666.5
835.168	10667.5
835.418	10578.5
835.668	10574.5
835.918	10599.5
836.167	10559.5
836.417	10485.5
836.667	10592.5
836.917	10476.5
837.166	10501.5
837.416	10634.5
837.666	10589.5
837.915	10565.5
838.165	10613.5
838.414	10517.5
838.663	10498.5
838.913	10565.5
839.162	10567.5
839.411	10636.5
839.661	10543.5
839.91	10495.5
840.159	10504.5
840.408	10553.5
840.657	10580.5
840.906	10574.5
841.155	10666.5
841.404	10508.5
841.653	10620.5
841.902	10493.5
842.15	10608.5
842.399	10666.5
842.648	10620.5
842.897	10623.5
843.145	10526.5
843.394	10428.5
843.642	10436.5
843.891	10449.5
844.139	10345.5
844.388	10212.5
844.636	10211.5
844.884	10225.5
845.133	10222.5
845.381	10230.5
845.629	10336.5
845.877	10177.5
846.125	10212.5
846.373	10227.5
846.621	10185.5
846.869	10203.5
847.117	10128.5
847.365	10069.5
847.613	10084.5
847.861	10061.5
848.108	10120.5
848.356	10087.5
848.604	10024.5
848.851	10099.5
849.099	10086.5
849.346	10092.5
849.594	10200.5
849.841	10249.5
850.089	10249.5
850.336	10276.5
850.583	10310.5
850.831	10317.5
851.078	10216.5
851.325	10197.5
851.572	10308.5
851.819	10245.5
852.066	9971.5
852.313	9814.5
852.56	9764.5
852.807	9693.5
853.054	9659.5
853.301	9668.5
853.548	9707.5
853.794	9873.5
854.041	9932.5
854.288	9948.5
854.534	10072.5
854.781	10017.5
855.028	10040.5
855.274	10023.5
855.52	9972.5
855.767	10045.5
856.013	10084.5
856.26	10368.5
856.506	9909.5
856.752	9930.5
856.998	9865.5
857.244	9882.5
857.49	10053.5
857.736	10070.5
857.982	10003.5
858.228	10006.5
858.474	9861.5
858.72	9873.5
858.966	9703.5
859.212	9572.5
859.458	9587.5
859.703	9366.5
859.949	9355.5
860.195	9338.5
860.44	9294.5
860.686	9300.5
860.931	9352.5
861.177	9246.5
861.422	9135.5
861.667	9023.5
861.913	9037.5
862.158	9039.5
862.403	9153.5
862.648	9153.5
862.893	9181.5
863.138	9183.5
863.384	9097.5
863.629	9071.5
863.873	9083.5
864.118	9039.5
864.363	9039.5
864.608	9087.5
864.853	9074.5
865.098	8979.5
865.342	9003.5
865.587	8865.5
865.832	8948.5
866.076	8873.5
866.321	8863.5
866.565	8855.5
866.81	8865.5
867.054	8815.5
867.298	8860.5
867.543	8840.5
867.787	8842.5
868.031	8742.5
868.275	8833.5
868.519	8849.5
868.764	8841.5
869.008	8820.5
869.252	8843.5
869.496	8825.5
869.739	8825.5
869.983	8878.5
870.227	8906.5
870.471	8939.5
870.715	8993.5
870.958	9024.5
871.202	8992.5
871.446	9028.5
871.689	9008.5
871.933	9106.5
872.176	9067.5
872.42	9000.5
872.663	8991.5
872.906	9136.5
873.15	9076.5
873.393	9139.5
873.636	9196.5
873.879	9022.5
874.122	8939.5
874.366	8723.5
874.609	8675.5
874.852	8517.5
875.095	8517.5
875.337	8491.5
875.58	8375.5
875.823	8393.5
876.066	8411.5
876.309	8397.5
876.551	8272.5
876.794	8277.5
877.037	8291.5
877.279	8164.5
877.522	8187.5
877.764	8190.5
878.007	8190.5
878.249	8260.5
878.491	8163.5
878.734	8254.5
878.976	8103.5
879.218	8039.5
879.46	8050.5
879.702	7982.5
879.945	7961.5
880.187	7776.5
880.429	7853.5
880.671	7800.5
880.912	7828.5
881.154	7777.5
881.396	7635.5
881.638	7743.5
881.88	7745.5
882.121	7759.5
882.363	7703.5
882.605	7805.5
882.846	7747.5
883.088	7873.5
883.329	7739.5
883.571	7821.5
883.812	8078.5
884.053	8390.5
884.295	8665.5
884.536	8942.5
884.777	8862.5
885.018	8795.5
885.259	8638.5
885.5	8539.5
885.742	8778.5
885.982	8468.5
886.223	8384.5
886.464	8263.5
886.705	8166.5
886.946	8100.5
887.187	7819.5
887.428	7762.5
887.668	7515.5
887.909	7384.5
888.15	7299.5
888.39	7299.5
888.631	7215.5
888.871	7172.5
889.111	7071.5
889.352	7071.5
889.592	6930.5
889.833	6843.5
890.073	6874.5
890.313	6911.5
890.553	6691.5
890.793	6757.5
891.033	6718.5
891.273	6713.5
891.513	6725.5
891.753	6742.5
891.993	6667.5
892.233	6669.5
892.473	6768.5
892.713	6738.5
892.952	6704.5
893.192	6741.5
893.432	6704.5
893.671	6717.5
893.911	6668.5
894.15	6674.5
894.39	6557.5
894.629	6559.5
894.869	6581.5
895.108	6523.5
895.347	6483.5
895.587	6570.5
895.826	6494.5
896.065	6449.5
896.304	6437.5
896.543	6539.5
896.782	6402.5
897.021	6432.5
897.26	6447.5
897.499	6519.5
897.738	6458.5
897.977	6456.5
898.216	6420.5
898.454	6357.5
898.693	6302.5
898.932	6335.5
899.17	6251.5
899.409	6285.5
899.647	6329.5
899.886	6248.5
900.124	6285.5
900.363	6258.5
900.601	6356.5
900.839	6434.5
901.078	6445.5
901.316	6549.5
901.554	6548.5
901.792	6672.5
902.03	6589.5
902.268	6663.5
902.506	6631.5
902.744	6561.5
902.982	6614.5
903.22	6402.5
903.458	6301.5
903.695	6203.5
903.933	6143.5
904.171	5910.5
904.409	5817.5
904.646	5780.5
904.884	5635.5
905.121	5648.5
905.359	5572.5
905.596	5478.5
905.833	5458.5
906.071	5417.5
906.308	5491.5
906.545	5424.5
906.783	5302.5
907.02	5355.5
907.257	5278.5
907.494	5312.5
907.731	5311.5
907.968	5318.5
908.205	5237.5
908.442	5253.5
908.679	5329.5
908.915	5178.5
909.152	5179.5
909.389	5013.5
909.626	5091.5
909.862	5030.5
910.099	5014.5
910.335	5014.5
910.572	4912.5
910.808	4968.5
911.045	4958.5
911.281	4938.5
911.518	4918.5
911.754	4898.5
911.99	4894.5
912.226	4816.5
912.463	4816.5
912.699	4753.5
912.935	4766.5
913.171	4709.5
913.407	4633.5
913.643	4721.5
913.879	4626.5
914.114	4586.5
914.35	4567.5
914.586	4498.5
914.822	4449.5
915.057	4521.5
915.293	4385.5
915.529	4348.5
915.764	4474.5
916	4414.5
916.235	4399.5
916.471	4395.5
916.706	4349.5
916.941	4338.5
917.177	4328.5
917.412	4392.5
917.647	4378.5
917.882	4341.5
918.117	4417.5
918.352	4370.5
918.588	4444.5
918.823	4306.5
919.057	4237.5
919.292	4157.5
919.527	4235.5
919.762	4169.5
919.997	4205.5
920.232	4074.5
920.466	4103.5
920.701	3953.5
920.935	3993.5
921.17	3995.5
921.405	3931.5
921.639	3963.5
921.873	3933.5
922.108	3915.5
922.342	3948.5
922.576	3868.5
922.811	3935.5
923.045	3942.5
923.279	3899.5
923.513	3808.5
923.747	3887.5
923.981	3814.5
924.215	3778.5
924.449	3824.5
924.683	3723.5
924.917	3750.5
925.151	3746.5
925.385	3794.5
925.618	3758.5
925.852	3740.5
926.086	3674.5
926.319	3691.5
926.553	3712.5
926.786	3709.5
927.02	3710.5
927.253	3733.5
927.486	3754.5
927.72	3695.5
927.953	3717.5
928.186	3682.5
928.42	3717.5
928.653	3621.5
928.886	3621.5
929.119	3666.5
929.352	3622.5
929.585	3595.5
929.818	3598.5
930.051	3579.5
930.284	3583.5
930.516	3468.5
930.749	3475.5
930.982	3490.5
931.215	3507.5
931.447	3411.5
931.68	3444.5
931.912	3424.5
932.145	3429.5
932.377	3415.5
932.61	3537.5
932.842	3376.5
933.074	3445.5
933.307	3420.5
933.539	3490.5
933.771	3485.5
934.003	3405.5
934.236	3537.5
934.468	3532.5
934.7	3393.5
934.932	3472.5
935.164	3409.5
935.395	3370.5
935.627	3402.5
935.859	3414.5
936.091	3343.5
936.323	3408.5
936.554	3413.5
936.786	3344.5
937.017	3246.5
937.249	3345.5
937.481	3272.5
937.712	3336.5
937.943	3357.5
938.175	3299.5
938.406	3249.5
938.637	3366.5
938.869	3273.5
939.1	3313.5
939.331	3234.5
939.562	3329.5
939.793	3325.5
940.024	3286.5
940.255	3266.5
940.486	3265.5
940.717	3253.5
940.948	3235.5
941.179	3146.5
941.409	3191.5
941.64	3202.5
941.871	3193.5
942.102	3209.5
942.332	3185.5
942.563	3226.5
942.793	3215.5
943.024	3183.5
943.254	3176.5
943.484	3240.5
943.715	3229.5
943.945	3229.5
944.175	3150.5
944.405	3137.5
944.636	3169.5
944.866	3211.5
945.096	3200.5
945.326	3124.5
945.556	3169.5
945.786	3236.5
946.016	3147.5
946.245	3074.5
946.475	3101.5
946.705	3083.5
946.935	3077.5
947.164	3088.5
947.394	3015.5
947.624	3042.5
947.853	3085.5
948.083	3067.5
948.312	3016.5
948.542	2965.5
948.771	2940.5
949	2915.5
949.23	2942.5
949.459	2958.5
949.688	3038.5
949.917	2988.5
950.146	2985.5
950.375	3050.5
950.604	2931.5
950.833	3030.5
951.062	3041.5
951.291	2937.5
951.52	2940.5
951.749	2937.5
951.978	2880.5
952.206	2904.5
952.435	2909.5
952.664	2972.5
952.892	2950.5
953.121	2905.5
953.349	2980.5
953.578	2923.5
953.806	2884.5
954.035	2846.5
954.263	2905.5
954.491	2798.5
954.719	2861.5
954.948	2785.5
955.176	2801.5
955.404	2745.5
955.632	2802.5
955.86	2777.5
956.088	2824.5
956.316	2828.5
956.544	2816.5
956.772	2750.5
956.999	2745.5
957.227	2794.5
957.455	2736.5
957.683	2747.5
957.91	2683.5
958.138	2704.5
958.365	2667.5
958.593	2637.5
958.82	2619.5
959.048	2690.5
959.275	2627.5
959.502	2634.5
959.73	2585.5
959.957	2682.5
960.184	2701.5
960.411	2638.5
960.638	2688.5
960.865	2636.5
961.092	2636.5
961.319	2545.5
961.546	2689.5
961.773	2636.5
962	2597.5
962.227	2677.5
962.454	2606.5
962.68	2618.5
962.907	2616.5
963.134	2555.5
963.36	2565.5
963.587	2592.5
963.813	2502.5
964.04	2593.5
964.266	2500.5
964.493	2581.5
964.719	2548.5
964.945	2536.5
965.171	2445.5
965.398	2511.5
965.624	2507.5
965.85	2409.5
966.076	2465.5
966.302	2488.5
966.528	2442.5
966.754	2487.5
966.98	2430.5
967.206	2460.5
967.431	2350.5
967.657	2470.5
967.883	2458.5
968.109	2417.5
968.334	2365.5
968.56	2366.5
968.785	2391.5
969.011	2326.5
969.236	2386.5
969.462	2350.5
969.687	2345.5
969.912	2390.5
970.138	2372.5
970.363	2351.5
970.588	2349.5
970.813	2348.5
971.038	2312.5
971.263	2297.5
971.488	2310.5
971.713	2361.5
971.938	2323.5
972.163	2243.5
972.388	2275.5
972.613	2259.5
972.838	2269.5
973.062	2257.5
973.287	2264.5
973.512	2165.5
973.736	2214.5
973.961	2203.5
974.185	2188.5
974.41	2205.5
974.634	2109.5
974.858	2157.5
975.083	2175.5
975.307	2221.5
975.531	2140.5
975.755	2083.5
975.98	2113.5
976.204	2061.5
976.428	2034.5
976.652	2093.5
976.876	2029.5
977.1	2052.5
977.324	2037.5
977.547	2087.5
977.771	2082.5
977.995	2071.5
978.219	2033.5
978.442	2112.5
978.666	2057.5
978.89	2026.5
979.113	2055.5
979.337	2039.5
979.56	1984.5
979.783	2110.5
980.007	1989.5
980.23	1989.5
980.453	2002.5
980.677	2018.5
980.9	2009.5
981.123	1930.5
981.346	2007.5
981.569	2012.5
981.792	1983.5
982.015	1973.5
982.238	1914.5
982.461	1972.5
982.684	1914.5
982.907	1886.5
983.129	1877.5
983.352	1941.5
983.575	1916.5
983.797	1907.5
984.02	1895.5
984.242	1843.5
984.465	1894.5
984.687	1891.5
984.91	1928.5
985.132	1888.5
985.354	1901.5
985.577	1859.5
985.799	1862.5
986.021	1802.5
986.243	1826.5
986.465	1846.5
986.687	1891.5
986.909	1924.5
987.131	1854.5
987.353	1801.5
987.575	1847.5
987.797	1802.5
988.019	1750.5
988.241	1802.5
988.462	1773.5
988.684	1838.5
988.906	1886.5
989.127	1892.5
989.349	1758.5
989.57	1800.5
989.792	1835.5
990.013	1855.5
990.234	1867.5
990.456	1898.5
990.677	1848.5
990.898	1790.5
991.119	1792.5
991.341	1827.5
991.562	1758.5
991.783	1807.5
992.004	1728.5
992.225	1730.5
992.446	1782.5
992.667	1678.5
992.887	1752.5
993.108	1658.5
993.329	1782.5
993.55	1726.5
993.77	1696.5
993.991	1687.5
994.212	1709.5
994.432	1692.5
994.653	1724.5
994.873	1703.5
995.093	1603.5
995.314	1641.5
995.534	1703.5
995.754	1706.5
995.975	1732.5
996.195	1641.5
996.415	1703.5
996.635	1669.5
996.855	1732.5
997.075	1666.5
997.295	1652.5
997.515	1666.5
997.735	1713.5
997.955	1695.5
998.174	1673.5
998.394	1648.5
998.614	1720.5
998.834	1646.5
999.053	1700.5
999.273	1696.5
999.492	1703.5
999.712	1647.5
999.931	1594.5
1000.151	1647.5
1000.37	1640.5
1000.589	1689.5
1000.809	1596.5
1001.028	1703.5
1001.247	1684.5
1001.466	1538.5
1001.685	1656.5
1001.904	1610.5
1002.123	1597.5
1002.342	1612.5
1002.561	1577.5
1002.78	1576.5
1002.999	1660.5
1003.218	1588.5
1003.436	1577.5
1003.655	1628.5
1003.874	1563.5
1004.092	1566.5
1004.311	1610.5
1004.53	1575.5
1004.748	1677.5
1004.966	1600.5
1005.185	1617.5
1005.403	1627.5
1005.622	1635.5
1005.84	1671.5
1006.058	1558.5
1006.276	1608.5
1006.494	2112.5
1006.712	1624.5
1006.931	1677.5
1007.149	1591.5
1007.367	1598.5
1007.584	1632.5
1007.802	1702.5
1008.02	1665.5
1008.238	1762.5
1008.456	1814.5
1008.673	1678.5
1008.891	1792.5
1009.109	1785.5
1009.326	1866.5
1009.544	1960.5
1009.761	1946.5
1009.979	2084.5
1010.196	2133.5
1010.413	2302.5
1010.631	2437.5
1010.848	2520.5
1011.065	2570.5
1011.282	2540.5
1011.5	2440.5
1011.717	2545.5
1011.934	2485.5
1012.151	2518.5
1012.368	2488.5
1012.585	2444.5
1012.801	2513.5
1013.018	2469.5
1013.235	2437.5
1013.452	2489.5
1013.669	2516.5
1013.885	2539.5
1014.102	2539.5
1014.318	2518.5
1014.535	2509.5
1014.751	2506.5
1014.968	2535.5
1015.184	2533.5
1015.401	2416.5
1015.617	2480.5
1015.833	2380.5
1016.049	2357.5
1016.266	2342.5
1016.482	2339.5
1016.698	2248.5
1016.914	2287.5
1017.13	2240.5
1017.346	2200.5
1017.562	2260.5
1017.778	2208.5
1017.993	2139.5
1018.209	2212.5
1018.425	2205.5
1018.641	2146.5
1018.856	2109.5
1019.072	2191.5
1019.288	2216.5
1019.503	2165.5
1019.719	2065.5
1019.934	2067.5
1020.149	2145.5
1020.365	2064.5
1020.58	1983.5
1020.795	2035.5
1021.011	1891.5
1021.226	1872.5
1021.441	1862.5
1021.656	1750.5
1021.871	1677.5
1022.086	1654.5
1022.301	1660.5
1022.516	1596.5
1022.731	1669.5
1022.946	1596.5
1023.16	1537.5
1023.375	1492.5
1023.59	1464.5
1023.804	1406.5
1024.019	1503.5
1024.234	1332.5
1024.448	1355.5
1024.663	1284.5
1024.877	1271.5
1025.092	1287.5
1025.306	1306.5
1025.52	1157.5
1025.734	1235.5
1025.949	1154.5
1026.163	1104.5
1026.377	1015.5
1026.591	1078.5
1026.805	1026.5
1027.019	993.5
1027.233	935.5
1027.447	904.5
1027.661	1012.5
1027.875	917.5
1028.088	942.5
1028.302	854.5
1028.516	840.5
1028.73	824.5
1028.943	819.5
1029.157	769.5
1029.37	717.5
1029.584	-0.5
1029.797	0.5
1030.011	-2.5
1030.224	-4.5
