Data from QEP037381__87__13-41-34-904.txt Node

Date: Wed Dec 21 13:41:34 EST 2022
User: dcclab
Spectrometer: QEP03738
Trigger mode: 4
Integration Time (sec): 1.000000E1
Scans to average: 1
Electric dark correction enabled: true
Nonlinearity correction enabled: false
Boxcar width: 0
XAxis mode: Wavelengths
Number of Pixels in Spectrum: 1044
>>>>>Begin Spectral Data<<<<<
784.041	10.62
784.3	-1.38
784.558	-1.38
784.817	-6.38
785.075	85782.62
785.334	14563.62
785.592	6771.62
785.851	4655.62
786.109	3545.62
786.368	2791.62
786.626	2229.62
786.884	1857.62
787.143	1558.62
787.401	1316.62
787.659	1183.62
787.917	1004.62
788.175	948.62
788.433	828.62
788.691	736.62
788.949	703.62
789.207	676.62
789.465	593.62
789.723	564.62
789.98	527.62
790.238	556.62
790.496	540.62
790.753	504.62
791.011	554.62
791.268	501.62
791.526	480.62
791.783	497.62
792.041	483.62
792.298	400.62
792.556	469.62
792.813	447.62
793.07	423.62
793.327	401.62
793.584	508.62
793.841	406.62
794.099	443.62
794.356	504.62
794.613	382.62
794.869	444.62
795.126	401.62
795.383	381.62
795.64	415.62
795.897	353.62
796.153	413.62
796.41	398.62
796.667	397.62
796.923	396.62
797.18	388.62
797.436	442.62
797.693	384.62
797.949	437.62
798.206	456.62
798.462	381.62
798.718	454.62
798.974	408.62
799.231	447.62
799.487	445.62
799.743	439.62
799.999	467.62
800.255	454.62
800.511	444.62
800.767	489.62
801.023	483.62
801.279	513.62
801.534	520.62
801.79	563.62
802.046	561.62
802.302	666.62
802.557	749.62
802.813	902.62
803.068	1050.62
803.324	1450.62
803.579	1933.62
803.835	2611.62
804.09	3493.62
804.345	4477.62
804.601	5605.62
804.856	6879.62
805.111	7870.62
805.366	8653.62
805.621	9175.62
805.876	9666.62
806.131	9955.62
806.386	10171.62
806.641	10292.62
806.896	10500.62
807.151	10772.62
807.406	10827.62
807.661	11079.62
807.915	11243.62
808.17	11523.62
808.425	11588.62
808.679	11601.62
808.934	11814.62
809.188	11910.62
809.443	11989.62
809.697	12196.62
809.951	12193.62
810.206	12311.62
810.46	12550.62
810.714	12630.62
810.968	12703.62
811.223	12791.62
811.477	12982.62
811.731	13156.62
811.985	13086.62
812.239	13095.62
812.493	13182.62
812.747	13271.62
813	13237.62
813.254	13326.62
813.508	13463.62
813.762	13449.62
814.015	13479.62
814.269	13544.62
814.522	13699.62
814.776	13837.62
815.03	13952.62
815.283	14268.62
815.536	14508.62
815.79	14763.62
816.043	14933.62
816.296	15195.62
816.55	15339.62
816.803	15469.62
817.056	15713.62
817.309	15839.62
817.562	16032.62
817.815	16177.62
818.068	16302.62
818.321	16470.62
818.574	16569.62
818.827	16934.62
819.079	17116.62
819.332	17355.62
819.585	17599.62
819.838	17804.62
820.09	17870.62
820.343	17984.62
820.595	18084.62
820.848	18165.62
821.1	18213.62
821.353	18321.62
821.605	18268.62
821.857	18232.62
822.11	18087.62
822.362	18048.62
822.614	18072.62
822.866	18171.62
823.118	18074.62
823.37	18132.62
823.622	18248.62
823.874	18328.62
824.126	18325.62
824.378	18315.62
824.63	18355.62
824.882	18428.62
825.134	18346.62
825.385	18399.62
825.637	18244.62
825.888	18238.62
826.14	18217.62
826.392	18176.62
826.643	17973.62
826.895	18111.62
827.146	17928.62
827.397	17866.62
827.649	17951.62
827.9	17925.62
828.151	17843.62
828.402	18005.62
828.653	18032.62
828.905	18052.62
829.156	18180.62
829.407	18059.62
829.658	18204.62
829.909	18314.62
830.159	18486.62
830.41	18307.62
830.661	18139.62
830.912	18001.62
831.162	17881.62
831.413	18009.62
831.664	18018.62
831.914	17899.62
832.165	18013.62
832.415	17853.62
832.666	17827.62
832.916	17864.62
833.167	17992.62
833.417	17833.62
833.667	17755.62
833.917	17777.62
834.168	17777.62
834.418	17746.62
834.668	17677.62
834.918	17623.62
835.168	17587.62
835.418	17423.62
835.668	17279.62
835.918	17239.62
836.167	17329.62
836.417	17291.62
836.667	17223.62
836.917	17273.62
837.166	17148.62
837.416	17305.62
837.666	17322.62
837.915	17226.62
838.165	17278.62
838.414	17114.62
838.663	17147.62
838.913	17236.62
839.162	17171.62
839.411	17160.62
839.661	17180.62
839.91	17168.62
840.159	17069.62
840.408	17231.62
840.657	17262.62
840.906	17183.62
841.155	17301.62
841.404	17081.62
841.653	17206.62
841.902	17185.62
842.15	17325.62
842.399	17323.62
842.648	17304.62
842.897	17264.62
843.145	17128.62
843.394	16995.62
843.642	17017.62
843.891	16915.62
844.139	16821.62
844.388	16599.62
844.636	16502.62
844.884	16655.62
845.133	16545.62
845.381	16513.62
845.629	16529.62
845.877	16629.62
846.125	16583.62
846.373	16577.62
846.621	16598.62
846.869	16431.62
847.117	16382.62
847.365	16231.62
847.613	16188.62
847.861	16208.62
848.108	16241.62
848.356	16257.62
848.604	16103.62
848.851	16213.62
849.099	16266.62
849.346	16207.62
849.594	16457.62
849.841	16374.62
850.089	16517.62
850.336	16587.62
850.583	16745.62
850.831	16595.62
851.078	16415.62
851.325	16441.62
851.572	16459.62
851.819	16341.62
852.066	16014.62
852.313	15666.62
852.56	15482.62
852.807	15459.62
853.054	15402.62
853.301	15436.62
853.548	15506.62
853.794	15665.62
854.041	15593.62
854.288	15824.62
854.534	15923.62
854.781	15920.62
855.028	15759.62
855.274	15891.62
855.52	15856.62
855.767	15826.62
856.013	15809.62
856.26	16103.62
856.506	15697.62
856.752	15657.62
856.998	15535.62
857.244	15693.62
857.49	15734.62
857.736	15819.62
857.982	15835.62
858.228	15791.62
858.474	15518.62
858.72	15413.62
858.966	15294.62
859.212	15114.62
859.458	15017.62
859.703	14763.62
859.949	14597.62
860.195	14619.62
860.44	14549.62
860.686	14439.62
860.931	14569.62
861.177	14384.62
861.422	14253.62
861.667	14171.62
861.913	14151.62
862.158	14104.62
862.403	14293.62
862.648	14229.62
862.893	14226.62
863.138	14253.62
863.384	14183.62
863.629	14236.62
863.873	14170.62
864.118	14133.62
864.363	14134.62
864.608	14109.62
864.853	14002.62
865.098	13954.62
865.342	13944.62
865.587	13861.62
865.832	13894.62
866.076	13819.62
866.321	13862.62
866.565	13830.62
866.81	13779.62
867.054	13687.62
867.298	13706.62
867.543	13586.62
867.787	13692.62
868.031	13609.62
868.275	13575.62
868.519	13606.62
868.764	13580.62
869.008	13634.62
869.252	13647.62
869.496	13567.62
869.739	13610.62
869.983	13677.62
870.227	13716.62
870.471	13708.62
870.715	13876.62
870.958	13901.62
871.202	13920.62
871.446	13917.62
871.689	13912.62
871.933	13959.62
872.176	13891.62
872.42	13795.62
872.663	13804.62
872.906	13917.62
873.15	13887.62
873.393	13989.62
873.636	13987.62
873.879	13787.62
874.122	13600.62
874.366	13396.62
874.609	13258.62
874.852	13033.62
875.095	13021.62
875.337	12936.62
875.58	12778.62
875.823	12858.62
876.066	12793.62
876.309	12749.62
876.551	12684.62
876.794	12574.62
877.037	12582.62
877.279	12464.62
877.522	12531.62
877.764	12540.62
878.007	12435.62
878.249	12417.62
878.491	12313.62
878.734	12307.62
878.976	12266.62
879.218	12177.62
879.46	12081.62
879.702	12132.62
879.945	11945.62
880.187	11862.62
880.429	11804.62
880.671	11776.62
880.912	11697.62
881.154	11711.62
881.396	11630.62
881.638	11719.62
881.88	11653.62
882.121	11598.62
882.363	11665.62
882.605	11744.62
882.846	11644.62
883.088	11665.62
883.329	11786.62
883.571	11828.62
883.812	12081.62
884.053	12423.62
884.295	12936.62
884.536	13207.62
884.777	13145.62
885.018	12929.62
885.259	12901.62
885.5	12802.62
885.742	12864.62
885.982	12643.62
886.223	12497.62
886.464	12346.62
886.705	12177.62
886.946	11927.62
887.187	11637.62
887.428	11533.62
887.668	11179.62
887.909	10980.62
888.15	10838.62
888.39	10785.62
888.631	10677.62
888.871	10672.62
889.111	10494.62
889.352	10468.62
889.592	10306.62
889.833	10165.62
890.073	10093.62
890.313	10144.62
890.553	9912.62
890.793	9914.62
891.033	9892.62
891.273	9820.62
891.513	9860.62
891.753	9918.62
891.993	9800.62
892.233	9838.62
892.473	9969.62
892.713	9896.62
892.952	9762.62
893.192	9896.62
893.432	9824.62
893.671	9921.62
893.911	9834.62
894.15	9815.62
894.39	9668.62
894.629	9649.62
894.869	9543.62
895.108	9548.62
895.347	9482.62
895.587	9486.62
895.826	9491.62
896.065	9425.62
896.304	9477.62
896.543	9459.62
896.782	9389.62
897.021	9387.62
897.26	9431.62
897.499	9433.62
897.738	9430.62
897.977	9376.62
898.216	9277.62
898.454	9261.62
898.693	9189.62
898.932	9242.62
899.17	9098.62
899.409	9157.62
899.647	9074.62
899.886	9127.62
900.124	9206.62
900.363	9163.62
900.601	9179.62
900.839	9302.62
901.078	9367.62
901.316	9479.62
901.554	9585.62
901.792	9688.62
902.03	9613.62
902.268	9706.62
902.506	9677.62
902.744	9602.62
902.982	9480.62
903.22	9254.62
903.458	9111.62
903.695	8981.62
903.933	8745.62
904.171	8539.62
904.409	8394.62
904.646	8241.62
904.884	8159.62
905.121	8090.62
905.359	7889.62
905.596	7895.62
905.833	7790.62
906.071	7808.62
906.308	7810.62
906.545	7762.62
906.783	7603.62
907.02	7644.62
907.257	7600.62
907.494	7649.62
907.731	7610.62
907.968	7529.62
908.205	7480.62
908.442	7490.62
908.679	7471.62
908.915	7376.62
909.152	7308.62
909.389	7161.62
909.626	7220.62
909.862	7097.62
910.099	7087.62
910.335	7118.62
910.572	6976.62
910.808	7010.62
911.045	6934.62
911.281	6924.62
911.518	6973.62
911.754	6886.62
911.99	6810.62
912.226	6776.62
912.463	6705.62
912.699	6638.62
912.935	6695.62
913.171	6665.62
913.407	6502.62
913.643	6556.62
913.879	6450.62
914.114	6403.62
914.35	6361.62
914.586	6296.62
914.822	6206.62
915.057	6278.62
915.293	6113.62
915.529	6123.62
915.764	6251.62
916	6200.62
916.235	6118.62
916.471	6138.62
916.706	6058.62
916.941	6041.62
917.177	6015.62
917.412	6028.62
917.647	6112.62
917.882	6025.62
918.117	6038.62
918.352	6035.62
918.588	6058.62
918.823	5931.62
919.057	5890.62
919.292	5759.62
919.527	5854.62
919.762	5698.62
919.997	5778.62
920.232	5659.62
920.466	5643.62
920.701	5474.62
920.935	5538.62
921.17	5516.62
921.405	5446.62
921.639	5463.62
921.873	5400.62
922.108	5467.62
922.342	5453.62
922.576	5362.62
922.811	5330.62
923.045	5325.62
923.279	5336.62
923.513	5227.62
923.747	5269.62
923.981	5202.62
924.215	5249.62
924.449	5187.62
924.683	5086.62
924.917	5097.62
925.151	5076.62
925.385	5148.62
925.618	5051.62
925.852	5071.62
926.086	5001.62
926.319	5035.62
926.553	5061.62
926.786	4969.62
927.02	4998.62
927.253	5049.62
927.486	5035.62
927.72	4895.62
927.953	5027.62
928.186	4968.62
928.42	4991.62
928.653	4926.62
928.886	4901.62
929.119	4894.62
929.352	4873.62
929.585	4867.62
929.818	4780.62
930.051	4749.62
930.284	4776.62
930.516	4646.62
930.749	4625.62
930.982	4662.62
931.215	4664.62
931.447	4559.62
931.68	4599.62
931.912	4554.62
932.145	4581.62
932.377	4605.62
932.61	4704.62
932.842	4500.62
933.074	4549.62
933.307	4554.62
933.539	4642.62
933.771	4603.62
934.003	4566.62
934.236	4620.62
934.468	4648.62
934.7	4534.62
934.932	4554.62
935.164	4442.62
935.395	4475.62
935.627	4475.62
935.859	4472.62
936.091	4471.62
936.323	4494.62
936.554	4470.62
936.786	4424.62
937.017	4362.62
937.249	4392.62
937.481	4295.62
937.712	4368.62
937.943	4372.62
938.175	4389.62
938.406	4358.62
938.637	4413.62
938.869	4281.62
939.1	4361.62
939.331	4311.62
939.562	4299.62
939.793	4311.62
940.024	4264.62
940.255	4273.62
940.486	4207.62
940.717	4226.62
940.948	4199.62
941.179	4159.62
941.409	4139.62
941.64	4161.62
941.871	4183.62
942.102	4163.62
942.332	4103.62
942.563	4191.62
942.793	4154.62
943.024	4117.62
943.254	4117.62
943.484	4148.62
943.715	4200.62
943.945	4114.62
944.175	4045.62
944.405	4044.62
944.636	4113.62
944.866	4085.62
945.096	4128.62
945.326	3989.62
945.556	4046.62
945.786	4104.62
946.016	3992.62
946.245	3945.62
946.475	3961.62
946.705	3916.62
946.935	3906.62
947.164	3918.62
947.394	3924.62
947.624	3913.62
947.853	3913.62
948.083	3870.62
948.312	3855.62
948.542	3777.62
948.771	3783.62
949	3776.62
949.23	3806.62
949.459	3782.62
949.688	3853.62
949.917	3801.62
950.146	3796.62
950.375	3865.62
950.604	3761.62
950.833	3829.62
951.062	3837.62
951.291	3704.62
951.52	3739.62
951.749	3743.62
951.978	3684.62
952.206	3713.62
952.435	3650.62
952.664	3684.62
952.892	3683.62
953.121	3674.62
953.349	3711.62
953.578	3630.62
953.806	3651.62
954.035	3558.62
954.263	3576.62
954.491	3555.62
954.719	3563.62
954.948	3518.62
955.176	3508.62
955.404	3409.62
955.632	3511.62
955.86	3454.62
956.088	3460.62
956.316	3459.62
956.544	3484.62
956.772	3435.62
956.999	3383.62
957.227	3433.62
957.455	3371.62
957.683	3355.62
957.91	3315.62
958.138	3302.62
958.365	3303.62
958.593	3235.62
958.82	3242.62
959.048	3309.62
959.275	3263.62
959.502	3254.62
959.73	3214.62
959.957	3280.62
960.184	3269.62
960.411	3231.62
960.638	3307.62
960.865	3213.62
961.092	3211.62
961.319	3131.62
961.546	3213.62
961.773	3250.62
962	3189.62
962.227	3202.62
962.454	3193.62
962.68	3178.62
962.907	3179.62
963.134	3143.62
963.36	3147.62
963.587	3154.62
963.813	3062.62
964.04	3118.62
964.266	3045.62
964.493	3060.62
964.719	3057.62
964.945	3080.62
965.171	2960.62
965.398	2986.62
965.624	3025.62
965.85	2913.62
966.076	2938.62
966.302	2978.62
966.528	2929.62
966.754	2934.62
966.98	2909.62
967.206	2936.62
967.431	2860.62
967.657	2958.62
967.883	2942.62
968.109	2888.62
968.334	2854.62
968.56	2818.62
968.785	2827.62
969.011	2797.62
969.236	2841.62
969.462	2849.62
969.687	2803.62
969.912	2832.62
970.138	2879.62
970.363	2762.62
970.588	2788.62
970.813	2761.62
971.038	2713.62
971.263	2765.62
971.488	2758.62
971.713	2799.62
971.938	2751.62
972.163	2649.62
972.388	2671.62
972.613	2678.62
972.838	2682.62
973.062	2665.62
973.287	2652.62
973.512	2567.62
973.736	2643.62
973.961	2599.62
974.185	2581.62
974.41	2640.62
974.634	2531.62
974.858	2534.62
975.083	2583.62
975.307	2572.62
975.531	2533.62
975.755	2445.62
975.98	2478.62
976.204	2415.62
976.428	2422.62
976.652	2435.62
976.876	2385.62
977.1	2430.62
977.324	2363.62
977.547	2423.62
977.771	2413.62
977.995	2365.62
978.219	2375.62
978.442	2440.62
978.666	2406.62
978.89	2353.62
979.113	2375.62
979.337	2354.62
979.56	2327.62
979.783	2391.62
980.007	2327.62
980.23	2364.62
980.453	2287.62
980.677	2331.62
980.9	2315.62
981.123	2231.62
981.346	2317.62
981.569	2317.62
981.792	2292.62
982.015	2248.62
982.238	2191.62
982.461	2241.62
982.684	2213.62
982.907	2153.62
983.129	2159.62
983.352	2238.62
983.575	2192.62
983.797	2181.62
984.02	2143.62
984.242	2140.62
984.465	2135.62
984.687	2180.62
984.91	2190.62
985.132	2135.62
985.354	2165.62
985.577	2119.62
985.799	2125.62
986.021	2033.62
986.243	2101.62
986.465	2094.62
986.687	2114.62
986.909	2147.62
987.131	2111.62
987.353	2069.62
987.575	2102.62
987.797	2061.62
988.019	1991.62
988.241	2065.62
988.462	1995.62
988.684	2066.62
988.906	2103.62
989.127	2114.62
989.349	2010.62
989.57	2041.62
989.792	2041.62
990.013	2073.62
990.234	2052.62
990.456	2086.62
990.677	2040.62
990.898	1996.62
991.119	1981.62
991.341	2036.62
991.562	1940.62
991.783	1977.62
992.004	1970.62
992.225	1911.62
992.446	1964.62
992.667	1881.62
992.887	1941.62
993.108	1815.62
993.329	1952.62
993.55	1911.62
993.77	1839.62
993.991	1849.62
994.212	1871.62
994.432	1845.62
994.653	1878.62
994.873	1860.62
995.093	1765.62
995.314	1808.62
995.534	1878.62
995.754	1872.62
995.975	1896.62
996.195	1804.62
996.415	1854.62
996.635	1825.62
996.855	1872.62
997.075	1810.62
997.295	1834.62
997.515	1817.62
997.735	1871.62
997.955	1839.62
998.174	1826.62
998.394	1819.62
998.614	1842.62
998.834	1810.62
999.053	1846.62
999.273	1821.62
999.492	1893.62
999.712	1834.62
999.931	1740.62
1000.151	1778.62
1000.37	1791.62
1000.589	1837.62
1000.809	1738.62
1001.028	1847.62
1001.247	1784.62
1001.466	1686.62
1001.685	1808.62
1001.904	1731.62
1002.123	1719.62
1002.342	1715.62
1002.561	1692.62
1002.78	1687.62
1002.999	1773.62
1003.218	1713.62
1003.436	1699.62
1003.655	1756.62
1003.874	1671.62
1004.092	1685.62
1004.311	1726.62
1004.53	1680.62
1004.748	1752.62
1004.966	1659.62
1005.185	1732.62
1005.403	1717.62
1005.622	1700.62
1005.84	1794.62
1006.058	1683.62
1006.276	1715.62
1006.494	2228.62
1006.712	1719.62
1006.931	1759.62
1007.149	1676.62
1007.367	1694.62
1007.584	1755.62
1007.802	1782.62
1008.02	1762.62
1008.238	1843.62
1008.456	1852.62
1008.673	1730.62
1008.891	1896.62
1009.109	1878.62
1009.326	1923.62
1009.544	2053.62
1009.761	1986.62
1009.979	2093.62
1010.196	2195.62
1010.413	2351.62
1010.631	2464.62
1010.848	2543.62
1011.065	2569.62
1011.282	2550.62
1011.5	2476.62
1011.717	2570.62
1011.934	2484.62
1012.151	2483.62
1012.368	2502.62
1012.585	2424.62
1012.801	2486.62
1013.018	2478.62
1013.235	2466.62
1013.452	2487.62
1013.669	2469.62
1013.885	2479.62
1014.102	2547.62
1014.318	2551.62
1014.535	2498.62
1014.751	2531.62
1014.968	2514.62
1015.184	2485.62
1015.401	2431.62
1015.617	2435.62
1015.833	2415.62
1016.049	2379.62
1016.266	2318.62
1016.482	2313.62
1016.698	2225.62
1016.914	2300.62
1017.13	2226.62
1017.346	2243.62
1017.562	2267.62
1017.778	2209.62
1017.993	2187.62
1018.209	2225.62
1018.425	2204.62
1018.641	2185.62
1018.856	2152.62
1019.072	2158.62
1019.288	2221.62
1019.503	2166.62
1019.719	2093.62
1019.934	2093.62
1020.149	2162.62
1020.365	2040.62
1020.58	2002.62
1020.795	2003.62
1021.011	1938.62
1021.226	1857.62
1021.441	1894.62
1021.656	1780.62
1021.871	1650.62
1022.086	1684.62
1022.301	1651.62
1022.516	1639.62
1022.731	1689.62
1022.946	1558.62
1023.16	1541.62
1023.375	1520.62
1023.59	1463.62
1023.804	1434.62
1024.019	1523.62
1024.234	1352.62
1024.448	1380.62
1024.663	1289.62
1024.877	1291.62
1025.092	1312.62
1025.306	1276.62
1025.52	1171.62
1025.734	1231.62
1025.949	1166.62
1026.163	1120.62
1026.377	1058.62
1026.591	1090.62
1026.805	1035.62
1027.019	1002.62
1027.233	978.62
1027.447	908.62
1027.661	1012.62
1027.875	941.62
1028.088	957.62
1028.302	869.62
1028.516	870.62
1028.73	833.62
1028.943	826.62
1029.157	770.62
1029.37	731.62
1029.584	-0.38
1029.797	-2.38
1030.011	0.62
1030.224	0.62
