Data from QEP037381__147__13-51-34-875.txt Node

Date: Wed Dec 21 13:51:34 EST 2022
User: dcclab
Spectrometer: QEP03738
Trigger mode: 4
Integration Time (sec): 1.000000E1
Scans to average: 1
Electric dark correction enabled: true
Nonlinearity correction enabled: false
Boxcar width: 0
XAxis mode: Wavelengths
Number of Pixels in Spectrum: 1044
>>>>>Begin Spectral Data<<<<<
784.041	10.12
784.3	-0.88
784.558	4.12
784.817	-2.88
785.075	88586.12
785.334	15080.12
785.592	6906.12
785.851	4807.12
786.109	3696.12
786.368	2806.12
786.626	2277.12
786.884	1903.12
787.143	1584.12
787.401	1299.12
787.659	1192.12
787.917	1024.12
788.175	942.12
788.433	833.12
788.691	755.12
788.949	690.12
789.207	680.12
789.465	570.12
789.723	576.12
789.98	520.12
790.238	565.12
790.496	527.12
790.753	488.12
791.011	551.12
791.268	482.12
791.526	473.12
791.783	496.12
792.041	490.12
792.298	387.12
792.556	460.12
792.813	439.12
793.07	431.12
793.327	412.12
793.584	507.12
793.841	405.12
794.099	430.12
794.356	498.12
794.613	387.12
794.869	424.12
795.126	390.12
795.383	372.12
795.64	400.12
795.897	352.12
796.153	402.12
796.41	389.12
796.667	374.12
796.923	378.12
797.18	389.12
797.436	416.12
797.693	375.12
797.949	430.12
798.206	439.12
798.462	358.12
798.718	419.12
798.974	390.12
799.231	414.12
799.487	411.12
799.743	409.12
799.999	439.12
800.255	430.12
800.511	413.12
800.767	444.12
801.023	418.12
801.279	439.12
801.534	474.12
801.79	491.12
802.046	467.12
802.302	538.12
802.557	568.12
802.813	673.12
803.068	716.12
803.324	950.12
803.579	1235.12
803.835	1602.12
804.09	2219.12
804.345	2833.12
804.601	3579.12
804.856	4318.12
805.111	5000.12
805.366	5440.12
805.621	5788.12
805.876	5966.12
806.131	6104.12
806.386	6238.12
806.641	6260.12
806.896	6401.12
807.151	6567.12
807.406	6594.12
807.661	6746.12
807.915	6868.12
808.17	6943.12
808.425	7030.12
808.679	7096.12
808.934	7199.12
809.188	7249.12
809.443	7325.12
809.697	7428.12
809.951	7432.12
810.206	7540.12
810.46	7600.12
810.714	7668.12
810.968	7821.12
811.223	7756.12
811.477	7932.12
811.731	7975.12
811.985	7932.12
812.239	7949.12
812.493	8023.12
812.747	8066.12
813	8043.12
813.254	8149.12
813.508	8199.12
813.762	8211.12
814.015	8245.12
814.269	8376.12
814.522	8430.12
814.776	8510.12
815.03	8621.12
815.283	8756.12
815.536	8885.12
815.79	9033.12
816.043	9125.12
816.296	9312.12
816.55	9372.12
816.803	9503.12
817.056	9677.12
817.309	9771.12
817.562	9802.12
817.815	9831.12
818.068	9917.12
818.321	10089.12
818.574	10221.12
818.827	10414.12
819.079	10453.12
819.332	10759.12
819.585	10930.12
819.838	11112.12
820.09	11012.12
820.343	11220.12
820.595	11174.12
820.848	11295.12
821.1	11300.12
821.353	11298.12
821.605	11227.12
821.857	11307.12
822.11	11248.12
822.362	11319.12
822.614	11227.12
822.866	11307.12
823.118	11227.12
823.37	11428.12
823.622	11325.12
823.874	11410.12
824.126	11619.12
824.378	11457.12
824.63	11484.12
824.882	11594.12
825.134	11533.12
825.385	11600.12
825.637	11496.12
825.888	11492.12
826.14	11436.12
826.392	11395.12
826.643	11318.12
826.895	11367.12
827.146	11288.12
827.397	11238.12
827.649	11351.12
827.9	11176.12
828.151	11335.12
828.402	11355.12
828.653	11405.12
828.905	11472.12
829.156	11462.12
829.407	11434.12
829.658	11410.12
829.909	11532.12
830.159	11619.12
830.41	11460.12
830.661	11395.12
830.912	11292.12
831.162	11374.12
831.413	11274.12
831.664	11353.12
831.914	11308.12
832.165	11255.12
832.415	11399.12
832.666	11378.12
832.916	11429.12
833.167	11354.12
833.417	11391.12
833.667	11354.12
833.917	11331.12
834.168	11309.12
834.418	11331.12
834.668	11273.12
834.918	11144.12
835.168	11102.12
835.418	11070.12
835.668	11122.12
835.918	11175.12
836.167	11144.12
836.417	11004.12
836.667	11046.12
836.917	11113.12
837.166	11066.12
837.416	11074.12
837.666	11129.12
837.915	11010.12
838.165	11009.12
838.414	10917.12
838.663	10965.12
838.913	10981.12
839.162	10969.12
839.411	10998.12
839.661	10941.12
839.91	10867.12
840.159	10977.12
840.408	10981.12
840.657	11021.12
840.906	10993.12
841.155	11049.12
841.404	11016.12
841.653	10964.12
841.902	10969.12
842.15	11058.12
842.399	11120.12
842.648	11113.12
842.897	11012.12
843.145	10937.12
843.394	10917.12
843.642	10858.12
843.891	10801.12
844.139	10744.12
844.388	10671.12
844.636	10617.12
844.884	10638.12
845.133	10607.12
845.381	10657.12
845.629	10655.12
845.877	10643.12
846.125	10636.12
846.373	10697.12
846.621	10612.12
846.869	10654.12
847.117	10489.12
847.365	10514.12
847.613	10489.12
847.861	10459.12
848.108	10501.12
848.356	10445.12
848.604	10429.12
848.851	10452.12
849.099	10493.12
849.346	10542.12
849.594	10597.12
849.841	10644.12
850.089	10697.12
850.336	10719.12
850.583	10745.12
850.831	10647.12
851.078	10632.12
851.325	10549.12
851.572	10555.12
851.819	10555.12
852.066	10312.12
852.313	10169.12
852.56	10106.12
852.807	10106.12
853.054	10078.12
853.301	10069.12
853.548	10084.12
853.794	10247.12
854.041	10140.12
854.288	10203.12
854.534	10501.12
854.781	10352.12
855.028	10299.12
855.274	10353.12
855.52	10307.12
855.767	10253.12
856.013	10281.12
856.26	10595.12
856.506	10116.12
856.752	10132.12
856.998	10105.12
857.244	10110.12
857.49	10274.12
857.736	10294.12
857.982	10287.12
858.228	10318.12
858.474	10200.12
858.72	10109.12
858.966	10003.12
859.212	9961.12
859.458	9781.12
859.703	9777.12
859.949	9598.12
860.195	9609.12
860.44	9571.12
860.686	9545.12
860.931	9590.12
861.177	9487.12
861.422	9444.12
861.667	9308.12
861.913	9365.12
862.158	9459.12
862.403	9485.12
862.648	9546.12
862.893	9598.12
863.138	9568.12
863.384	9483.12
863.629	9512.12
863.873	9435.12
864.118	9552.12
864.363	9400.12
864.608	9449.12
864.853	9461.12
865.098	9290.12
865.342	9330.12
865.587	9198.12
865.832	9294.12
866.076	9279.12
866.321	9157.12
866.565	9240.12
866.81	9095.12
867.054	9192.12
867.298	9140.12
867.543	9148.12
867.787	9191.12
868.031	9132.12
868.275	9083.12
868.519	9104.12
868.764	9154.12
869.008	9141.12
869.252	9071.12
869.496	9108.12
869.739	9070.12
869.983	9098.12
870.227	9147.12
870.471	9111.12
870.715	9227.12
870.958	9260.12
871.202	9232.12
871.446	9294.12
871.689	9159.12
871.933	9241.12
872.176	9259.12
872.42	9244.12
872.663	9215.12
872.906	9244.12
873.15	9273.12
873.393	9147.12
873.636	9320.12
873.879	9237.12
874.122	9110.12
874.366	8927.12
874.609	8854.12
874.852	8789.12
875.095	8743.12
875.337	8642.12
875.58	8527.12
875.823	8597.12
876.066	8598.12
876.309	8639.12
876.551	8495.12
876.794	8449.12
877.037	8501.12
877.279	8370.12
877.522	8463.12
877.764	8556.12
878.007	8429.12
878.249	8472.12
878.491	8433.12
878.734	8418.12
878.976	8345.12
879.218	8292.12
879.46	8343.12
879.702	8280.12
879.945	8218.12
880.187	8131.12
880.429	8111.12
880.671	8073.12
880.912	8031.12
881.154	7991.12
881.396	7928.12
881.638	7972.12
881.88	7985.12
882.121	7922.12
882.363	7995.12
882.605	8013.12
882.846	7956.12
883.088	8020.12
883.329	8011.12
883.571	8100.12
883.812	8160.12
884.053	8387.12
884.295	8629.12
884.536	8789.12
884.777	8754.12
885.018	8659.12
885.259	8583.12
885.5	8494.12
885.742	8756.12
885.982	8418.12
886.223	8359.12
886.464	8239.12
886.705	8175.12
886.946	8161.12
887.187	7913.12
887.428	7885.12
887.668	7742.12
887.909	7558.12
888.15	7548.12
888.39	7525.12
888.631	7498.12
888.871	7423.12
889.111	7333.12
889.352	7292.12
889.592	7244.12
889.833	7173.12
890.073	7145.12
890.313	7160.12
890.553	6963.12
890.793	7022.12
891.033	6933.12
891.273	6927.12
891.513	6892.12
891.753	6955.12
891.993	6944.12
892.233	6907.12
892.473	7023.12
892.713	6981.12
892.952	6969.12
893.192	6995.12
893.432	6968.12
893.671	7043.12
893.911	6975.12
894.15	6904.12
894.39	6824.12
894.629	6809.12
894.869	6828.12
895.108	6787.12
895.347	6681.12
895.587	6777.12
895.826	6702.12
896.065	6671.12
896.304	6707.12
896.543	6723.12
896.782	6540.12
897.021	6650.12
897.26	6625.12
897.499	6665.12
897.738	6692.12
897.977	6622.12
898.216	6529.12
898.454	6524.12
898.693	6535.12
898.932	6465.12
899.17	6418.12
899.409	6440.12
899.647	6431.12
899.886	6414.12
900.124	6450.12
900.363	6382.12
900.601	6492.12
900.839	6460.12
901.078	6560.12
901.316	6592.12
901.554	6635.12
901.792	6695.12
902.03	6680.12
902.268	6696.12
902.506	6703.12
902.744	6586.12
902.982	6657.12
903.22	6445.12
903.458	6389.12
903.695	6325.12
903.933	6239.12
904.171	6065.12
904.409	5990.12
904.646	5922.12
904.884	5805.12
905.121	5797.12
905.359	5788.12
905.596	5680.12
905.833	5595.12
906.071	5622.12
906.308	5654.12
906.545	5616.12
906.783	5518.12
907.02	5592.12
907.257	5525.12
907.494	5499.12
907.731	5579.12
907.968	5463.12
908.205	5488.12
908.442	5432.12
908.679	5498.12
908.915	5405.12
909.152	5316.12
909.389	5260.12
909.626	5273.12
909.862	5204.12
910.099	5206.12
910.335	5239.12
910.572	5137.12
910.808	5134.12
911.045	5096.12
911.281	5076.12
911.518	5128.12
911.754	5048.12
911.99	5093.12
912.226	5024.12
912.463	4978.12
912.699	4969.12
912.935	4970.12
913.171	4873.12
913.407	4871.12
913.643	4871.12
913.879	4837.12
914.114	4711.12
914.35	4753.12
914.586	4676.12
914.822	4638.12
915.057	4744.12
915.293	4548.12
915.529	4545.12
915.764	4660.12
916	4610.12
916.235	4625.12
916.471	4575.12
916.706	4461.12
916.941	4522.12
917.177	4502.12
917.412	4550.12
917.647	4538.12
917.882	4512.12
918.117	4563.12
918.352	4518.12
918.588	4589.12
918.823	4448.12
919.057	4418.12
919.292	4323.12
919.527	4406.12
919.762	4309.12
919.997	4314.12
920.232	4200.12
920.466	4290.12
920.701	4087.12
920.935	4146.12
921.17	4104.12
921.405	4068.12
921.639	4138.12
921.873	4090.12
922.108	4098.12
922.342	4075.12
922.576	3999.12
922.811	4062.12
923.045	4098.12
923.279	4074.12
923.513	3967.12
923.747	3999.12
923.981	4021.12
924.215	3954.12
924.449	3935.12
924.683	3858.12
924.917	3845.12
925.151	3884.12
925.385	3914.12
925.618	3869.12
925.852	3878.12
926.086	3839.12
926.319	3836.12
926.553	3845.12
926.786	3847.12
927.02	3864.12
927.253	3843.12
927.486	3903.12
927.72	3769.12
927.953	3834.12
928.186	3787.12
928.42	3802.12
928.653	3748.12
928.886	3711.12
929.119	3755.12
929.352	3765.12
929.585	3758.12
929.818	3659.12
930.051	3690.12
930.284	3697.12
930.516	3576.12
930.749	3555.12
930.982	3579.12
931.215	3570.12
931.447	3552.12
931.68	3522.12
931.912	3539.12
932.145	3517.12
932.377	3546.12
932.61	3689.12
932.842	3507.12
933.074	3537.12
933.307	3509.12
933.539	3585.12
933.771	3625.12
934.003	3558.12
934.236	3602.12
934.468	3578.12
934.7	3508.12
934.932	3538.12
935.164	3471.12
935.395	3503.12
935.627	3544.12
935.859	3497.12
936.091	3403.12
936.323	3467.12
936.554	3498.12
936.786	3443.12
937.017	3384.12
937.249	3417.12
937.481	3339.12
937.712	3425.12
937.943	3432.12
938.175	3412.12
938.406	3420.12
938.637	3487.12
938.869	3401.12
939.1	3423.12
939.331	3352.12
939.562	3440.12
939.793	3402.12
940.024	3424.12
940.255	3377.12
940.486	3327.12
940.717	3396.12
940.948	3336.12
941.179	3294.12
941.409	3295.12
941.64	3300.12
941.871	3333.12
942.102	3313.12
942.332	3291.12
942.563	3349.12
942.793	3317.12
943.024	3306.12
943.254	3321.12
943.484	3350.12
943.715	3354.12
943.945	3331.12
944.175	3260.12
944.405	3255.12
944.636	3252.12
944.866	3300.12
945.096	3269.12
945.326	3236.12
945.556	3308.12
945.786	3262.12
946.016	3258.12
946.245	3154.12
946.475	3196.12
946.705	3163.12
946.935	3215.12
947.164	3154.12
947.394	3144.12
947.624	3127.12
947.853	3175.12
948.083	3124.12
948.312	3110.12
948.542	3109.12
948.771	3027.12
949	3081.12
949.23	3077.12
949.459	3049.12
949.688	3114.12
949.917	3080.12
950.146	3076.12
950.375	3128.12
950.604	3049.12
950.833	3157.12
951.062	3083.12
951.291	3073.12
951.52	3040.12
951.749	3046.12
951.978	3019.12
952.206	3031.12
952.435	2981.12
952.664	3008.12
952.892	3093.12
953.121	3026.12
953.349	3060.12
953.578	3039.12
953.806	2969.12
954.035	2916.12
954.263	2957.12
954.491	2915.12
954.719	2954.12
954.948	2888.12
955.176	2871.12
955.404	2842.12
955.632	2899.12
955.86	2879.12
956.088	2880.12
956.316	2879.12
956.544	2888.12
956.772	2836.12
956.999	2813.12
957.227	2927.12
957.455	2790.12
957.683	2819.12
957.91	2786.12
958.138	2753.12
958.365	2753.12
958.593	2760.12
958.82	2704.12
959.048	2803.12
959.275	2749.12
959.502	2766.12
959.73	2728.12
959.957	2721.12
960.184	2808.12
960.411	2767.12
960.638	2815.12
960.865	2701.12
961.092	2762.12
961.319	2648.12
961.546	2701.12
961.773	2765.12
962	2704.12
962.227	2738.12
962.454	2702.12
962.68	2696.12
962.907	2690.12
963.134	2610.12
963.36	2694.12
963.587	2697.12
963.813	2599.12
964.04	2632.12
964.266	2618.12
964.493	2706.12
964.719	2636.12
964.945	2629.12
965.171	2505.12
965.398	2577.12
965.624	2615.12
965.85	2510.12
966.076	2528.12
966.302	2550.12
966.528	2484.12
966.754	2571.12
966.98	2553.12
967.206	2526.12
967.431	2476.12
967.657	2556.12
967.883	2517.12
968.109	2509.12
968.334	2437.12
968.56	2461.12
968.785	2464.12
969.011	2431.12
969.236	2465.12
969.462	2390.12
969.687	2456.12
969.912	2475.12
970.138	2486.12
970.363	2378.12
970.588	2428.12
970.813	2393.12
971.038	2374.12
971.263	2407.12
971.488	2411.12
971.713	2477.12
971.938	2407.12
972.163	2300.12
972.388	2393.12
972.613	2334.12
972.838	2343.12
973.062	2318.12
973.287	2352.12
973.512	2248.12
973.736	2283.12
973.961	2315.12
974.185	2283.12
974.41	2326.12
974.634	2150.12
974.858	2210.12
975.083	2235.12
975.307	2292.12
975.531	2200.12
975.755	2141.12
975.98	2189.12
976.204	2137.12
976.428	2116.12
976.652	2113.12
976.876	2102.12
977.1	2127.12
977.324	2094.12
977.547	2187.12
977.771	2165.12
977.995	2109.12
978.219	2055.12
978.442	2191.12
978.666	2104.12
978.89	2115.12
979.113	2130.12
979.337	2085.12
979.56	2053.12
979.783	2133.12
980.007	2066.12
980.23	2102.12
980.453	2037.12
980.677	2072.12
980.9	2043.12
981.123	1985.12
981.346	2086.12
981.569	2050.12
981.792	2080.12
982.015	2055.12
982.238	1952.12
982.461	2037.12
982.684	1964.12
982.907	1939.12
983.129	1925.12
983.352	1971.12
983.575	1980.12
983.797	1956.12
984.02	1907.12
984.242	1899.12
984.465	1911.12
984.687	1937.12
984.91	1992.12
985.132	1957.12
985.354	1960.12
985.577	1894.12
985.799	1912.12
986.021	1824.12
986.243	1883.12
986.465	1915.12
986.687	1952.12
986.909	1977.12
987.131	1898.12
987.353	1858.12
987.575	1894.12
987.797	1828.12
988.019	1809.12
988.241	1849.12
988.462	1850.12
988.684	1888.12
988.906	1894.12
989.127	1918.12
989.349	1818.12
989.57	1826.12
989.792	1877.12
990.013	1886.12
990.234	1891.12
990.456	1894.12
990.677	1909.12
990.898	1827.12
991.119	1839.12
991.341	1870.12
991.562	1817.12
991.783	1816.12
992.004	1761.12
992.225	1779.12
992.446	1779.12
992.667	1718.12
992.887	1765.12
993.108	1707.12
993.329	1838.12
993.55	1752.12
993.77	1697.12
993.991	1687.12
994.212	1740.12
994.432	1727.12
994.653	1749.12
994.873	1721.12
995.093	1595.12
995.314	1674.12
995.534	1739.12
995.754	1747.12
995.975	1758.12
996.195	1641.12
996.415	1699.12
996.635	1687.12
996.855	1711.12
997.075	1704.12
997.295	1690.12
997.515	1667.12
997.735	1710.12
997.955	1680.12
998.174	1707.12
998.394	1665.12
998.614	1690.12
998.834	1647.12
999.053	1728.12
999.273	1695.12
999.492	1701.12
999.712	1672.12
999.931	1633.12
1000.151	1649.12
1000.37	1670.12
1000.589	1695.12
1000.809	1605.12
1001.028	1733.12
1001.247	1675.12
1001.466	1568.12
1001.685	1725.12
1001.904	1652.12
1002.123	1611.12
1002.342	1628.12
1002.561	1600.12
1002.78	1612.12
1002.999	1682.12
1003.218	1579.12
1003.436	1589.12
1003.655	1609.12
1003.874	1593.12
1004.092	1582.12
1004.311	1659.12
1004.53	1608.12
1004.748	1657.12
1004.966	1590.12
1005.185	1672.12
1005.403	1607.12
1005.622	1607.12
1005.84	1671.12
1006.058	1584.12
1006.276	1610.12
1006.494	2102.12
1006.712	1616.12
1006.931	1682.12
1007.149	1589.12
1007.367	1622.12
1007.584	1625.12
1007.802	1680.12
1008.02	1634.12
1008.238	1764.12
1008.456	1717.12
1008.673	1629.12
1008.891	1737.12
1009.109	1738.12
1009.326	1792.12
1009.544	1865.12
1009.761	1834.12
1009.979	1909.12
1010.196	1970.12
1010.413	2090.12
1010.631	2174.12
1010.848	2252.12
1011.065	2290.12
1011.282	2236.12
1011.5	2164.12
1011.717	2297.12
1011.934	2206.12
1012.151	2258.12
1012.368	2214.12
1012.585	2126.12
1012.801	2212.12
1013.018	2181.12
1013.235	2169.12
1013.452	2233.12
1013.669	2161.12
1013.885	2199.12
1014.102	2270.12
1014.318	2221.12
1014.535	2156.12
1014.751	2215.12
1014.968	2204.12
1015.184	2208.12
1015.401	2113.12
1015.617	2140.12
1015.833	2098.12
1016.049	2065.12
1016.266	2086.12
1016.482	2038.12
1016.698	1970.12
1016.914	2037.12
1017.13	1955.12
1017.346	1959.12
1017.562	2023.12
1017.778	1950.12
1017.993	1908.12
1018.209	1957.12
1018.425	1941.12
1018.641	1928.12
1018.856	1886.12
1019.072	1911.12
1019.288	1976.12
1019.503	1907.12
1019.719	1797.12
1019.934	1843.12
1020.149	1893.12
1020.365	1794.12
1020.58	1763.12
1020.795	1787.12
1021.011	1684.12
1021.226	1683.12
1021.441	1692.12
1021.656	1605.12
1021.871	1501.12
1022.086	1513.12
1022.301	1484.12
1022.516	1473.12
1022.731	1552.12
1022.946	1405.12
1023.16	1413.12
1023.375	1367.12
1023.59	1326.12
1023.804	1272.12
1024.019	1388.12
1024.234	1248.12
1024.448	1253.12
1024.663	1190.12
1024.877	1180.12
1025.092	1215.12
1025.306	1191.12
1025.52	1064.12
1025.734	1163.12
1025.949	1098.12
1026.163	1060.12
1026.377	997.12
1026.591	1027.12
1026.805	967.12
1027.019	948.12
1027.233	926.12
1027.447	870.12
1027.661	961.12
1027.875	903.12
1028.088	899.12
1028.302	830.12
1028.516	812.12
1028.73	793.12
1028.943	790.12
1029.157	748.12
1029.37	689.12
1029.584	-0.88
1029.797	-1.88
1030.011	-1.88
1030.224	-5.88
