Data from QEP037381__223__10-51-54-540.txt Node

Date: Wed Dec 21 10:51:54 EST 2022
User: dcclab
Spectrometer: QEP03738
Trigger mode: 4
Integration Time (sec): 1.000000E1
Scans to average: 1
Electric dark correction enabled: true
Nonlinearity correction enabled: false
Boxcar width: 0
XAxis mode: Wavelengths
Number of Pixels in Spectrum: 1044
>>>>>Begin Spectral Data<<<<<
784.041	14.75
784.3	-0.25
784.558	-5.25
784.817	-4.25
785.075	113023.75
785.334	19107.75
785.592	8749.75
785.851	5977.75
786.109	4498.75
786.368	3538.75
786.626	2853.75
786.884	2330.75
787.143	1940.75
787.401	1592.75
787.659	1451.75
787.917	1240.75
788.175	1138.75
788.433	991.75
788.691	892.75
788.949	827.75
789.207	773.75
789.465	668.75
789.723	626.75
789.98	587.75
790.238	624.75
790.496	566.75
790.753	549.75
791.011	591.75
791.268	536.75
791.526	516.75
791.783	523.75
792.041	511.75
792.298	422.75
792.556	492.75
792.813	460.75
793.07	444.75
793.327	435.75
793.584	497.75
793.841	428.75
794.099	446.75
794.356	506.75
794.613	415.75
794.869	443.75
795.126	406.75
795.383	383.75
795.64	407.75
795.897	367.75
796.153	424.75
796.41	421.75
796.667	399.75
796.923	399.75
797.18	396.75
797.436	425.75
797.693	383.75
797.949	427.75
798.206	447.75
798.462	376.75
798.718	427.75
798.974	397.75
799.231	441.75
799.487	442.75
799.743	427.75
799.999	448.75
800.255	442.75
800.511	425.75
800.767	458.75
801.023	449.75
801.279	470.75
801.534	500.75
801.79	512.75
802.046	504.75
802.302	600.75
802.557	650.75
802.813	762.75
803.068	865.75
803.324	1147.75
803.579	1455.75
803.835	1948.75
804.09	2637.75
804.345	3340.75
804.601	4247.75
804.856	5117.75
805.111	5861.75
805.366	6378.75
805.621	6757.75
805.876	7062.75
806.131	7203.75
806.386	7269.75
806.641	7421.75
806.896	7521.75
807.151	7748.75
807.406	7712.75
807.661	7905.75
807.915	7992.75
808.17	8146.75
808.425	8222.75
808.679	8286.75
808.934	8417.75
809.188	8353.75
809.443	8540.75
809.697	8614.75
809.951	8633.75
810.206	8699.75
810.46	8821.75
810.714	8858.75
810.968	8990.75
811.223	8957.75
811.477	9078.75
811.731	9180.75
811.985	9168.75
812.239	9151.75
812.493	9221.75
812.747	9296.75
813	9223.75
813.254	9329.75
813.508	9367.75
813.762	9415.75
814.015	9486.75
814.269	9493.75
814.522	9628.75
814.776	9638.75
815.03	9879.75
815.283	9911.75
815.536	10094.75
815.79	10241.75
816.043	10355.75
816.296	10558.75
816.55	10583.75
816.803	10674.75
817.056	10895.75
817.309	11009.75
817.562	11039.75
817.815	11165.75
818.068	11192.75
818.321	11316.75
818.574	11444.75
818.827	11592.75
819.079	11675.75
819.332	11978.75
819.585	12045.75
819.838	12252.75
820.09	12247.75
820.343	12426.75
820.595	12387.75
820.848	12527.75
821.1	12498.75
821.353	12520.75
821.605	12496.75
821.857	12625.75
822.11	12481.75
822.362	12415.75
822.614	12426.75
822.866	12456.75
823.118	12395.75
823.37	12546.75
823.622	12575.75
823.874	12571.75
824.126	12684.75
824.378	12684.75
824.63	12675.75
824.882	12635.75
825.134	12615.75
825.385	12550.75
825.637	12578.75
825.888	12500.75
826.14	12484.75
826.392	12457.75
826.643	12373.75
826.895	12310.75
827.146	12267.75
827.397	12220.75
827.649	12266.75
827.9	12164.75
828.151	12188.75
828.402	12195.75
828.653	12255.75
828.905	12292.75
829.156	12427.75
829.407	12316.75
829.658	12361.75
829.909	12353.75
830.159	12361.75
830.41	12307.75
830.661	12227.75
830.912	12144.75
831.162	12133.75
831.413	12067.75
831.664	12122.75
831.914	12157.75
832.165	12107.75
832.415	12138.75
832.666	12029.75
832.916	12076.75
833.167	12079.75
833.417	12121.75
833.667	12016.75
833.917	11978.75
834.168	11981.75
834.418	11977.75
834.668	11885.75
834.918	11895.75
835.168	11822.75
835.418	11791.75
835.668	11700.75
835.918	11777.75
836.167	11756.75
836.417	11647.75
836.667	11768.75
836.917	11638.75
837.166	11632.75
837.416	11628.75
837.666	11660.75
837.915	11607.75
838.165	11583.75
838.414	11442.75
838.663	11454.75
838.913	11506.75
839.162	11501.75
839.411	11511.75
839.661	11445.75
839.91	11436.75
840.159	11352.75
840.408	11388.75
840.657	11425.75
840.906	11477.75
841.155	11389.75
841.404	11399.75
841.653	11422.75
841.902	11329.75
842.15	11414.75
842.399	11460.75
842.648	11436.75
842.897	11441.75
843.145	11258.75
843.394	11263.75
843.642	11109.75
843.891	11152.75
844.139	11088.75
844.388	11007.75
844.636	10826.75
844.884	10895.75
845.133	10898.75
845.381	10860.75
845.629	10928.75
845.877	10878.75
846.125	10846.75
846.373	10886.75
846.621	10762.75
846.869	10802.75
847.117	10792.75
847.365	10698.75
847.613	10647.75
847.861	10650.75
848.108	10653.75
848.356	10628.75
848.604	10560.75
848.851	10630.75
849.099	10606.75
849.346	10640.75
849.594	10743.75
849.841	10760.75
850.089	10739.75
850.336	10757.75
850.583	10826.75
850.831	10773.75
851.078	10654.75
851.325	10623.75
851.572	10681.75
851.819	10580.75
852.066	10370.75
852.313	10209.75
852.56	10091.75
852.807	10095.75
853.054	10043.75
853.301	10028.75
853.548	10087.75
853.794	10215.75
854.041	10198.75
854.288	10192.75
854.534	10382.75
854.781	10268.75
855.028	10288.75
855.274	10307.75
855.52	10210.75
855.767	10143.75
856.013	10235.75
856.26	10469.75
856.506	10064.75
856.752	10089.75
856.998	9980.75
857.244	10064.75
857.49	10123.75
857.736	10100.75
857.982	10204.75
858.228	10071.75
858.474	10016.75
858.72	9952.75
858.966	9852.75
859.212	9715.75
859.458	9608.75
859.703	9638.75
859.949	9392.75
860.195	9472.75
860.44	9409.75
860.686	9368.75
860.931	9381.75
861.177	9319.75
861.422	9260.75
861.667	9159.75
861.913	9213.75
862.158	9196.75
862.403	9238.75
862.648	9269.75
862.893	9295.75
863.138	9262.75
863.384	9190.75
863.629	9171.75
863.873	9147.75
864.118	9187.75
864.363	9089.75
864.608	9070.75
864.853	9112.75
865.098	9077.75
865.342	8979.75
865.587	8967.75
865.832	8979.75
866.076	8932.75
866.321	8867.75
866.565	8784.75
866.81	8770.75
867.054	8821.75
867.298	8798.75
867.543	8781.75
867.787	8751.75
868.031	8736.75
868.275	8692.75
868.519	8794.75
868.764	8671.75
869.008	8655.75
869.252	8747.75
869.496	8723.75
869.739	8649.75
869.983	8686.75
870.227	8703.75
870.471	8658.75
870.715	8759.75
870.958	8766.75
871.202	8725.75
871.446	8768.75
871.689	8747.75
871.933	8794.75
872.176	8780.75
872.42	8700.75
872.663	8717.75
872.906	8759.75
873.15	8685.75
873.393	8632.75
873.636	8722.75
873.879	8647.75
874.122	8507.75
874.366	8371.75
874.609	8326.75
874.852	8202.75
875.095	8193.75
875.337	8109.75
875.58	7997.75
875.823	8057.75
876.066	8010.75
876.309	8076.75
876.551	7923.75
876.794	7913.75
877.037	7938.75
877.279	7885.75
877.522	7868.75
877.764	7871.75
878.007	7853.75
878.249	7871.75
878.491	7805.75
878.734	7826.75
878.976	7767.75
879.218	7648.75
879.46	7694.75
879.702	7635.75
879.945	7567.75
880.187	7502.75
880.429	7549.75
880.671	7384.75
880.912	7377.75
881.154	7360.75
881.396	7235.75
881.638	7368.75
881.88	7402.75
882.121	7255.75
882.363	7330.75
882.605	7327.75
882.846	7330.75
883.088	7343.75
883.329	7307.75
883.571	7312.75
883.812	7461.75
884.053	7599.75
884.295	7773.75
884.536	7948.75
884.777	7872.75
885.018	7796.75
885.259	7828.75
885.5	7678.75
885.742	7830.75
885.982	7608.75
886.223	7517.75
886.464	7451.75
886.705	7408.75
886.946	7329.75
887.187	7185.75
887.428	7162.75
887.668	6950.75
887.909	6856.75
888.15	6793.75
888.39	6739.75
888.631	6745.75
888.871	6679.75
889.111	6681.75
889.352	6566.75
889.592	6467.75
889.833	6456.75
890.073	6473.75
890.313	6431.75
890.553	6265.75
890.793	6282.75
891.033	6221.75
891.273	6202.75
891.513	6174.75
891.753	6269.75
891.993	6216.75
892.233	6207.75
892.473	6274.75
892.713	6282.75
892.952	6167.75
893.192	6249.75
893.432	6195.75
893.671	6229.75
893.911	6131.75
894.15	6187.75
894.39	6047.75
894.629	6043.75
894.869	6004.75
895.108	6012.75
895.347	5947.75
895.587	5958.75
895.826	5880.75
896.065	5910.75
896.304	5879.75
896.543	5919.75
896.782	5818.75
897.021	5879.75
897.26	5914.75
897.499	5909.75
897.738	5871.75
897.977	5765.75
898.216	5760.75
898.454	5743.75
898.693	5655.75
898.932	5658.75
899.17	5602.75
899.409	5644.75
899.647	5568.75
899.886	5555.75
900.124	5598.75
900.363	5556.75
900.601	5582.75
900.839	5635.75
901.078	5657.75
901.316	5651.75
901.554	5718.75
901.792	5747.75
902.03	5709.75
902.268	5719.75
902.506	5762.75
902.744	5716.75
902.982	5607.75
903.22	5584.75
903.458	5473.75
903.695	5398.75
903.933	5402.75
904.171	5151.75
904.409	5152.75
904.646	5144.75
904.884	5072.75
905.121	5055.75
905.359	4991.75
905.596	4959.75
905.833	4856.75
906.071	4815.75
906.308	4852.75
906.545	4836.75
906.783	4761.75
907.02	4842.75
907.257	4737.75
907.494	4766.75
907.731	4765.75
907.968	4756.75
908.205	4690.75
908.442	4654.75
908.679	4643.75
908.915	4647.75
909.152	4670.75
909.389	4486.75
909.626	4511.75
909.862	4448.75
910.099	4435.75
910.335	4482.75
910.572	4395.75
910.808	4385.75
911.045	4359.75
911.281	4361.75
911.518	4454.75
911.754	4317.75
911.99	4400.75
912.226	4277.75
912.463	4270.75
912.699	4220.75
912.935	4221.75
913.171	4186.75
913.407	4075.75
913.643	4147.75
913.879	4132.75
914.114	4059.75
914.35	4023.75
914.586	3967.75
914.822	3934.75
915.057	4009.75
915.293	3843.75
915.529	3870.75
915.764	3948.75
916	3893.75
916.235	3898.75
916.471	3885.75
916.706	3818.75
916.941	3851.75
917.177	3852.75
917.412	3867.75
917.647	3859.75
917.882	3782.75
918.117	3848.75
918.352	3820.75
918.588	3840.75
918.823	3722.75
919.057	3726.75
919.292	3638.75
919.527	3713.75
919.762	3604.75
919.997	3643.75
920.232	3522.75
920.466	3616.75
920.701	3419.75
920.935	3514.75
921.17	3452.75
921.405	3400.75
921.639	3435.75
921.873	3403.75
922.108	3425.75
922.342	3455.75
922.576	3343.75
922.811	3332.75
923.045	3400.75
923.279	3413.75
923.513	3253.75
923.747	3406.75
923.981	3301.75
924.215	3282.75
924.449	3233.75
924.683	3203.75
924.917	3220.75
925.151	3206.75
925.385	3231.75
925.618	3202.75
925.852	3176.75
926.086	3136.75
926.319	3193.75
926.553	3180.75
926.786	3217.75
927.02	3106.75
927.253	3180.75
927.486	3218.75
927.72	3093.75
927.953	3196.75
928.186	3120.75
928.42	3122.75
928.653	3060.75
928.886	3070.75
929.119	3158.75
929.352	3079.75
929.585	3038.75
929.818	3006.75
930.051	3029.75
930.284	3005.75
930.516	2912.75
930.749	2963.75
930.982	2921.75
931.215	2964.75
931.447	2865.75
931.68	2944.75
931.912	2848.75
932.145	2897.75
932.377	2917.75
932.61	2986.75
932.842	2825.75
933.074	2897.75
933.307	2870.75
933.539	2920.75
933.771	2933.75
934.003	2831.75
934.236	2929.75
934.468	2928.75
934.7	2885.75
934.932	2911.75
935.164	2834.75
935.395	2859.75
935.627	2838.75
935.859	2838.75
936.091	2765.75
936.323	2838.75
936.554	2835.75
936.786	2834.75
937.017	2739.75
937.249	2802.75
937.481	2698.75
937.712	2771.75
937.943	2749.75
938.175	2714.75
938.406	2728.75
938.637	2805.75
938.869	2674.75
939.1	2728.75
939.331	2720.75
939.562	2712.75
939.793	2758.75
940.024	2747.75
940.255	2730.75
940.486	2698.75
940.717	2679.75
940.948	2628.75
941.179	2584.75
941.409	2654.75
941.64	2585.75
941.871	2701.75
942.102	2611.75
942.332	2662.75
942.563	2677.75
942.793	2655.75
943.024	2588.75
943.254	2627.75
943.484	2679.75
943.715	2690.75
943.945	2619.75
944.175	2582.75
944.405	2545.75
944.636	2564.75
944.866	2618.75
945.096	2620.75
945.326	2569.75
945.556	2601.75
945.786	2607.75
946.016	2538.75
946.245	2496.75
946.475	2524.75
946.705	2490.75
946.935	2528.75
947.164	2509.75
947.394	2475.75
947.624	2490.75
947.853	2511.75
948.083	2459.75
948.312	2437.75
948.542	2386.75
948.771	2410.75
949	2418.75
949.23	2418.75
949.459	2435.75
949.688	2442.75
949.917	2438.75
950.146	2406.75
950.375	2487.75
950.604	2382.75
950.833	2479.75
951.062	2431.75
951.291	2402.75
951.52	2406.75
951.749	2399.75
951.978	2340.75
952.206	2346.75
952.435	2334.75
952.664	2372.75
952.892	2393.75
953.121	2356.75
953.349	2369.75
953.578	2340.75
953.806	2325.75
954.035	2289.75
954.263	2353.75
954.491	2251.75
954.719	2315.75
954.948	2285.75
955.176	2274.75
955.404	2185.75
955.632	2244.75
955.86	2262.75
956.088	2232.75
956.316	2261.75
956.544	2272.75
956.772	2199.75
956.999	2175.75
957.227	2256.75
957.455	2164.75
957.683	2164.75
957.91	2141.75
958.138	2185.75
958.365	2162.75
958.593	2139.75
958.82	2080.75
959.048	2158.75
959.275	2155.75
959.502	2117.75
959.73	2073.75
959.957	2134.75
960.184	2099.75
960.411	2059.75
960.638	2147.75
960.865	2116.75
961.092	2106.75
961.319	2011.75
961.546	2139.75
961.773	2114.75
962	2074.75
962.227	2095.75
962.454	2081.75
962.68	2078.75
962.907	2098.75
963.134	2045.75
963.36	2054.75
963.587	2079.75
963.813	2010.75
964.04	2068.75
964.266	1982.75
964.493	2039.75
964.719	2065.75
964.945	2031.75
965.171	1921.75
965.398	1963.75
965.624	2013.75
965.85	1923.75
966.076	1945.75
966.302	1989.75
966.528	1966.75
966.754	1969.75
966.98	1956.75
967.206	1956.75
967.431	1882.75
967.657	1984.75
967.883	1948.75
968.109	1934.75
968.334	1883.75
968.56	1874.75
968.785	1876.75
969.011	1864.75
969.236	1925.75
969.462	1857.75
969.687	1852.75
969.912	1876.75
970.138	1923.75
970.363	1874.75
970.588	1862.75
970.813	1830.75
971.038	1810.75
971.263	1851.75
971.488	1834.75
971.713	1884.75
971.938	1881.75
972.163	1770.75
972.388	1823.75
972.613	1773.75
972.838	1825.75
973.062	1766.75
973.287	1790.75
973.512	1715.75
973.736	1790.75
973.961	1745.75
974.185	1759.75
974.41	1780.75
974.634	1655.75
974.858	1675.75
975.083	1758.75
975.307	1743.75
975.531	1682.75
975.755	1614.75
975.98	1648.75
976.204	1649.75
976.428	1605.75
976.652	1588.75
976.876	1613.75
977.1	1639.75
977.324	1573.75
977.547	1660.75
977.771	1628.75
977.995	1622.75
978.219	1559.75
978.442	1683.75
978.666	1630.75
978.89	1629.75
979.113	1596.75
979.337	1613.75
979.56	1567.75
979.783	1647.75
980.007	1577.75
980.23	1568.75
980.453	1541.75
980.677	1583.75
980.9	1571.75
981.123	1449.75
981.346	1567.75
981.569	1552.75
981.792	1589.75
982.015	1532.75
982.238	1512.75
982.461	1534.75
982.684	1492.75
982.907	1474.75
983.129	1486.75
983.352	1533.75
983.575	1508.75
983.797	1517.75
984.02	1447.75
984.242	1458.75
984.465	1473.75
984.687	1480.75
984.91	1503.75
985.132	1507.75
985.354	1496.75
985.577	1479.75
985.799	1463.75
986.021	1403.75
986.243	1437.75
986.465	1396.75
986.687	1470.75
986.909	1503.75
987.131	1442.75
987.353	1402.75
987.575	1442.75
987.797	1410.75
988.019	1370.75
988.241	1432.75
988.462	1394.75
988.684	1443.75
988.906	1446.75
989.127	1463.75
989.349	1377.75
989.57	1377.75
989.792	1421.75
990.013	1446.75
990.234	1425.75
990.456	1473.75
990.677	1456.75
990.898	1377.75
991.119	1393.75
991.341	1446.75
991.562	1361.75
991.783	1369.75
992.004	1354.75
992.225	1313.75
992.446	1385.75
992.667	1283.75
992.887	1385.75
993.108	1254.75
993.329	1419.75
993.55	1348.75
993.77	1288.75
993.991	1300.75
994.212	1333.75
994.432	1315.75
994.653	1337.75
994.873	1327.75
995.093	1234.75
995.314	1267.75
995.534	1337.75
995.754	1327.75
995.975	1353.75
996.195	1258.75
996.415	1315.75
996.635	1322.75
996.855	1304.75
997.075	1303.75
997.295	1305.75
997.515	1267.75
997.735	1333.75
997.955	1287.75
998.174	1313.75
998.394	1267.75
998.614	1296.75
998.834	1266.75
999.053	1294.75
999.273	1298.75
999.492	1339.75
999.712	1274.75
999.931	1253.75
1000.151	1275.75
1000.37	1289.75
1000.589	1345.75
1000.809	1243.75
1001.028	1375.75
1001.247	1324.75
1001.466	1195.75
1001.685	1337.75
1001.904	1294.75
1002.123	1260.75
1002.342	1263.75
1002.561	1231.75
1002.78	1241.75
1002.999	1328.75
1003.218	1238.75
1003.436	1254.75
1003.655	1304.75
1003.874	1236.75
1004.092	1231.75
1004.311	1296.75
1004.53	1259.75
1004.748	1337.75
1004.966	1259.75
1005.185	1320.75
1005.403	1301.75
1005.622	1260.75
1005.84	1346.75
1006.058	1239.75
1006.276	1271.75
1006.494	1773.75
1006.712	1243.75
1006.931	1308.75
1007.149	1224.75
1007.367	1261.75
1007.584	1293.75
1007.802	1325.75
1008.02	1268.75
1008.238	1358.75
1008.456	1348.75
1008.673	1220.75
1008.891	1339.75
1009.109	1280.75
1009.326	1355.75
1009.544	1442.75
1009.761	1321.75
1009.979	1452.75
1010.196	1430.75
1010.413	1534.75
1010.631	1575.75
1010.848	1606.75
1011.065	1614.75
1011.282	1541.75
1011.5	1512.75
1011.717	1593.75
1011.934	1558.75
1012.151	1578.75
1012.368	1532.75
1012.585	1505.75
1012.801	1535.75
1013.018	1510.75
1013.235	1489.75
1013.452	1515.75
1013.669	1495.75
1013.885	1500.75
1014.102	1557.75
1014.318	1525.75
1014.535	1495.75
1014.751	1510.75
1014.968	1493.75
1015.184	1531.75
1015.401	1451.75
1015.617	1466.75
1015.833	1413.75
1016.049	1434.75
1016.266	1401.75
1016.482	1397.75
1016.698	1353.75
1016.914	1404.75
1017.13	1341.75
1017.346	1350.75
1017.562	1387.75
1017.778	1335.75
1017.993	1298.75
1018.209	1351.75
1018.425	1367.75
1018.641	1292.75
1018.856	1258.75
1019.072	1300.75
1019.288	1345.75
1019.503	1292.75
1019.719	1207.75
1019.934	1253.75
1020.149	1313.75
1020.365	1252.75
1020.58	1206.75
1020.795	1245.75
1021.011	1171.75
1021.226	1157.75
1021.441	1174.75
1021.656	1114.75
1021.871	1050.75
1022.086	1031.75
1022.301	1034.75
1022.516	1036.75
1022.731	1092.75
1022.946	978.75
1023.16	984.75
1023.375	939.75
1023.59	940.75
1023.804	913.75
1024.019	1015.75
1024.234	905.75
1024.448	922.75
1024.663	848.75
1024.877	843.75
1025.092	879.75
1025.306	885.75
1025.52	802.75
1025.734	882.75
1025.949	791.75
1026.163	786.75
1026.377	715.75
1026.591	765.75
1026.805	710.75
1027.019	691.75
1027.233	660.75
1027.447	621.75
1027.661	719.75
1027.875	638.75
1028.088	656.75
1028.302	589.75
1028.516	600.75
1028.73	597.75
1028.943	582.75
1029.157	555.75
1029.37	525.75
1029.584	1.75
1029.797	-3.25
1030.011	-2.25
1030.224	-1.25
