Data from QEP037381__180__10-44-44-538.txt Node

Date: Wed Dec 21 10:44:44 EST 2022
User: dcclab
Spectrometer: QEP03738
Trigger mode: 4
Integration Time (sec): 1.000000E1
Scans to average: 1
Electric dark correction enabled: true
Nonlinearity correction enabled: false
Boxcar width: 0
XAxis mode: Wavelengths
Number of Pixels in Spectrum: 1044
>>>>>Begin Spectral Data<<<<<
784.041	10.75
784.3	-2.25
784.558	-6.25
784.817	0.75
785.075	117781.75
785.334	19640.75
785.592	8942.75
785.851	6085.75
786.109	4597.75
786.368	3551.75
786.626	2876.75
786.884	2349.75
787.143	1957.75
787.401	1609.75
787.659	1448.75
787.917	1258.75
788.175	1123.75
788.433	998.75
788.691	894.75
788.949	850.75
789.207	802.75
789.465	690.75
789.723	673.75
789.98	600.75
790.238	635.75
790.496	590.75
790.753	568.75
791.011	629.75
791.268	540.75
791.526	520.75
791.783	550.75
792.041	524.75
792.298	449.75
792.556	494.75
792.813	472.75
793.07	469.75
793.327	460.75
793.584	533.75
793.841	458.75
794.099	457.75
794.356	538.75
794.613	419.75
794.869	462.75
795.126	429.75
795.383	407.75
795.64	435.75
795.897	378.75
796.153	439.75
796.41	421.75
796.667	421.75
796.923	436.75
797.18	421.75
797.436	458.75
797.693	415.75
797.949	450.75
798.206	501.75
798.462	402.75
798.718	461.75
798.974	433.75
799.231	479.75
799.487	468.75
799.743	473.75
799.999	502.75
800.255	497.75
800.511	476.75
800.767	527.75
801.023	500.75
801.279	545.75
801.534	569.75
801.79	609.75
802.046	626.75
802.302	767.75
802.557	855.75
802.813	1058.75
803.068	1286.75
803.324	1730.75
803.579	2331.75
803.835	3188.75
804.09	4341.75
804.345	5648.75
804.601	7076.75
804.856	8511.75
805.111	9810.75
805.366	10779.75
805.621	11507.75
805.876	12046.75
806.131	12323.75
806.386	12551.75
806.641	12794.75
806.896	12995.75
807.151	13154.75
807.406	13469.75
807.661	13731.75
807.915	13818.75
808.17	14064.75
808.425	14296.75
808.679	14321.75
808.934	14526.75
809.188	14610.75
809.443	14728.75
809.697	14980.75
809.951	15021.75
810.206	15197.75
810.46	15203.75
810.714	15408.75
810.968	15504.75
811.223	15575.75
811.477	15755.75
811.731	15910.75
811.985	15893.75
812.239	15957.75
812.493	16071.75
812.747	16145.75
813	16162.75
813.254	16146.75
813.508	16299.75
813.762	16346.75
814.015	16448.75
814.269	16553.75
814.522	16728.75
814.776	16890.75
815.03	16945.75
815.283	17261.75
815.536	17620.75
815.79	17825.75
816.043	18079.75
816.296	18253.75
816.55	18462.75
816.803	18629.75
817.056	18993.75
817.309	19113.75
817.562	19312.75
817.815	19531.75
818.068	19565.75
818.321	19714.75
818.574	19976.75
818.827	20239.75
819.079	20475.75
819.332	20819.75
819.585	20992.75
819.838	21396.75
820.09	21350.75
820.343	21660.75
820.595	21607.75
820.848	21801.75
821.1	21863.75
821.353	21944.75
821.605	21816.75
821.857	21842.75
822.11	21651.75
822.362	21581.75
822.614	21716.75
822.866	21642.75
823.118	21623.75
823.37	21731.75
823.622	21728.75
823.874	21776.75
824.126	21922.75
824.378	21819.75
824.63	21981.75
824.882	22018.75
825.134	22032.75
825.385	21883.75
825.637	21848.75
825.888	21790.75
826.14	21760.75
826.392	21733.75
826.643	21547.75
826.895	21564.75
827.146	21347.75
827.397	21365.75
827.649	21427.75
827.9	21250.75
828.151	21304.75
828.402	21363.75
828.653	21520.75
828.905	21490.75
829.156	21661.75
829.407	21509.75
829.658	21550.75
829.909	21578.75
830.159	21651.75
830.41	21422.75
830.661	21220.75
830.912	21092.75
831.162	21113.75
831.413	21139.75
831.664	21149.75
831.914	21060.75
832.165	21080.75
832.415	20964.75
832.666	21072.75
832.916	21035.75
833.167	21023.75
833.417	21059.75
833.667	20973.75
833.917	20832.75
834.168	20808.75
834.418	20794.75
834.668	20677.75
834.918	20658.75
835.168	20637.75
835.418	20391.75
835.668	20386.75
835.918	20363.75
836.167	20295.75
836.417	20157.75
836.667	20166.75
836.917	20287.75
837.166	20179.75
837.416	20225.75
837.666	20225.75
837.915	20177.75
838.165	20107.75
838.414	20029.75
838.663	19956.75
838.913	19918.75
839.162	19929.75
839.411	20007.75
839.661	19793.75
839.91	19735.75
840.159	19752.75
840.408	19760.75
840.657	19738.75
840.906	19728.75
841.155	19770.75
841.404	19645.75
841.653	19761.75
841.902	19803.75
842.15	19763.75
842.399	19824.75
842.648	19796.75
842.897	19671.75
843.145	19571.75
843.394	19395.75
843.642	19391.75
843.891	19252.75
844.139	19211.75
844.388	18983.75
844.636	18852.75
844.884	18963.75
845.133	18865.75
845.381	18783.75
845.629	18858.75
845.877	18830.75
846.125	18876.75
846.373	18883.75
846.621	18705.75
846.869	18680.75
847.117	18572.75
847.365	18436.75
847.613	18374.75
847.861	18405.75
848.108	18433.75
848.356	18403.75
848.604	18313.75
848.851	18255.75
849.099	18350.75
849.346	18420.75
849.594	18409.75
849.841	18500.75
850.089	18511.75
850.336	18525.75
850.583	18701.75
850.831	18593.75
851.078	18410.75
851.325	18366.75
851.572	18291.75
851.819	18117.75
852.066	17718.75
852.313	17562.75
852.56	17400.75
852.807	17340.75
853.054	17241.75
853.301	17289.75
853.548	17187.75
853.794	17471.75
854.041	17383.75
854.288	17435.75
854.534	17754.75
854.781	17669.75
855.028	17612.75
855.274	17600.75
855.52	17430.75
855.767	17376.75
856.013	17461.75
856.26	17690.75
856.506	17267.75
856.752	17196.75
856.998	17220.75
857.244	17217.75
857.49	17275.75
857.736	17326.75
857.982	17309.75
858.228	17349.75
858.474	17155.75
858.72	17048.75
858.966	16864.75
859.212	16705.75
859.458	16570.75
859.703	16339.75
859.949	16304.75
860.195	16160.75
860.44	16023.75
860.686	16007.75
860.931	16069.75
861.177	15833.75
861.422	15847.75
861.667	15730.75
861.913	15668.75
862.158	15713.75
862.403	15823.75
862.648	15842.75
862.893	15873.75
863.138	15776.75
863.384	15743.75
863.629	15661.75
863.873	15680.75
864.118	15690.75
864.363	15500.75
864.608	15477.75
864.853	15422.75
865.098	15361.75
865.342	15272.75
865.587	15212.75
865.832	15250.75
866.076	15286.75
866.321	15160.75
866.565	15019.75
866.81	14979.75
867.054	14994.75
867.298	14964.75
867.543	14788.75
867.787	14946.75
868.031	14874.75
868.275	14839.75
868.519	14806.75
868.764	14746.75
869.008	14679.75
869.252	14774.75
869.496	14774.75
869.739	14574.75
869.983	14760.75
870.227	14687.75
870.471	14563.75
870.715	14744.75
870.958	14756.75
871.202	14783.75
871.446	14702.75
871.689	14730.75
871.933	14743.75
872.176	14715.75
872.42	14648.75
872.663	14716.75
872.906	14687.75
873.15	14623.75
873.393	14522.75
873.636	14504.75
873.879	14489.75
874.122	14263.75
874.366	14011.75
874.609	13984.75
874.852	13887.75
875.095	13760.75
875.337	13753.75
875.58	13574.75
875.823	13487.75
876.066	13541.75
876.309	13425.75
876.551	13357.75
876.794	13322.75
877.037	13278.75
877.279	13249.75
877.522	13297.75
877.764	13270.75
878.007	13154.75
878.249	13209.75
878.491	13021.75
878.734	13201.75
878.976	13160.75
879.218	12923.75
879.46	12948.75
879.702	12894.75
879.945	12728.75
880.187	12623.75
880.429	12636.75
880.671	12521.75
880.912	12572.75
881.154	12438.75
881.396	12324.75
881.638	12405.75
881.88	12441.75
882.121	12347.75
882.363	12276.75
882.605	12413.75
882.846	12359.75
883.088	12301.75
883.329	12256.75
883.571	12239.75
883.812	12447.75
884.053	12600.75
884.295	12969.75
884.536	13073.75
884.777	13001.75
885.018	12860.75
885.259	12861.75
885.5	12683.75
885.742	12906.75
885.982	12572.75
886.223	12488.75
886.464	12460.75
886.705	12264.75
886.946	12114.75
887.187	11957.75
887.428	11840.75
887.668	11671.75
887.909	11517.75
888.15	11425.75
888.39	11345.75
888.631	11260.75
888.871	11117.75
889.111	11087.75
889.352	10998.75
889.592	10847.75
889.833	10793.75
890.073	10744.75
890.313	10747.75
890.553	10603.75
890.793	10523.75
891.033	10510.75
891.273	10465.75
891.513	10403.75
891.753	10490.75
891.993	10369.75
892.233	10371.75
892.473	10482.75
892.713	10421.75
892.952	10385.75
893.192	10413.75
893.432	10400.75
893.671	10433.75
893.911	10402.75
894.15	10286.75
894.39	10158.75
894.629	10116.75
894.869	10065.75
895.108	10068.75
895.347	9849.75
895.587	9930.75
895.826	9868.75
896.065	9843.75
896.304	9876.75
896.543	9822.75
896.782	9777.75
897.021	9781.75
897.26	9714.75
897.499	9779.75
897.738	9742.75
897.977	9598.75
898.216	9572.75
898.454	9452.75
898.693	9376.75
898.932	9396.75
899.17	9409.75
899.409	9345.75
899.647	9248.75
899.886	9267.75
900.124	9241.75
900.363	9176.75
900.601	9320.75
900.839	9260.75
901.078	9326.75
901.316	9373.75
901.554	9372.75
901.792	9464.75
902.03	9402.75
902.268	9450.75
902.506	9438.75
902.744	9321.75
902.982	9272.75
903.22	9121.75
903.458	9048.75
903.695	8970.75
903.933	8858.75
904.171	8683.75
904.409	8558.75
904.646	8462.75
904.884	8280.75
905.121	8308.75
905.359	8190.75
905.596	8146.75
905.833	8013.75
906.071	7934.75
906.308	8037.75
906.545	7984.75
906.783	7905.75
907.02	7922.75
907.257	7850.75
907.494	7904.75
907.731	7858.75
907.968	7860.75
908.205	7762.75
908.442	7739.75
908.679	7723.75
908.915	7587.75
909.152	7559.75
909.389	7480.75
909.626	7462.75
909.862	7419.75
910.099	7333.75
910.335	7367.75
910.572	7261.75
910.808	7318.75
911.045	7294.75
911.281	7231.75
911.518	7231.75
911.754	7122.75
911.99	7158.75
912.226	7077.75
912.463	6975.75
912.699	6941.75
912.935	6881.75
913.171	6879.75
913.407	6821.75
913.643	6836.75
913.879	6754.75
914.114	6653.75
914.35	6637.75
914.586	6564.75
914.822	6548.75
915.057	6567.75
915.293	6387.75
915.529	6266.75
915.764	6369.75
916	6366.75
916.235	6375.75
916.471	6360.75
916.706	6280.75
916.941	6293.75
917.177	6300.75
917.412	6296.75
917.647	6280.75
917.882	6213.75
918.117	6280.75
918.352	6185.75
918.588	6232.75
918.823	6113.75
919.057	6097.75
919.292	5960.75
919.527	6036.75
919.762	5916.75
919.997	5885.75
920.232	5758.75
920.466	5762.75
920.701	5667.75
920.935	5682.75
921.17	5634.75
921.405	5595.75
921.639	5588.75
921.873	5593.75
922.108	5572.75
922.342	5518.75
922.576	5495.75
922.811	5437.75
923.045	5526.75
923.279	5544.75
923.513	5321.75
923.747	5400.75
923.981	5446.75
924.215	5318.75
924.449	5304.75
924.683	5208.75
924.917	5212.75
925.151	5191.75
925.385	5255.75
925.618	5187.75
925.852	5132.75
926.086	5094.75
926.319	5178.75
926.553	5114.75
926.786	5106.75
927.02	5081.75
927.253	5139.75
927.486	5122.75
927.72	5090.75
927.953	5162.75
928.186	5077.75
928.42	5040.75
928.653	4952.75
928.886	4957.75
929.119	5003.75
929.352	4970.75
929.585	4928.75
929.818	4835.75
930.051	4841.75
930.284	4851.75
930.516	4696.75
930.749	4729.75
930.982	4725.75
931.215	4718.75
931.447	4599.75
931.68	4688.75
931.912	4623.75
932.145	4603.75
932.377	4646.75
932.61	4756.75
932.842	4561.75
933.074	4628.75
933.307	4556.75
933.539	4695.75
933.771	4668.75
934.003	4615.75
934.236	4672.75
934.468	4665.75
934.7	4574.75
934.932	4618.75
935.164	4584.75
935.395	4512.75
935.627	4564.75
935.859	4556.75
936.091	4432.75
936.323	4548.75
936.554	4498.75
936.786	4448.75
937.017	4412.75
937.249	4400.75
937.481	4339.75
937.712	4407.75
937.943	4377.75
938.175	4391.75
938.406	4337.75
938.637	4425.75
938.869	4300.75
939.1	4383.75
939.331	4350.75
939.562	4320.75
939.793	4279.75
940.024	4304.75
940.255	4326.75
940.486	4252.75
940.717	4224.75
940.948	4227.75
941.179	4212.75
941.409	4192.75
941.64	4151.75
941.871	4178.75
942.102	4151.75
942.332	4173.75
942.563	4216.75
942.793	4179.75
943.024	4088.75
943.254	4144.75
943.484	4183.75
943.715	4193.75
943.945	4176.75
944.175	4130.75
944.405	4103.75
944.636	4038.75
944.866	4138.75
945.096	4110.75
945.326	4010.75
945.556	4095.75
945.786	4051.75
946.016	4029.75
946.245	3990.75
946.475	3963.75
946.705	3990.75
946.935	3944.75
947.164	3909.75
947.394	3924.75
947.624	3898.75
947.853	3991.75
948.083	3893.75
948.312	3849.75
948.542	3796.75
948.771	3763.75
949	3763.75
949.23	3805.75
949.459	3776.75
949.688	3857.75
949.917	3741.75
950.146	3797.75
950.375	3833.75
950.604	3686.75
950.833	3832.75
951.062	3770.75
951.291	3752.75
951.52	3681.75
951.749	3704.75
951.978	3664.75
952.206	3666.75
952.435	3673.75
952.664	3715.75
952.892	3718.75
953.121	3658.75
953.349	3629.75
953.578	3632.75
953.806	3624.75
954.035	3574.75
954.263	3597.75
954.491	3531.75
954.719	3584.75
954.948	3516.75
955.176	3483.75
955.404	3463.75
955.632	3482.75
955.86	3494.75
956.088	3474.75
956.316	3456.75
956.544	3426.75
956.772	3398.75
956.999	3393.75
957.227	3440.75
957.455	3353.75
957.683	3383.75
957.91	3297.75
958.138	3267.75
958.365	3268.75
958.593	3291.75
958.82	3201.75
959.048	3280.75
959.275	3258.75
959.502	3250.75
959.73	3221.75
959.957	3244.75
960.184	3290.75
960.411	3195.75
960.638	3304.75
960.865	3170.75
961.092	3232.75
961.319	3155.75
961.546	3232.75
961.773	3246.75
962	3167.75
962.227	3228.75
962.454	3202.75
962.68	3181.75
962.907	3221.75
963.134	3085.75
963.36	3136.75
963.587	3128.75
963.813	3071.75
964.04	3115.75
964.266	3025.75
964.493	3092.75
964.719	3048.75
964.945	3076.75
965.171	2910.75
965.398	2988.75
965.624	3016.75
965.85	2940.75
966.076	2876.75
966.302	2959.75
966.528	2900.75
966.754	2955.75
966.98	2886.75
967.206	2901.75
967.431	2822.75
967.657	2946.75
967.883	2892.75
968.109	2849.75
968.334	2840.75
968.56	2827.75
968.785	2820.75
969.011	2796.75
969.236	2853.75
969.462	2788.75
969.687	2799.75
969.912	2869.75
970.138	2861.75
970.363	2720.75
970.588	2792.75
970.813	2763.75
971.038	2709.75
971.263	2720.75
971.488	2738.75
971.713	2758.75
971.938	2771.75
972.163	2643.75
972.388	2669.75
972.613	2633.75
972.838	2650.75
973.062	2655.75
973.287	2643.75
973.512	2602.75
973.736	2595.75
973.961	2595.75
974.185	2566.75
974.41	2603.75
974.634	2501.75
974.858	2506.75
975.083	2523.75
975.307	2552.75
975.531	2499.75
975.755	2419.75
975.98	2467.75
976.204	2377.75
976.428	2417.75
976.652	2405.75
976.876	2368.75
977.1	2430.75
977.324	2371.75
977.547	2426.75
977.771	2412.75
977.995	2387.75
978.219	2317.75
978.442	2409.75
978.666	2391.75
978.89	2371.75
979.113	2327.75
979.337	2303.75
979.56	2314.75
979.783	2385.75
980.007	2269.75
980.23	2297.75
980.453	2289.75
980.677	2292.75
980.9	2311.75
981.123	2198.75
981.346	2307.75
981.569	2299.75
981.792	2242.75
982.015	2244.75
982.238	2192.75
982.461	2159.75
982.684	2161.75
982.907	2156.75
983.129	2128.75
983.352	2159.75
983.575	2167.75
983.797	2154.75
984.02	2097.75
984.242	2105.75
984.465	2127.75
984.687	2105.75
984.91	2161.75
985.132	2101.75
985.354	2148.75
985.577	2083.75
985.799	2075.75
986.021	1994.75
986.243	2020.75
986.465	2074.75
986.687	2116.75
986.909	2129.75
987.131	2041.75
987.353	1989.75
987.575	2040.75
987.797	2018.75
988.019	1981.75
988.241	1984.75
988.462	1950.75
988.684	1996.75
988.906	2042.75
989.127	2045.75
989.349	1945.75
989.57	1990.75
989.792	1989.75
990.013	2025.75
990.234	1986.75
990.456	2008.75
990.677	2033.75
990.898	1950.75
991.119	1951.75
991.341	1962.75
991.562	1905.75
991.783	1953.75
992.004	1876.75
992.225	1829.75
992.446	1892.75
992.667	1834.75
992.887	1905.75
993.108	1788.75
993.329	1916.75
993.55	1857.75
993.77	1807.75
993.991	1791.75
994.212	1826.75
994.432	1780.75
994.653	1831.75
994.873	1804.75
995.093	1700.75
995.314	1741.75
995.534	1816.75
995.754	1832.75
995.975	1845.75
996.195	1724.75
996.415	1761.75
996.635	1771.75
996.855	1780.75
997.075	1749.75
997.295	1749.75
997.515	1714.75
997.735	1767.75
997.955	1767.75
998.174	1733.75
998.394	1722.75
998.614	1745.75
998.834	1704.75
999.053	1757.75
999.273	1744.75
999.492	1758.75
999.712	1705.75
999.931	1681.75
1000.151	1725.75
1000.37	1696.75
1000.589	1724.75
1000.809	1659.75
1001.028	1760.75
1001.247	1700.75
1001.466	1598.75
1001.685	1723.75
1001.904	1686.75
1002.123	1673.75
1002.342	1629.75
1002.561	1608.75
1002.78	1645.75
1002.999	1693.75
1003.218	1636.75
1003.436	1598.75
1003.655	1627.75
1003.874	1604.75
1004.092	1615.75
1004.311	1644.75
1004.53	1603.75
1004.748	1699.75
1004.966	1601.75
1005.185	1688.75
1005.403	1630.75
1005.622	1623.75
1005.84	1711.75
1006.058	1595.75
1006.276	1597.75
1006.494	2098.75
1006.712	1608.75
1006.931	1676.75
1007.149	1593.75
1007.367	1598.75
1007.584	1615.75
1007.802	1682.75
1008.02	1567.75
1008.238	1719.75
1008.456	1693.75
1008.673	1588.75
1008.891	1681.75
1009.109	1612.75
1009.326	1682.75
1009.544	1766.75
1009.761	1682.75
1009.979	1793.75
1010.196	1837.75
1010.413	1943.75
1010.631	1999.75
1010.848	2003.75
1011.065	2005.75
1011.282	1941.75
1011.5	1886.75
1011.717	1965.75
1011.934	1938.75
1012.151	1943.75
1012.368	1920.75
1012.585	1898.75
1012.801	1935.75
1013.018	1894.75
1013.235	1878.75
1013.452	1901.75
1013.669	1912.75
1013.885	1909.75
1014.102	1943.75
1014.318	1885.75
1014.535	1873.75
1014.751	1903.75
1014.968	1865.75
1015.184	1905.75
1015.401	1832.75
1015.617	1839.75
1015.833	1778.75
1016.049	1774.75
1016.266	1742.75
1016.482	1775.75
1016.698	1688.75
1016.914	1718.75
1017.13	1666.75
1017.346	1677.75
1017.562	1744.75
1017.778	1665.75
1017.993	1598.75
1018.209	1670.75
1018.425	1655.75
1018.641	1600.75
1018.856	1566.75
1019.072	1635.75
1019.288	1649.75
1019.503	1584.75
1019.719	1535.75
1019.934	1566.75
1020.149	1606.75
1020.365	1554.75
1020.58	1482.75
1020.795	1540.75
1021.011	1443.75
1021.226	1436.75
1021.441	1431.75
1021.656	1358.75
1021.871	1309.75
1022.086	1318.75
1022.301	1273.75
1022.516	1265.75
1022.731	1330.75
1022.946	1223.75
1023.16	1232.75
1023.375	1191.75
1023.59	1175.75
1023.804	1144.75
1024.019	1226.75
1024.234	1073.75
1024.448	1101.75
1024.663	1038.75
1024.877	1054.75
1025.092	1083.75
1025.306	1070.75
1025.52	983.75
1025.734	1063.75
1025.949	976.75
1026.163	925.75
1026.377	905.75
1026.591	943.75
1026.805	852.75
1027.019	842.75
1027.233	806.75
1027.447	762.75
1027.661	865.75
1027.875	802.75
1028.088	819.75
1028.302	730.75
1028.516	714.75
1028.73	731.75
1028.943	699.75
1029.157	666.75
1029.37	613.75
1029.584	0.75
1029.797	-3.25
1030.011	2.75
1030.224	-3.25
