Data from QEP037381__176__10-44-04-538.txt Node

Date: Wed Dec 21 10:44:04 EST 2022
User: dcclab
Spectrometer: QEP03738
Trigger mode: 4
Integration Time (sec): 1.000000E1
Scans to average: 1
Electric dark correction enabled: true
Nonlinearity correction enabled: false
Boxcar width: 0
XAxis mode: Wavelengths
Number of Pixels in Spectrum: 1044
>>>>>Begin Spectral Data<<<<<
784.041	13.5
784.3	-0.5
784.558	-0.5
784.817	-6.5
785.075	112574.5
785.334	19468.5
785.592	9125.5
785.851	6248.5
786.109	4675.5
786.368	3599.5
786.626	2919.5
786.884	2388.5
787.143	2011.5
787.401	1691.5
787.659	1487.5
787.917	1260.5
788.175	1180.5
788.433	1012.5
788.691	907.5
788.949	846.5
789.207	804.5
789.465	697.5
789.723	657.5
789.98	612.5
790.238	661.5
790.496	610.5
790.753	577.5
791.011	640.5
791.268	552.5
791.526	539.5
791.783	527.5
792.041	541.5
792.298	455.5
792.556	511.5
792.813	497.5
793.07	466.5
793.327	458.5
793.584	532.5
793.841	466.5
794.099	491.5
794.356	538.5
794.613	435.5
794.869	479.5
795.126	440.5
795.383	419.5
795.64	444.5
795.897	409.5
796.153	457.5
796.41	437.5
796.667	418.5
796.923	429.5
797.18	420.5
797.436	453.5
797.693	406.5
797.949	477.5
798.206	495.5
798.462	410.5
798.718	461.5
798.974	430.5
799.231	487.5
799.487	464.5
799.743	463.5
799.999	505.5
800.255	492.5
800.511	489.5
800.767	529.5
801.023	508.5
801.279	544.5
801.534	577.5
801.79	623.5
802.046	657.5
802.302	779.5
802.557	893.5
802.813	1086.5
803.068	1306.5
803.324	1799.5
803.579	2484.5
803.835	3403.5
804.09	4641.5
804.345	6033.5
804.601	7533.5
804.856	9184.5
805.111	10487.5
805.366	11505.5
805.621	12205.5
805.876	12663.5
806.131	12979.5
806.386	13323.5
806.641	13605.5
806.896	13739.5
807.151	13954.5
807.406	14196.5
807.661	14415.5
807.915	14658.5
808.17	14922.5
808.425	15063.5
808.679	15197.5
808.934	15303.5
809.188	15451.5
809.443	15716.5
809.697	15838.5
809.951	15824.5
810.206	16016.5
810.46	16225.5
810.714	16251.5
810.968	16461.5
811.223	16462.5
811.477	16681.5
811.731	16842.5
811.985	16868.5
812.239	16890.5
812.493	17047.5
812.747	17113.5
813	17199.5
813.254	17259.5
813.508	17360.5
813.762	17326.5
814.015	17353.5
814.269	17515.5
814.522	17602.5
814.776	17926.5
815.03	18100.5
815.283	18301.5
815.536	18550.5
815.79	18875.5
816.043	19159.5
816.296	19345.5
816.55	19558.5
816.803	19811.5
817.056	20126.5
817.309	20137.5
817.562	20359.5
817.815	20642.5
818.068	20767.5
818.321	20901.5
818.574	21138.5
818.827	21423.5
819.079	21659.5
819.332	22146.5
819.585	22200.5
819.838	22635.5
820.09	22708.5
820.343	22932.5
820.595	23061.5
820.848	23159.5
821.1	23243.5
821.353	23283.5
821.605	23190.5
821.857	23241.5
822.11	23020.5
822.362	23058.5
822.614	23056.5
822.866	23081.5
823.118	23065.5
823.37	23171.5
823.622	23150.5
823.874	23203.5
824.126	23323.5
824.378	23262.5
824.63	23336.5
824.882	23433.5
825.134	23290.5
825.385	23331.5
825.637	23335.5
825.888	23216.5
826.14	23276.5
826.392	23115.5
826.643	22997.5
826.895	22885.5
827.146	22791.5
827.397	22680.5
827.649	22756.5
827.9	22629.5
828.151	22769.5
828.402	22740.5
828.653	22916.5
828.905	22915.5
829.156	22929.5
829.407	22886.5
829.658	22891.5
829.909	22959.5
830.159	22925.5
830.41	22883.5
830.661	22609.5
830.912	22484.5
831.162	22503.5
831.413	22429.5
831.664	22379.5
831.914	22253.5
832.165	22247.5
832.415	22313.5
832.666	22168.5
832.916	22456.5
833.167	22393.5
833.417	22340.5
833.667	22216.5
833.917	22166.5
834.168	22087.5
834.418	22001.5
834.668	22004.5
834.918	21836.5
835.168	21719.5
835.418	21621.5
835.668	21563.5
835.918	21635.5
836.167	21547.5
836.417	21550.5
836.667	21433.5
836.917	21406.5
837.166	21389.5
837.416	21445.5
837.666	21436.5
837.915	21362.5
838.165	21307.5
838.414	21183.5
838.663	21186.5
838.913	21176.5
839.162	21057.5
839.411	21130.5
839.661	20965.5
839.91	20906.5
840.159	20920.5
840.408	20950.5
840.657	20948.5
840.906	20875.5
841.155	20848.5
841.404	20949.5
841.653	20948.5
841.902	20885.5
842.15	21067.5
842.399	21041.5
842.648	20921.5
842.897	20802.5
843.145	20673.5
843.394	20547.5
843.642	20568.5
843.891	20421.5
844.139	20314.5
844.388	20255.5
844.636	19950.5
844.884	20116.5
845.133	20005.5
845.381	19880.5
845.629	20010.5
845.877	19875.5
846.125	19910.5
846.373	19916.5
846.621	19812.5
846.869	19685.5
847.117	19687.5
847.365	19569.5
847.613	19497.5
847.861	19369.5
848.108	19365.5
848.356	19382.5
848.604	19319.5
848.851	19433.5
849.099	19340.5
849.346	19433.5
849.594	19611.5
849.841	19497.5
850.089	19682.5
850.336	19649.5
850.583	19683.5
850.831	19613.5
851.078	19508.5
851.325	19456.5
851.572	19301.5
851.819	19137.5
852.066	18897.5
852.313	18561.5
852.56	18551.5
852.807	18382.5
853.054	18298.5
853.301	18271.5
853.548	18338.5
853.794	18469.5
854.041	18477.5
854.288	18495.5
854.534	18784.5
854.781	18674.5
855.028	18529.5
855.274	18574.5
855.52	18510.5
855.767	18450.5
856.013	18546.5
856.26	18630.5
856.506	18166.5
856.752	18191.5
856.998	18102.5
857.244	18256.5
857.49	18340.5
857.736	18331.5
857.982	18351.5
858.228	18142.5
858.474	18062.5
858.72	17889.5
858.966	17806.5
859.212	17604.5
859.458	17554.5
859.703	17312.5
859.949	17148.5
860.195	17077.5
860.44	16959.5
860.686	16779.5
860.931	16943.5
861.177	16718.5
861.422	16744.5
861.667	16578.5
861.913	16708.5
862.158	16719.5
862.403	16733.5
862.648	16856.5
862.893	16779.5
863.138	16741.5
863.384	16597.5
863.629	16656.5
863.873	16614.5
864.118	16594.5
864.363	16503.5
864.608	16374.5
864.853	16373.5
865.098	16290.5
865.342	16290.5
865.587	16262.5
865.832	16158.5
866.076	16049.5
866.321	16085.5
866.565	16005.5
866.81	15854.5
867.054	15928.5
867.298	15826.5
867.543	15879.5
867.787	15774.5
868.031	15694.5
868.275	15692.5
868.519	15579.5
868.764	15581.5
869.008	15560.5
869.252	15628.5
869.496	15493.5
869.739	15467.5
869.983	15508.5
870.227	15394.5
870.471	15402.5
870.715	15531.5
870.958	15549.5
871.202	15473.5
871.446	15526.5
871.689	15514.5
871.933	15475.5
872.176	15467.5
872.42	15531.5
872.663	15458.5
872.906	15443.5
873.15	15284.5
873.393	15309.5
873.636	15290.5
873.879	15107.5
874.122	15032.5
874.366	14781.5
874.609	14683.5
874.852	14585.5
875.095	14417.5
875.337	14478.5
875.58	14218.5
875.823	14302.5
876.066	14228.5
876.309	14335.5
876.551	14043.5
876.794	14007.5
877.037	14098.5
877.279	14061.5
877.522	14033.5
877.764	14056.5
878.007	13968.5
878.249	13979.5
878.491	13857.5
878.734	13938.5
878.976	13894.5
879.218	13727.5
879.46	13746.5
879.702	13518.5
879.945	13541.5
880.187	13336.5
880.429	13316.5
880.671	13303.5
880.912	13189.5
881.154	13075.5
881.396	12962.5
881.638	13090.5
881.88	13081.5
882.121	12979.5
882.363	13079.5
882.605	13069.5
882.846	12979.5
883.088	12951.5
883.329	12935.5
883.571	12913.5
883.812	13027.5
884.053	13312.5
884.295	13454.5
884.536	13633.5
884.777	13503.5
885.018	13407.5
885.259	13374.5
885.5	13244.5
885.742	13457.5
885.982	13135.5
886.223	13100.5
886.464	12952.5
886.705	12947.5
886.946	12902.5
887.187	12611.5
887.428	12435.5
887.668	12271.5
887.909	12230.5
888.15	12038.5
888.39	11974.5
888.631	11855.5
888.871	11766.5
889.111	11736.5
889.352	11687.5
889.592	11552.5
889.833	11404.5
890.073	11328.5
890.313	11413.5
890.553	11210.5
890.793	11188.5
891.033	11089.5
891.273	11053.5
891.513	11008.5
891.753	11043.5
891.993	10968.5
892.233	11089.5
892.473	11086.5
892.713	11054.5
892.952	10991.5
893.192	11053.5
893.432	10981.5
893.671	11055.5
893.911	10882.5
894.15	10882.5
894.39	10717.5
894.629	10722.5
894.869	10681.5
895.108	10602.5
895.347	10498.5
895.587	10497.5
895.826	10380.5
896.065	10429.5
896.304	10428.5
896.543	10425.5
896.782	10303.5
897.021	10352.5
897.26	10252.5
897.499	10269.5
897.738	10304.5
897.977	10131.5
898.216	10101.5
898.454	9991.5
898.693	9924.5
898.932	9889.5
899.17	9834.5
899.409	9785.5
899.647	9833.5
899.886	9719.5
900.124	9756.5
900.363	9738.5
900.601	9768.5
900.839	9837.5
901.078	9883.5
901.316	9828.5
901.554	9870.5
901.792	9909.5
902.03	9853.5
902.268	9881.5
902.506	9857.5
902.744	9808.5
902.982	9736.5
903.22	9607.5
903.458	9503.5
903.695	9383.5
903.933	9293.5
904.171	9116.5
904.409	8987.5
904.646	8918.5
904.884	8774.5
905.121	8730.5
905.359	8634.5
905.596	8570.5
905.833	8513.5
906.071	8410.5
906.308	8480.5
906.545	8443.5
906.783	8304.5
907.02	8358.5
907.257	8326.5
907.494	8310.5
907.731	8310.5
907.968	8278.5
908.205	8157.5
908.442	8141.5
908.679	8057.5
908.915	8024.5
909.152	8025.5
909.389	7900.5
909.626	7867.5
909.862	7815.5
910.099	7829.5
910.335	7828.5
910.572	7654.5
910.808	7685.5
911.045	7659.5
911.281	7615.5
911.518	7700.5
911.754	7551.5
911.99	7503.5
912.226	7493.5
912.463	7405.5
912.699	7329.5
912.935	7331.5
913.171	7285.5
913.407	7162.5
913.643	7199.5
913.879	7107.5
914.114	7021.5
914.35	7059.5
914.586	6913.5
914.822	6808.5
915.057	6844.5
915.293	6737.5
915.529	6664.5
915.764	6778.5
916	6736.5
916.235	6693.5
916.471	6692.5
916.706	6618.5
916.941	6619.5
917.177	6623.5
917.412	6655.5
917.647	6612.5
917.882	6568.5
918.117	6623.5
918.352	6557.5
918.588	6577.5
918.823	6469.5
919.057	6419.5
919.292	6299.5
919.527	6319.5
919.762	6223.5
919.997	6205.5
920.232	6121.5
920.466	6106.5
920.701	5906.5
920.935	6001.5
921.17	5921.5
921.405	5878.5
921.639	5903.5
921.873	5859.5
922.108	5879.5
922.342	5835.5
922.576	5777.5
922.811	5755.5
923.045	5805.5
923.279	5771.5
923.513	5617.5
923.747	5678.5
923.981	5646.5
924.215	5594.5
924.449	5581.5
924.683	5527.5
924.917	5497.5
925.151	5470.5
925.385	5565.5
925.618	5493.5
925.852	5395.5
926.086	5401.5
926.319	5391.5
926.553	5415.5
926.786	5396.5
927.02	5366.5
927.253	5413.5
927.486	5410.5
927.72	5352.5
927.953	5358.5
928.186	5321.5
928.42	5359.5
928.653	5253.5
928.886	5259.5
929.119	5235.5
929.352	5236.5
929.585	5169.5
929.818	5126.5
930.051	5114.5
930.284	5087.5
930.516	4983.5
930.749	4952.5
930.982	4981.5
931.215	4915.5
931.447	4910.5
931.68	4940.5
931.912	4919.5
932.145	4810.5
932.377	4926.5
932.61	4970.5
932.842	4817.5
933.074	4923.5
933.307	4844.5
933.539	4926.5
933.771	4880.5
934.003	4827.5
934.236	4934.5
934.468	4890.5
934.7	4823.5
934.932	4829.5
935.164	4762.5
935.395	4751.5
935.627	4769.5
935.859	4763.5
936.091	4702.5
936.323	4761.5
936.554	4702.5
936.786	4669.5
937.017	4603.5
937.249	4660.5
937.481	4581.5
937.712	4626.5
937.943	4598.5
938.175	4525.5
938.406	4568.5
938.637	4623.5
938.869	4540.5
939.1	4606.5
939.331	4527.5
939.562	4528.5
939.793	4529.5
940.024	4581.5
940.255	4524.5
940.486	4461.5
940.717	4407.5
940.948	4411.5
941.179	4381.5
941.409	4376.5
941.64	4337.5
941.871	4383.5
942.102	4333.5
942.332	4381.5
942.563	4389.5
942.793	4363.5
943.024	4307.5
943.254	4352.5
943.484	4386.5
943.715	4412.5
943.945	4351.5
944.175	4276.5
944.405	4260.5
944.636	4243.5
944.866	4313.5
945.096	4374.5
945.326	4256.5
945.556	4307.5
945.786	4271.5
946.016	4225.5
946.245	4196.5
946.475	4126.5
946.705	4169.5
946.935	4143.5
947.164	4103.5
947.394	4068.5
947.624	4087.5
947.853	4073.5
948.083	4056.5
948.312	3994.5
948.542	3959.5
948.771	3926.5
949	3953.5
949.23	4005.5
949.459	3977.5
949.688	4007.5
949.917	3943.5
950.146	3992.5
950.375	4015.5
950.604	3885.5
950.833	3976.5
951.062	3970.5
951.291	3935.5
951.52	3910.5
951.749	3906.5
951.978	3862.5
952.206	3863.5
952.435	3878.5
952.664	3896.5
952.892	3867.5
953.121	3820.5
953.349	3861.5
953.578	3840.5
953.806	3800.5
954.035	3767.5
954.263	3749.5
954.491	3675.5
954.719	3718.5
954.948	3708.5
955.176	3698.5
955.404	3608.5
955.632	3669.5
955.86	3657.5
956.088	3632.5
956.316	3658.5
956.544	3627.5
956.772	3553.5
956.999	3540.5
957.227	3614.5
957.455	3515.5
957.683	3514.5
957.91	3523.5
958.138	3428.5
958.365	3463.5
958.593	3476.5
958.82	3403.5
959.048	3481.5
959.275	3391.5
959.502	3425.5
959.73	3397.5
959.957	3406.5
960.184	3404.5
960.411	3372.5
960.638	3443.5
960.865	3366.5
961.092	3348.5
961.319	3274.5
961.546	3363.5
961.773	3380.5
962	3326.5
962.227	3386.5
962.454	3356.5
962.68	3298.5
962.907	3321.5
963.134	3301.5
963.36	3260.5
963.587	3293.5
963.813	3200.5
964.04	3234.5
964.266	3189.5
964.493	3220.5
964.719	3222.5
964.945	3203.5
965.171	3094.5
965.398	3132.5
965.624	3145.5
965.85	3062.5
966.076	3048.5
966.302	3112.5
966.528	3032.5
966.754	3064.5
966.98	3046.5
967.206	3070.5
967.431	3006.5
967.657	3051.5
967.883	3023.5
968.109	2976.5
968.334	2985.5
968.56	2961.5
968.785	2932.5
969.011	2905.5
969.236	2997.5
969.462	2909.5
969.687	2937.5
969.912	2970.5
970.138	2964.5
970.363	2895.5
970.588	2919.5
970.813	2893.5
971.038	2838.5
971.263	2898.5
971.488	2864.5
971.713	2916.5
971.938	2904.5
972.163	2764.5
972.388	2811.5
972.613	2748.5
972.838	2770.5
973.062	2730.5
973.287	2760.5
973.512	2689.5
973.736	2733.5
973.961	2700.5
974.185	2695.5
974.41	2724.5
974.634	2588.5
974.858	2615.5
975.083	2640.5
975.307	2671.5
975.531	2598.5
975.755	2572.5
975.98	2556.5
976.204	2516.5
976.428	2463.5
976.652	2493.5
976.876	2475.5
977.1	2509.5
977.324	2432.5
977.547	2521.5
977.771	2508.5
977.995	2466.5
978.219	2391.5
978.442	2526.5
978.666	2462.5
978.89	2451.5
979.113	2415.5
979.337	2436.5
979.56	2397.5
979.783	2463.5
980.007	2360.5
980.23	2421.5
980.453	2348.5
980.677	2412.5
980.9	2382.5
981.123	2278.5
981.346	2368.5
981.569	2336.5
981.792	2333.5
982.015	2323.5
982.238	2295.5
982.461	2315.5
982.684	2259.5
982.907	2212.5
983.129	2248.5
983.352	2288.5
983.575	2260.5
983.797	2250.5
984.02	2167.5
984.242	2190.5
984.465	2194.5
984.687	2241.5
984.91	2229.5
985.132	2189.5
985.354	2190.5
985.577	2211.5
985.799	2161.5
986.021	2080.5
986.243	2111.5
986.465	2132.5
986.687	2168.5
986.909	2185.5
987.131	2131.5
987.353	2086.5
987.575	2118.5
987.797	2102.5
988.019	2006.5
988.241	2084.5
988.462	2040.5
988.684	2095.5
988.906	2155.5
989.127	2129.5
989.349	2013.5
989.57	2051.5
989.792	2096.5
990.013	2087.5
990.234	2073.5
990.456	2094.5
990.677	2072.5
990.898	1993.5
991.119	2031.5
991.341	2046.5
991.562	1960.5
991.783	2040.5
992.004	1933.5
992.225	1920.5
992.446	1976.5
992.667	1904.5
992.887	1947.5
993.108	1889.5
993.329	1987.5
993.55	1918.5
993.77	1860.5
993.991	1878.5
994.212	1869.5
994.432	1859.5
994.653	1887.5
994.873	1872.5
995.093	1774.5
995.314	1817.5
995.534	1883.5
995.754	1880.5
995.975	1903.5
996.195	1782.5
996.415	1844.5
996.635	1819.5
996.855	1844.5
997.075	1810.5
997.295	1824.5
997.515	1796.5
997.735	1830.5
997.955	1812.5
998.174	1781.5
998.394	1726.5
998.614	1790.5
998.834	1743.5
999.053	1835.5
999.273	1776.5
999.492	1828.5
999.712	1785.5
999.931	1715.5
1000.151	1769.5
1000.37	1744.5
1000.589	1773.5
1000.809	1690.5
1001.028	1836.5
1001.247	1751.5
1001.466	1649.5
1001.685	1770.5
1001.904	1740.5
1002.123	1710.5
1002.342	1700.5
1002.561	1663.5
1002.78	1709.5
1002.999	1751.5
1003.218	1679.5
1003.436	1638.5
1003.655	1686.5
1003.874	1654.5
1004.092	1674.5
1004.311	1696.5
1004.53	1647.5
1004.748	1737.5
1004.966	1651.5
1005.185	1715.5
1005.403	1698.5
1005.622	1666.5
1005.84	1728.5
1006.058	1649.5
1006.276	1672.5
1006.494	2130.5
1006.712	1630.5
1006.931	1709.5
1007.149	1632.5
1007.367	1616.5
1007.584	1668.5
1007.802	1680.5
1008.02	1635.5
1008.238	1736.5
1008.456	1728.5
1008.673	1594.5
1008.891	1724.5
1009.109	1660.5
1009.326	1697.5
1009.544	1810.5
1009.761	1686.5
1009.979	1795.5
1010.196	1842.5
1010.413	1887.5
1010.631	1961.5
1010.848	1997.5
1011.065	2010.5
1011.282	1961.5
1011.5	1871.5
1011.717	2006.5
1011.934	1923.5
1012.151	1965.5
1012.368	1913.5
1012.585	1852.5
1012.801	1908.5
1013.018	1899.5
1013.235	1875.5
1013.452	1875.5
1013.669	1896.5
1013.885	1879.5
1014.102	1911.5
1014.318	1895.5
1014.535	1857.5
1014.751	1860.5
1014.968	1853.5
1015.184	1906.5
1015.401	1790.5
1015.617	1811.5
1015.833	1790.5
1016.049	1737.5
1016.266	1726.5
1016.482	1733.5
1016.698	1671.5
1016.914	1724.5
1017.13	1642.5
1017.346	1646.5
1017.562	1722.5
1017.778	1627.5
1017.993	1616.5
1018.209	1658.5
1018.425	1649.5
1018.641	1576.5
1018.856	1560.5
1019.072	1604.5
1019.288	1657.5
1019.503	1584.5
1019.719	1517.5
1019.934	1526.5
1020.149	1608.5
1020.365	1523.5
1020.58	1490.5
1020.795	1489.5
1021.011	1452.5
1021.226	1432.5
1021.441	1471.5
1021.656	1382.5
1021.871	1316.5
1022.086	1301.5
1022.301	1298.5
1022.516	1281.5
1022.731	1350.5
1022.946	1226.5
1023.16	1218.5
1023.375	1183.5
1023.59	1166.5
1023.804	1125.5
1024.019	1230.5
1024.234	1098.5
1024.448	1136.5
1024.663	1052.5
1024.877	1066.5
1025.092	1084.5
1025.306	1097.5
1025.52	978.5
1025.734	1067.5
1025.949	989.5
1026.163	961.5
1026.377	895.5
1026.591	953.5
1026.805	859.5
1027.019	861.5
1027.233	822.5
1027.447	768.5
1027.661	873.5
1027.875	831.5
1028.088	823.5
1028.302	742.5
1028.516	738.5
1028.73	713.5
1028.943	706.5
1029.157	645.5
1029.37	632.5
1029.584	-0.5
1029.797	-1.5
1030.011	-3.5
1030.224	-0.5
