Data from QEP037381__204__10-48-44-540.txt Node

Date: Wed Dec 21 10:48:44 EST 2022
User: dcclab
Spectrometer: QEP03738
Trigger mode: 4
Integration Time (sec): 1.000000E1
Scans to average: 1
Electric dark correction enabled: true
Nonlinearity correction enabled: false
Boxcar width: 0
XAxis mode: Wavelengths
Number of Pixels in Spectrum: 1044
>>>>>Begin Spectral Data<<<<<
784.041	12.38
784.3	-1.62
784.558	-1.62
784.817	-1.62
785.075	107565.38
785.334	18764.38
785.592	8688.38
785.851	5971.38
786.109	4494.38
786.368	3508.38
786.626	2767.38
786.884	2285.38
787.143	1941.38
787.401	1585.38
787.659	1434.38
787.917	1222.38
788.175	1105.38
788.433	974.38
788.691	895.38
788.949	816.38
789.207	783.38
789.465	689.38
789.723	629.38
789.98	590.38
790.238	619.38
790.496	584.38
790.753	575.38
791.011	610.38
791.268	545.38
791.526	518.38
791.783	540.38
792.041	532.38
792.298	434.38
792.556	502.38
792.813	462.38
793.07	448.38
793.327	458.38
793.584	511.38
793.841	436.38
794.099	478.38
794.356	509.38
794.613	427.38
794.869	458.38
795.126	425.38
795.383	393.38
795.64	434.38
795.897	377.38
796.153	440.38
796.41	442.38
796.667	409.38
796.923	408.38
797.18	404.38
797.436	434.38
797.693	387.38
797.949	447.38
798.206	467.38
798.462	395.38
798.718	443.38
798.974	417.38
799.231	459.38
799.487	444.38
799.743	443.38
799.999	473.38
800.255	468.38
800.511	448.38
800.767	477.38
801.023	476.38
801.279	488.38
801.534	521.38
801.79	554.38
802.046	561.38
802.302	662.38
802.557	715.38
802.813	875.38
803.068	1015.38
803.324	1359.38
803.579	1813.38
803.835	2454.38
804.09	3368.38
804.345	4353.38
804.601	5443.38
804.856	6596.38
805.111	7538.38
805.366	8276.38
805.621	8768.38
805.876	9110.38
806.131	9374.38
806.386	9522.38
806.641	9660.38
806.896	9794.38
807.151	10004.38
807.406	10059.38
807.661	10293.38
807.915	10388.38
808.17	10601.38
808.425	10688.38
808.679	10729.38
808.934	10964.38
809.188	10968.38
809.443	11089.38
809.697	11136.38
809.951	11274.38
810.206	11422.38
810.46	11562.38
810.714	11642.38
810.968	11684.38
811.223	11691.38
811.477	11828.38
811.731	11906.38
811.985	11888.38
812.239	11936.38
812.493	12075.38
812.747	12056.38
813	12108.38
813.254	12179.38
813.508	12222.38
813.762	12306.38
814.015	12345.38
814.269	12369.38
814.522	12550.38
814.776	12628.38
815.03	12807.38
815.283	12962.38
815.536	13156.38
815.79	13354.38
816.043	13543.38
816.296	13733.38
816.55	13907.38
816.803	13995.38
817.056	14240.38
817.309	14383.38
817.562	14426.38
817.815	14653.38
818.068	14669.38
818.321	14766.38
818.574	14962.38
818.827	15194.38
819.079	15344.38
819.332	15709.38
819.585	15777.38
819.838	15981.38
820.09	16111.38
820.343	16206.38
820.595	16234.38
820.848	16476.38
821.1	16473.38
821.353	16439.38
821.605	16480.38
821.857	16472.38
822.11	16281.38
822.362	16332.38
822.614	16272.38
822.866	16398.38
823.118	16274.38
823.37	16386.38
823.622	16462.38
823.874	16402.38
824.126	16524.38
824.378	16479.38
824.63	16497.38
824.882	16605.38
825.134	16552.38
825.385	16561.38
825.637	16518.38
825.888	16396.38
826.14	16380.38
826.392	16332.38
826.643	16191.38
826.895	16180.38
827.146	16164.38
827.397	15996.38
827.649	16195.38
827.9	16013.38
828.151	16083.38
828.402	16067.38
828.653	16195.38
828.905	16251.38
829.156	16144.38
829.407	16122.38
829.658	16131.38
829.909	16279.38
830.159	16258.38
830.41	16086.38
830.661	16039.38
830.912	15990.38
831.162	15861.38
831.413	15879.38
831.664	15875.38
831.914	15932.38
832.165	15837.38
832.415	15858.38
832.666	15770.38
832.916	15836.38
833.167	15807.38
833.417	15836.38
833.667	15704.38
833.917	15707.38
834.168	15750.38
834.418	15559.38
834.668	15498.38
834.918	15441.38
835.168	15425.38
835.418	15339.38
835.668	15325.38
835.918	15319.38
836.167	15269.38
836.417	15229.38
836.667	15270.38
836.917	15291.38
837.166	15120.38
837.416	15238.38
837.666	15180.38
837.915	15105.38
838.165	15028.38
838.414	15010.38
838.663	14981.38
838.913	14961.38
839.162	14928.38
839.411	15034.38
839.661	14821.38
839.91	14864.38
840.159	14886.38
840.408	14768.38
840.657	14922.38
840.906	14905.38
841.155	14833.38
841.404	14794.38
841.653	14825.38
841.902	14750.38
842.15	14917.38
842.399	14889.38
842.648	14877.38
842.897	14782.38
843.145	14659.38
843.394	14595.38
843.642	14603.38
843.891	14547.38
844.139	14386.38
844.388	14249.38
844.636	14237.38
844.884	14242.38
845.133	14142.38
845.381	14191.38
845.629	14201.38
845.877	14065.38
846.125	14103.38
846.373	14218.38
846.621	14100.38
846.869	14032.38
847.117	13905.38
847.365	13914.38
847.613	13835.38
847.861	13777.38
848.108	13755.38
848.356	13730.38
848.604	13687.38
848.851	13744.38
849.099	13779.38
849.346	13805.38
849.594	13970.38
849.841	13913.38
850.089	13886.38
850.336	13966.38
850.583	14014.38
850.831	13953.38
851.078	13833.38
851.325	13738.38
851.572	13778.38
851.819	13640.38
852.066	13398.38
852.313	13171.38
852.56	13092.38
852.807	13078.38
853.054	13065.38
853.301	13026.38
853.548	13001.38
853.794	13247.38
854.041	13169.38
854.288	13141.38
854.534	13422.38
854.781	13238.38
855.028	13264.38
855.274	13253.38
855.52	13201.38
855.767	13128.38
856.013	13091.38
856.26	13441.38
856.506	13002.38
856.752	13034.38
856.998	12906.38
857.244	12932.38
857.49	12988.38
857.736	13062.38
857.982	13156.38
858.228	12989.38
858.474	12883.38
858.72	12831.38
858.966	12694.38
859.212	12590.38
859.458	12437.38
859.703	12332.38
859.949	12255.38
860.195	12195.38
860.44	12107.38
860.686	11989.38
860.931	12125.38
861.177	11966.38
861.422	11962.38
861.667	11839.38
861.913	11860.38
862.158	11919.38
862.403	11970.38
862.648	11946.38
862.893	12022.38
863.138	12043.38
863.384	11838.38
863.629	11964.38
863.873	11847.38
864.118	11818.38
864.363	11724.38
864.608	11803.38
864.853	11670.38
865.098	11576.38
865.342	11512.38
865.587	11492.38
865.832	11468.38
866.076	11461.38
866.321	11467.38
866.565	11416.38
866.81	11312.38
867.054	11308.38
867.298	11314.38
867.543	11239.38
867.787	11266.38
868.031	11229.38
868.275	11247.38
868.519	11175.38
868.764	11199.38
869.008	11177.38
869.252	11151.38
869.496	11058.38
869.739	11063.38
869.983	11175.38
870.227	11077.38
870.471	11008.38
870.715	11201.38
870.958	11219.38
871.202	11150.38
871.446	11163.38
871.689	11078.38
871.933	11200.38
872.176	11098.38
872.42	11064.38
872.663	11055.38
872.906	11046.38
873.15	11045.38
873.393	11029.38
873.636	11096.38
873.879	10953.38
874.122	10776.38
874.366	10587.38
874.609	10584.38
874.852	10452.38
875.095	10371.38
875.337	10375.38
875.58	10298.38
875.823	10308.38
876.066	10219.38
876.309	10177.38
876.551	10119.38
876.794	10170.38
877.037	10114.38
877.279	10019.38
877.522	10049.38
877.764	10071.38
878.007	9980.38
878.249	10010.38
878.491	9969.38
878.734	9983.38
878.976	10041.38
879.218	9869.38
879.46	9900.38
879.702	9820.38
879.945	9768.38
880.187	9584.38
880.429	9530.38
880.671	9507.38
880.912	9486.38
881.154	9426.38
881.396	9349.38
881.638	9410.38
881.88	9363.38
882.121	9351.38
882.363	9372.38
882.605	9378.38
882.846	9377.38
883.088	9308.38
883.329	9251.38
883.571	9293.38
883.812	9390.38
884.053	9574.38
884.295	9771.38
884.536	9893.38
884.777	9768.38
885.018	9760.38
885.259	9742.38
885.5	9611.38
885.742	9768.38
885.982	9560.38
886.223	9462.38
886.464	9405.38
886.705	9317.38
886.946	9224.38
887.187	9004.38
887.428	9024.38
887.668	8879.38
887.909	8766.38
888.15	8613.38
888.39	8627.38
888.631	8650.38
888.871	8500.38
889.111	8382.38
889.352	8398.38
889.592	8287.38
889.833	8253.38
890.073	8181.38
890.313	8233.38
890.553	8025.38
890.793	8014.38
891.033	8019.38
891.273	7954.38
891.513	7902.38
891.753	7965.38
891.993	7925.38
892.233	7904.38
892.473	7955.38
892.713	7905.38
892.952	7893.38
893.192	7962.38
893.432	7937.38
893.671	7938.38
893.911	7824.38
894.15	7882.38
894.39	7689.38
894.629	7750.38
894.869	7725.38
895.108	7587.38
895.347	7660.38
895.587	7591.38
895.826	7508.38
896.065	7531.38
896.304	7550.38
896.543	7552.38
896.782	7408.38
897.021	7440.38
897.26	7402.38
897.499	7408.38
897.738	7374.38
897.977	7277.38
898.216	7227.38
898.454	7210.38
898.693	7169.38
898.932	7154.38
899.17	7173.38
899.409	7134.38
899.647	7024.38
899.886	7104.38
900.124	7093.38
900.363	7055.38
900.601	7186.38
900.839	7122.38
901.078	7068.38
901.316	7134.38
901.554	7142.38
901.792	7218.38
902.03	7126.38
902.268	7150.38
902.506	7191.38
902.744	7079.38
902.982	7075.38
903.22	6906.38
903.458	6887.38
903.695	6826.38
903.933	6739.38
904.171	6560.38
904.409	6574.38
904.646	6457.38
904.884	6355.38
905.121	6355.38
905.359	6267.38
905.596	6176.38
905.833	6142.38
906.071	6099.38
906.308	6140.38
906.545	6091.38
906.783	6104.38
907.02	6074.38
907.257	6066.38
907.494	6035.38
907.731	6019.38
907.968	6068.38
908.205	5925.38
908.442	5919.38
908.679	5871.38
908.915	5835.38
909.152	5812.38
909.389	5703.38
909.626	5725.38
909.862	5666.38
910.099	5650.38
910.335	5710.38
910.572	5571.38
910.808	5598.38
911.045	5572.38
911.281	5475.38
911.518	5576.38
911.754	5468.38
911.99	5508.38
912.226	5446.38
912.463	5415.38
912.699	5383.38
912.935	5345.38
913.171	5286.38
913.407	5231.38
913.643	5260.38
913.879	5143.38
914.114	5144.38
914.35	5077.38
914.586	5025.38
914.822	4931.38
915.057	5041.38
915.293	4882.38
915.529	4876.38
915.764	4951.38
916	4913.38
916.235	4880.38
916.471	4933.38
916.706	4767.38
916.941	4848.38
917.177	4805.38
917.412	4855.38
917.647	4847.38
917.882	4805.38
918.117	4873.38
918.352	4831.38
918.588	4835.38
918.823	4671.38
919.057	4712.38
919.292	4589.38
919.527	4679.38
919.762	4536.38
919.997	4520.38
920.232	4466.38
920.466	4492.38
920.701	4359.38
920.935	4386.38
921.17	4336.38
921.405	4290.38
921.639	4358.38
921.873	4294.38
922.108	4293.38
922.342	4308.38
922.576	4223.38
922.811	4250.38
923.045	4260.38
923.279	4297.38
923.513	4126.38
923.747	4260.38
923.981	4172.38
924.215	4133.38
924.449	4071.38
924.683	4049.38
924.917	4050.38
925.151	4045.38
925.385	4080.38
925.618	4008.38
925.852	3976.38
926.086	3949.38
926.319	3999.38
926.553	3956.38
926.786	3974.38
927.02	3930.38
927.253	4016.38
927.486	4014.38
927.72	3906.38
927.953	4001.38
928.186	3863.38
928.42	3917.38
928.653	3857.38
928.886	3842.38
929.119	3878.38
929.352	3840.38
929.585	3825.38
929.818	3785.38
930.051	3746.38
930.284	3755.38
930.516	3653.38
930.749	3682.38
930.982	3708.38
931.215	3720.38
931.447	3586.38
931.68	3605.38
931.912	3619.38
932.145	3615.38
932.377	3658.38
932.61	3727.38
932.842	3543.38
933.074	3598.38
933.307	3585.38
933.539	3674.38
933.771	3617.38
934.003	3551.38
934.236	3660.38
934.468	3655.38
934.7	3578.38
934.932	3651.38
935.164	3513.38
935.395	3529.38
935.627	3546.38
935.859	3527.38
936.091	3457.38
936.323	3509.38
936.554	3522.38
936.786	3459.38
937.017	3406.38
937.249	3470.38
937.481	3374.38
937.712	3464.38
937.943	3380.38
938.175	3402.38
938.406	3381.38
938.637	3445.38
938.869	3343.38
939.1	3409.38
939.331	3372.38
939.562	3369.38
939.793	3375.38
940.024	3362.38
940.255	3408.38
940.486	3313.38
940.717	3336.38
940.948	3310.38
941.179	3259.38
941.409	3260.38
941.64	3273.38
941.871	3282.38
942.102	3247.38
942.332	3253.38
942.563	3279.38
942.793	3283.38
943.024	3238.38
943.254	3263.38
943.484	3304.38
943.715	3275.38
943.945	3234.38
944.175	3187.38
944.405	3172.38
944.636	3185.38
944.866	3196.38
945.096	3224.38
945.326	3148.38
945.556	3262.38
945.786	3185.38
946.016	3127.38
946.245	3123.38
946.475	3102.38
946.705	3103.38
946.935	3135.38
947.164	3118.38
947.394	3079.38
947.624	3069.38
947.853	3093.38
948.083	3035.38
948.312	3050.38
948.542	2977.38
948.771	2924.38
949	2923.38
949.23	2996.38
949.459	2987.38
949.688	3032.38
949.917	2969.38
950.146	2969.38
950.375	3034.38
950.604	2938.38
950.833	3033.38
951.062	3013.38
951.291	2912.38
951.52	2939.38
951.749	2942.38
951.978	2906.38
952.206	2875.38
952.435	2885.38
952.664	2917.38
952.892	2887.38
953.121	2880.38
953.349	2891.38
953.578	2888.38
953.806	2851.38
954.035	2822.38
954.263	2883.38
954.491	2821.38
954.719	2810.38
954.948	2769.38
955.176	2767.38
955.404	2723.38
955.632	2779.38
955.86	2744.38
956.088	2717.38
956.316	2778.38
956.544	2754.38
956.772	2691.38
956.999	2694.38
957.227	2735.38
957.455	2694.38
957.683	2675.38
957.91	2613.38
958.138	2626.38
958.365	2596.38
958.593	2603.38
958.82	2574.38
959.048	2623.38
959.275	2578.38
959.502	2565.38
959.73	2543.38
959.957	2578.38
960.184	2590.38
960.411	2564.38
960.638	2631.38
960.865	2567.38
961.092	2583.38
961.319	2489.38
961.546	2584.38
961.773	2574.38
962	2573.38
962.227	2592.38
962.454	2532.38
962.68	2543.38
962.907	2541.38
963.134	2455.38
963.36	2486.38
963.587	2496.38
963.813	2445.38
964.04	2479.38
964.266	2424.38
964.493	2495.38
964.719	2470.38
964.945	2463.38
965.171	2353.38
965.398	2388.38
965.624	2441.38
965.85	2324.38
966.076	2370.38
966.302	2382.38
966.528	2348.38
966.754	2383.38
966.98	2406.38
967.206	2350.38
967.431	2260.38
967.657	2353.38
967.883	2350.38
968.109	2332.38
968.334	2248.38
968.56	2263.38
968.785	2272.38
969.011	2228.38
969.236	2302.38
969.462	2206.38
969.687	2282.38
969.912	2304.38
970.138	2310.38
970.363	2227.38
970.588	2255.38
970.813	2232.38
971.038	2193.38
971.263	2211.38
971.488	2224.38
971.713	2232.38
971.938	2238.38
972.163	2148.38
972.388	2151.38
972.613	2153.38
972.838	2133.38
973.062	2156.38
973.287	2117.38
973.512	2067.38
973.736	2142.38
973.961	2071.38
974.185	2064.38
974.41	2123.38
974.634	1988.38
974.858	2002.38
975.083	2065.38
975.307	2081.38
975.531	2022.38
975.755	1970.38
975.98	2005.38
976.204	1920.38
976.428	1944.38
976.652	1928.38
976.876	1916.38
977.1	1930.38
977.324	1896.38
977.547	1963.38
977.771	1959.38
977.995	1936.38
978.219	1844.38
978.442	2001.38
978.666	1911.38
978.89	1937.38
979.113	1908.38
979.337	1911.38
979.56	1855.38
979.783	1944.38
980.007	1837.38
980.23	1890.38
980.453	1832.38
980.677	1887.38
980.9	1868.38
981.123	1778.38
981.346	1881.38
981.569	1849.38
981.792	1873.38
982.015	1813.38
982.238	1796.38
982.461	1784.38
982.684	1780.38
982.907	1767.38
983.129	1736.38
983.352	1779.38
983.575	1759.38
983.797	1784.38
984.02	1741.38
984.242	1749.38
984.465	1735.38
984.687	1784.38
984.91	1783.38
985.132	1729.38
985.354	1742.38
985.577	1717.38
985.799	1720.38
986.021	1674.38
986.243	1660.38
986.465	1707.38
986.687	1725.38
986.909	1733.38
987.131	1699.38
987.353	1665.38
987.575	1700.38
987.797	1649.38
988.019	1586.38
988.241	1657.38
988.462	1635.38
988.684	1668.38
988.906	1695.38
989.127	1708.38
989.349	1597.38
989.57	1639.38
989.792	1683.38
990.013	1700.38
990.234	1677.38
990.456	1718.38
990.677	1696.38
990.898	1623.38
991.119	1621.38
991.341	1649.38
991.562	1572.38
991.783	1651.38
992.004	1575.38
992.225	1536.38
992.446	1585.38
992.667	1508.38
992.887	1602.38
993.108	1480.38
993.329	1623.38
993.55	1570.38
993.77	1513.38
993.991	1509.38
994.212	1522.38
994.432	1515.38
994.653	1536.38
994.873	1538.38
995.093	1419.38
995.314	1464.38
995.534	1533.38
995.754	1575.38
995.975	1571.38
996.195	1456.38
996.415	1496.38
996.635	1478.38
996.855	1492.38
997.075	1452.38
997.295	1487.38
997.515	1446.38
997.735	1501.38
997.955	1448.38
998.174	1455.38
998.394	1455.38
998.614	1486.38
998.834	1424.38
999.053	1531.38
999.273	1489.38
999.492	1536.38
999.712	1468.38
999.931	1394.38
1000.151	1455.38
1000.37	1454.38
1000.589	1507.38
1000.809	1434.38
1001.028	1536.38
1001.247	1462.38
1001.466	1358.38
1001.685	1517.38
1001.904	1440.38
1002.123	1432.38
1002.342	1442.38
1002.561	1387.38
1002.78	1435.38
1002.999	1476.38
1003.218	1425.38
1003.436	1389.38
1003.655	1419.38
1003.874	1384.38
1004.092	1421.38
1004.311	1466.38
1004.53	1402.38
1004.748	1468.38
1004.966	1399.38
1005.185	1478.38
1005.403	1443.38
1005.622	1434.38
1005.84	1487.38
1006.058	1417.38
1006.276	1430.38
1006.494	1899.38
1006.712	1419.38
1006.931	1484.38
1007.149	1385.38
1007.367	1370.38
1007.584	1434.38
1007.802	1449.38
1008.02	1379.38
1008.238	1488.38
1008.456	1472.38
1008.673	1332.38
1008.891	1459.38
1009.109	1393.38
1009.326	1463.38
1009.544	1555.38
1009.761	1441.38
1009.979	1525.38
1010.196	1551.38
1010.413	1645.38
1010.631	1676.38
1010.848	1721.38
1011.065	1727.38
1011.282	1672.38
1011.5	1618.38
1011.717	1702.38
1011.934	1640.38
1012.151	1654.38
1012.368	1653.38
1012.585	1592.38
1012.801	1635.38
1013.018	1636.38
1013.235	1594.38
1013.452	1615.38
1013.669	1621.38
1013.885	1621.38
1014.102	1640.38
1014.318	1575.38
1014.535	1544.38
1014.751	1609.38
1014.968	1616.38
1015.184	1634.38
1015.401	1520.38
1015.617	1557.38
1015.833	1489.38
1016.049	1510.38
1016.266	1458.38
1016.482	1475.38
1016.698	1397.38
1016.914	1489.38
1017.13	1427.38
1017.346	1426.38
1017.562	1484.38
1017.778	1436.38
1017.993	1373.38
1018.209	1420.38
1018.425	1416.38
1018.641	1385.38
1018.856	1344.38
1019.072	1407.38
1019.288	1431.38
1019.503	1385.38
1019.719	1301.38
1019.934	1302.38
1020.149	1399.38
1020.365	1323.38
1020.58	1281.38
1020.795	1301.38
1021.011	1261.38
1021.226	1250.38
1021.441	1275.38
1021.656	1165.38
1021.871	1119.38
1022.086	1124.38
1022.301	1108.38
1022.516	1122.38
1022.731	1165.38
1022.946	1066.38
1023.16	1081.38
1023.375	1020.38
1023.59	1015.38
1023.804	982.38
1024.019	1082.38
1024.234	937.38
1024.448	974.38
1024.663	908.38
1024.877	933.38
1025.092	933.38
1025.306	972.38
1025.52	852.38
1025.734	930.38
1025.949	881.38
1026.163	841.38
1026.377	785.38
1026.591	834.38
1026.805	758.38
1027.019	762.38
1027.233	693.38
1027.447	675.38
1027.661	781.38
1027.875	713.38
1028.088	726.38
1028.302	635.38
1028.516	635.38
1028.73	629.38
1028.943	634.38
1029.157	583.38
1029.37	550.38
1029.584	-1.62
1029.797	1.38
1030.011	-3.62
1030.224	-3.62
