Data from QEP037381__181__10-44-54-539.txt Node

Date: Wed Dec 21 10:44:54 EST 2022
User: dcclab
Spectrometer: QEP03738
Trigger mode: 4
Integration Time (sec): 1.000000E1
Scans to average: 1
Electric dark correction enabled: true
Nonlinearity correction enabled: false
Boxcar width: 0
XAxis mode: Wavelengths
Number of Pixels in Spectrum: 1044
>>>>>Begin Spectral Data<<<<<
784.041	14.25
784.3	0.25
784.558	-3.75
784.817	-5.75
785.075	117638.25
785.334	19877.25
785.592	9141.25
785.851	6227.25
786.109	4646.25
786.368	3610.25
786.626	2885.25
786.884	2420.25
787.143	2040.25
787.401	1687.25
787.659	1500.25
787.917	1278.25
788.175	1163.25
788.433	1036.25
788.691	911.25
788.949	842.25
789.207	813.25
789.465	684.25
789.723	682.25
789.98	608.25
790.238	658.25
790.496	614.25
790.753	586.25
791.011	631.25
791.268	550.25
791.526	543.25
791.783	560.25
792.041	538.25
792.298	450.25
792.556	526.25
792.813	495.25
793.07	461.25
793.327	461.25
793.584	540.25
793.841	473.25
794.099	489.25
794.356	540.25
794.613	437.25
794.869	478.25
795.126	436.25
795.383	410.25
795.64	437.25
795.897	387.25
796.153	442.25
796.41	434.25
796.667	404.25
796.923	427.25
797.18	417.25
797.436	441.25
797.693	412.25
797.949	454.25
798.206	501.25
798.462	403.25
798.718	462.25
798.974	445.25
799.231	483.25
799.487	474.25
799.743	485.25
799.999	519.25
800.255	507.25
800.511	475.25
800.767	522.25
801.023	530.25
801.279	544.25
801.534	566.25
801.79	632.25
802.046	654.25
802.302	760.25
802.557	878.25
802.813	1075.25
803.068	1337.25
803.324	1784.25
803.579	2437.25
803.835	3373.25
804.09	4666.25
804.345	6102.25
804.601	7554.25
804.856	9137.25
805.111	10624.25
805.366	11521.25
805.621	12285.25
805.876	12743.25
806.131	13202.25
806.386	13287.25
806.641	13650.25
806.896	13799.25
807.151	14070.25
807.406	14186.25
807.661	14510.25
807.915	14707.25
808.17	15023.25
808.425	15114.25
808.679	15197.25
808.934	15398.25
809.188	15519.25
809.443	15682.25
809.697	15915.25
809.951	16002.25
810.206	16102.25
810.46	16352.25
810.714	16384.25
810.968	16541.25
811.223	16561.25
811.477	16834.25
811.731	16876.25
811.985	16930.25
812.239	17008.25
812.493	17116.25
812.747	17150.25
813	17180.25
813.254	17342.25
813.508	17357.25
813.762	17477.25
814.015	17516.25
814.269	17587.25
814.522	17738.25
814.776	17990.25
815.03	18163.25
815.283	18447.25
815.536	18698.25
815.79	18976.25
816.043	19288.25
816.296	19490.25
816.55	19650.25
816.803	19898.25
817.056	20179.25
817.309	20331.25
817.562	20554.25
817.815	20870.25
818.068	20893.25
818.321	21158.25
818.574	21301.25
818.827	21503.25
819.079	21766.25
819.332	22204.25
819.585	22416.25
819.838	22881.25
820.09	22850.25
820.343	23062.25
820.595	23093.25
820.848	23213.25
821.1	23285.25
821.353	23333.25
821.605	23257.25
821.857	23308.25
822.11	23133.25
822.362	23201.25
822.614	23065.25
822.866	23127.25
823.118	23145.25
823.37	23226.25
823.622	23260.25
823.874	23322.25
824.126	23473.25
824.378	23326.25
824.63	23556.25
824.882	23579.25
825.134	23495.25
825.385	23410.25
825.637	23417.25
825.888	23303.25
826.14	23338.25
826.392	23139.25
826.643	23063.25
826.895	22928.25
827.146	22826.25
827.397	22817.25
827.649	22878.25
827.9	22740.25
828.151	22852.25
828.402	22812.25
828.653	22917.25
828.905	23046.25
829.156	23080.25
829.407	22952.25
829.658	22904.25
829.909	23088.25
830.159	22994.25
830.41	22863.25
830.661	22691.25
830.912	22572.25
831.162	22570.25
831.413	22423.25
831.664	22530.25
831.914	22419.25
832.165	22362.25
832.415	22478.25
832.666	22422.25
832.916	22473.25
833.167	22382.25
833.417	22404.25
833.667	22371.25
833.917	22275.25
834.168	22177.25
834.418	22128.25
834.668	22028.25
834.918	21938.25
835.168	21919.25
835.418	21786.25
835.668	21797.25
835.918	21661.25
836.167	21604.25
836.417	21444.25
836.667	21516.25
836.917	21465.25
837.166	21531.25
837.416	21422.25
837.666	21403.25
837.915	21485.25
838.165	21358.25
838.414	21235.25
838.663	21230.25
838.913	21281.25
839.162	21068.25
839.411	21226.25
839.661	20999.25
839.91	20984.25
840.159	21043.25
840.408	21008.25
840.657	21000.25
840.906	21097.25
841.155	21036.25
841.404	20980.25
841.653	21005.25
841.902	20992.25
842.15	21029.25
842.399	21053.25
842.648	21049.25
842.897	20938.25
843.145	20854.25
843.394	20629.25
843.642	20589.25
843.891	20584.25
844.139	20409.25
844.388	20236.25
844.636	20156.25
844.884	20226.25
845.133	20013.25
845.381	20052.25
845.629	20083.25
845.877	20026.25
846.125	19983.25
846.373	20083.25
846.621	19867.25
846.869	19893.25
847.117	19783.25
847.365	19604.25
847.613	19541.25
847.861	19526.25
848.108	19425.25
848.356	19420.25
848.604	19467.25
848.851	19458.25
849.099	19485.25
849.346	19560.25
849.594	19663.25
849.841	19738.25
850.089	19657.25
850.336	19656.25
850.583	19773.25
850.831	19590.25
851.078	19479.25
851.325	19479.25
851.572	19347.25
851.819	19228.25
852.066	18839.25
852.313	18663.25
852.56	18484.25
852.807	18472.25
853.054	18368.25
853.301	18410.25
853.548	18425.25
853.794	18494.25
854.041	18559.25
854.288	18562.25
854.534	18828.25
854.781	18750.25
855.028	18602.25
855.274	18622.25
855.52	18584.25
855.767	18517.25
856.013	18548.25
856.26	18682.25
856.506	18304.25
856.752	18225.25
856.998	18293.25
857.244	18286.25
857.49	18454.25
857.736	18472.25
857.982	18335.25
858.228	18352.25
858.474	18196.25
858.72	18025.25
858.966	17925.25
859.212	17803.25
859.458	17485.25
859.703	17367.25
859.949	17211.25
860.195	17157.25
860.44	17089.25
860.686	17000.25
860.931	16953.25
861.177	16827.25
861.422	16819.25
861.667	16761.25
861.913	16706.25
862.158	16719.25
862.403	16793.25
862.648	16850.25
862.893	16825.25
863.138	16766.25
863.384	16752.25
863.629	16601.25
863.873	16708.25
864.118	16659.25
864.363	16456.25
864.608	16591.25
864.853	16396.25
865.098	16279.25
865.342	16150.25
865.587	16195.25
865.832	16210.25
866.076	16154.25
866.321	16127.25
866.565	15979.25
866.81	15927.25
867.054	15932.25
867.298	15981.25
867.543	15805.25
867.787	15798.25
868.031	15842.25
868.275	15718.25
868.519	15714.25
868.764	15644.25
869.008	15657.25
869.252	15606.25
869.496	15537.25
869.739	15468.25
869.983	15575.25
870.227	15524.25
870.471	15529.25
870.715	15642.25
870.958	15575.25
871.202	15575.25
871.446	15622.25
871.689	15582.25
871.933	15582.25
872.176	15530.25
872.42	15581.25
872.663	15574.25
872.906	15431.25
873.15	15438.25
873.393	15377.25
873.636	15392.25
873.879	15283.25
874.122	15105.25
874.366	14780.25
874.609	14769.25
874.852	14604.25
875.095	14540.25
875.337	14475.25
875.58	14325.25
875.823	14322.25
876.066	14260.25
876.309	14299.25
876.551	14139.25
876.794	14065.25
877.037	14055.25
877.279	14046.25
877.522	14064.25
877.764	14112.25
878.007	14036.25
878.249	14024.25
878.491	13919.25
878.734	13977.25
878.976	13940.25
879.218	13765.25
879.46	13843.25
879.702	13635.25
879.945	13467.25
880.187	13355.25
880.429	13287.25
880.671	13260.25
880.912	13227.25
881.154	13185.25
881.396	13024.25
881.638	13166.25
881.88	13149.25
882.121	13074.25
882.363	13075.25
882.605	13098.25
882.846	13041.25
883.088	13114.25
883.329	12968.25
883.571	12968.25
883.812	13147.25
884.053	13360.25
884.295	13538.25
884.536	13746.25
884.777	13535.25
885.018	13585.25
885.259	13532.25
885.5	13302.25
885.742	13597.25
885.982	13298.25
886.223	13202.25
886.464	13129.25
886.705	12947.25
886.946	12926.25
887.187	12597.25
887.428	12523.25
887.668	12359.25
887.909	12227.25
888.15	12048.25
888.39	12123.25
888.631	11929.25
888.871	11816.25
889.111	11660.25
889.352	11688.25
889.592	11530.25
889.833	11479.25
890.073	11389.25
890.313	11328.25
890.553	11186.25
890.793	11185.25
891.033	11138.25
891.273	11068.25
891.513	11050.25
891.753	11006.25
891.993	10995.25
892.233	10952.25
892.473	11098.25
892.713	11109.25
892.952	10996.25
893.192	11052.25
893.432	10966.25
893.671	11062.25
893.911	10871.25
894.15	10881.25
894.39	10805.25
894.629	10736.25
894.869	10716.25
895.108	10604.25
895.347	10490.25
895.587	10528.25
895.826	10409.25
896.065	10381.25
896.304	10426.25
896.543	10468.25
896.782	10350.25
897.021	10306.25
897.26	10318.25
897.499	10251.25
897.738	10224.25
897.977	10150.25
898.216	10090.25
898.454	10050.25
898.693	9893.25
898.932	9910.25
899.17	9843.25
899.409	9877.25
899.647	9818.25
899.886	9722.25
900.124	9779.25
900.363	9766.25
900.601	9771.25
900.839	9724.25
901.078	9874.25
901.316	9862.25
901.554	9828.25
901.792	9896.25
902.03	9904.25
902.268	9907.25
902.506	9856.25
902.744	9826.25
902.982	9857.25
903.22	9605.25
903.458	9507.25
903.695	9434.25
903.933	9328.25
904.171	9168.25
904.409	9022.25
904.646	8916.25
904.884	8804.25
905.121	8790.25
905.359	8587.25
905.596	8605.25
905.833	8461.25
906.071	8452.25
906.308	8421.25
906.545	8429.25
906.783	8365.25
907.02	8416.25
907.257	8314.25
907.494	8295.25
907.731	8342.25
907.968	8268.25
908.205	8218.25
908.442	8144.25
908.679	8081.25
908.915	8093.25
909.152	7908.25
909.389	7880.25
909.626	7908.25
909.862	7831.25
910.099	7795.25
910.335	7823.25
910.572	7673.25
910.808	7679.25
911.045	7676.25
911.281	7626.25
911.518	7632.25
911.754	7529.25
911.99	7607.25
912.226	7471.25
912.463	7396.25
912.699	7295.25
912.935	7280.25
913.171	7229.25
913.407	7209.25
913.643	7193.25
913.879	7057.25
914.114	7012.25
914.35	7016.25
914.586	6938.25
914.822	6836.25
915.057	6877.25
915.293	6700.25
915.529	6741.25
915.764	6744.25
916	6703.25
916.235	6701.25
916.471	6679.25
916.706	6560.25
916.941	6619.25
917.177	6622.25
917.412	6648.25
917.647	6589.25
917.882	6554.25
918.117	6561.25
918.352	6577.25
918.588	6583.25
918.823	6415.25
919.057	6383.25
919.292	6265.25
919.527	6331.25
919.762	6207.25
919.997	6216.25
920.232	6062.25
920.466	6103.25
920.701	5954.25
920.935	5946.25
921.17	5963.25
921.405	5902.25
921.639	5895.25
921.873	5850.25
922.108	5863.25
922.342	5867.25
922.576	5778.25
922.811	5742.25
923.045	5773.25
923.279	5797.25
923.513	5638.25
923.747	5695.25
923.981	5599.25
924.215	5573.25
924.449	5582.25
924.683	5470.25
924.917	5483.25
925.151	5437.25
925.385	5539.25
925.618	5425.25
925.852	5403.25
926.086	5390.25
926.319	5420.25
926.553	5414.25
926.786	5441.25
927.02	5382.25
927.253	5472.25
927.486	5383.25
927.72	5285.25
927.953	5409.25
928.186	5207.25
928.42	5347.25
928.653	5283.25
928.886	5203.25
929.119	5277.25
929.352	5269.25
929.585	5172.25
929.818	5087.25
930.051	5155.25
930.284	5114.25
930.516	4937.25
930.749	4944.25
930.982	4951.25
931.215	4919.25
931.447	4884.25
931.68	4831.25
931.912	4848.25
932.145	4872.25
932.377	4913.25
932.61	5011.25
932.842	4805.25
933.074	4892.25
933.307	4813.25
933.539	4936.25
933.771	4895.25
934.003	4830.25
934.236	4932.25
934.468	4917.25
934.7	4783.25
934.932	4889.25
935.164	4753.25
935.395	4750.25
935.627	4738.25
935.859	4786.25
936.091	4700.25
936.323	4722.25
936.554	4729.25
936.786	4636.25
937.017	4630.25
937.249	4665.25
937.481	4594.25
937.712	4657.25
937.943	4579.25
938.175	4570.25
938.406	4557.25
938.637	4622.25
938.869	4530.25
939.1	4609.25
939.331	4503.25
939.562	4567.25
939.793	4556.25
940.024	4478.25
940.255	4556.25
940.486	4450.25
940.717	4433.25
940.948	4420.25
941.179	4406.25
941.409	4384.25
941.64	4393.25
941.871	4326.25
942.102	4364.25
942.332	4352.25
942.563	4370.25
942.793	4385.25
943.024	4301.25
943.254	4351.25
943.484	4374.25
943.715	4378.25
943.945	4339.25
944.175	4255.25
944.405	4249.25
944.636	4285.25
944.866	4358.25
945.096	4353.25
945.326	4225.25
945.556	4296.25
945.786	4298.25
946.016	4251.25
946.245	4169.25
946.475	4171.25
946.705	4151.25
946.935	4147.25
947.164	4093.25
947.394	4087.25
947.624	4024.25
947.853	4119.25
948.083	4051.25
948.312	4044.25
948.542	3944.25
948.771	3905.25
949	3928.25
949.23	3945.25
949.459	3971.25
949.688	4005.25
949.917	3904.25
950.146	3985.25
950.375	3948.25
950.604	3937.25
950.833	3953.25
951.062	3972.25
951.291	3946.25
951.52	3885.25
951.749	3884.25
951.978	3846.25
952.206	3864.25
952.435	3862.25
952.664	3915.25
952.892	3902.25
953.121	3846.25
953.349	3852.25
953.578	3822.25
953.806	3805.25
954.035	3705.25
954.263	3763.25
954.491	3703.25
954.719	3748.25
954.948	3703.25
955.176	3670.25
955.404	3588.25
955.632	3694.25
955.86	3645.25
956.088	3658.25
956.316	3653.25
956.544	3630.25
956.772	3546.25
956.999	3515.25
957.227	3610.25
957.455	3486.25
957.683	3547.25
957.91	3496.25
958.138	3445.25
958.365	3435.25
958.593	3463.25
958.82	3378.25
959.048	3442.25
959.275	3437.25
959.502	3406.25
959.73	3344.25
959.957	3382.25
960.184	3404.25
960.411	3348.25
960.638	3417.25
960.865	3372.25
961.092	3385.25
961.319	3267.25
961.546	3381.25
961.773	3369.25
962	3342.25
962.227	3384.25
962.454	3354.25
962.68	3324.25
962.907	3269.25
963.134	3265.25
963.36	3270.25
963.587	3272.25
963.813	3198.25
964.04	3270.25
964.266	3136.25
964.493	3218.25
964.719	3193.25
964.945	3186.25
965.171	3104.25
965.398	3157.25
965.624	3133.25
965.85	3078.25
966.076	3057.25
966.302	3123.25
966.528	3038.25
966.754	3057.25
966.98	3027.25
967.206	3027.25
967.431	2944.25
967.657	3030.25
967.883	3058.25
968.109	3013.25
968.334	2937.25
968.56	2901.25
968.785	2969.25
969.011	2923.25
969.236	2985.25
969.462	2914.25
969.687	2910.25
969.912	2961.25
970.138	2970.25
970.363	2867.25
970.588	2873.25
970.813	2850.25
971.038	2790.25
971.263	2866.25
971.488	2887.25
971.713	2902.25
971.938	2831.25
972.163	2768.25
972.388	2797.25
972.613	2753.25
972.838	2813.25
973.062	2794.25
973.287	2783.25
973.512	2703.25
973.736	2711.25
973.961	2742.25
974.185	2664.25
974.41	2719.25
974.634	2577.25
974.858	2621.25
975.083	2664.25
975.307	2654.25
975.531	2606.25
975.755	2546.25
975.98	2579.25
976.204	2492.25
976.428	2519.25
976.652	2545.25
976.876	2454.25
977.1	2505.25
977.324	2444.25
977.547	2478.25
977.771	2499.25
977.995	2482.25
978.219	2401.25
978.442	2531.25
978.666	2470.25
978.89	2455.25
979.113	2425.25
979.337	2417.25
979.56	2402.25
979.783	2478.25
980.007	2344.25
980.23	2418.25
980.453	2356.25
980.677	2425.25
980.9	2367.25
981.123	2285.25
981.346	2381.25
981.569	2345.25
981.792	2379.25
982.015	2324.25
982.238	2277.25
982.461	2322.25
982.684	2275.25
982.907	2253.25
983.129	2239.25
983.352	2290.25
983.575	2254.25
983.797	2249.25
984.02	2172.25
984.242	2179.25
984.465	2205.25
984.687	2235.25
984.91	2235.25
985.132	2187.25
985.354	2192.25
985.577	2183.25
985.799	2194.25
986.021	2081.25
986.243	2089.25
986.465	2114.25
986.687	2164.25
986.909	2182.25
987.131	2135.25
987.353	2077.25
987.575	2105.25
987.797	2088.25
988.019	2016.25
988.241	2092.25
988.462	2034.25
988.684	2118.25
988.906	2096.25
989.127	2118.25
989.349	2012.25
989.57	2026.25
989.792	2074.25
990.013	2078.25
990.234	2078.25
990.456	2130.25
990.677	2095.25
990.898	2021.25
991.119	1989.25
991.341	2055.25
991.562	1963.25
991.783	2010.25
992.004	1965.25
992.225	1942.25
992.446	1942.25
992.667	1873.25
992.887	1963.25
993.108	1862.25
993.329	1960.25
993.55	1928.25
993.77	1847.25
993.991	1851.25
994.212	1906.25
994.432	1881.25
994.653	1893.25
994.873	1869.25
995.093	1757.25
995.314	1796.25
995.534	1855.25
995.754	1905.25
995.975	1907.25
996.195	1766.25
996.415	1834.25
996.635	1791.25
996.855	1826.25
997.075	1791.25
997.295	1775.25
997.515	1805.25
997.735	1848.25
997.955	1795.25
998.174	1786.25
998.394	1753.25
998.614	1806.25
998.834	1749.25
999.053	1818.25
999.273	1779.25
999.492	1834.25
999.712	1757.25
999.931	1715.25
1000.151	1785.25
1000.37	1746.25
1000.589	1803.25
1000.809	1716.25
1001.028	1829.25
1001.247	1778.25
1001.466	1654.25
1001.685	1796.25
1001.904	1715.25
1002.123	1715.25
1002.342	1736.25
1002.561	1656.25
1002.78	1700.25
1002.999	1725.25
1003.218	1684.25
1003.436	1680.25
1003.655	1698.25
1003.874	1613.25
1004.092	1673.25
1004.311	1711.25
1004.53	1692.25
1004.748	1739.25
1004.966	1642.25
1005.185	1684.25
1005.403	1697.25
1005.622	1647.25
1005.84	1753.25
1006.058	1645.25
1006.276	1638.25
1006.494	2161.25
1006.712	1642.25
1006.931	1693.25
1007.149	1604.25
1007.367	1584.25
1007.584	1647.25
1007.802	1695.25
1008.02	1610.25
1008.238	1727.25
1008.456	1737.25
1008.673	1611.25
1008.891	1690.25
1009.109	1670.25
1009.326	1721.25
1009.544	1827.25
1009.761	1723.25
1009.979	1826.25
1010.196	1803.25
1010.413	1904.25
1010.631	1970.25
1010.848	2009.25
1011.065	2020.25
1011.282	1978.25
1011.5	1927.25
1011.717	2019.25
1011.934	1956.25
1012.151	2025.25
1012.368	1951.25
1012.585	1894.25
1012.801	1944.25
1013.018	1916.25
1013.235	1897.25
1013.452	1927.25
1013.669	1910.25
1013.885	1919.25
1014.102	1930.25
1014.318	1921.25
1014.535	1871.25
1014.751	1890.25
1014.968	1874.25
1015.184	1893.25
1015.401	1815.25
1015.617	1815.25
1015.833	1773.25
1016.049	1785.25
1016.266	1758.25
1016.482	1757.25
1016.698	1690.25
1016.914	1727.25
1017.13	1653.25
1017.346	1678.25
1017.562	1729.25
1017.778	1646.25
1017.993	1634.25
1018.209	1674.25
1018.425	1646.25
1018.641	1626.25
1018.856	1606.25
1019.072	1620.25
1019.288	1626.25
1019.503	1614.25
1019.719	1541.25
1019.934	1530.25
1020.149	1597.25
1020.365	1544.25
1020.58	1490.25
1020.795	1557.25
1021.011	1443.25
1021.226	1439.25
1021.441	1459.25
1021.656	1370.25
1021.871	1331.25
1022.086	1310.25
1022.301	1316.25
1022.516	1282.25
1022.731	1334.25
1022.946	1259.25
1023.16	1229.25
1023.375	1212.25
1023.59	1168.25
1023.804	1132.25
1024.019	1256.25
1024.234	1124.25
1024.448	1143.25
1024.663	1066.25
1024.877	1054.25
1025.092	1103.25
1025.306	1084.25
1025.52	983.25
1025.734	1061.25
1025.949	989.25
1026.163	940.25
1026.377	868.25
1026.591	932.25
1026.805	877.25
1027.019	853.25
1027.233	833.25
1027.447	777.25
1027.661	872.25
1027.875	836.25
1028.088	828.25
1028.302	738.25
1028.516	736.25
1028.73	728.25
1028.943	715.25
1029.157	693.25
1029.37	631.25
1029.584	-0.75
1029.797	-1.75
1030.011	-3.75
1030.224	1.25
