Data from QEP037381__193__10-46-54-539.txt Node

Date: Wed Dec 21 10:46:54 EST 2022
User: dcclab
Spectrometer: QEP03738
Trigger mode: 4
Integration Time (sec): 1.000000E1
Scans to average: 1
Electric dark correction enabled: true
Nonlinearity correction enabled: false
Boxcar width: 0
XAxis mode: Wavelengths
Number of Pixels in Spectrum: 1044
>>>>>Begin Spectral Data<<<<<
784.041	13.38
784.3	2.38
784.558	-1.62
784.817	-4.62
785.075	117955.38
785.334	19882.38
785.592	9096.38
785.851	6243.38
786.109	4704.38
786.368	3654.38
786.626	2880.38
786.884	2419.38
787.143	2011.38
787.401	1671.38
787.659	1479.38
787.917	1253.38
788.175	1161.38
788.433	1020.38
788.691	888.38
788.949	831.38
789.207	805.38
789.465	694.38
789.723	649.38
789.98	625.38
790.238	629.38
790.496	597.38
790.753	560.38
791.011	614.38
791.268	557.38
791.526	529.38
791.783	549.38
792.041	522.38
792.298	428.38
792.556	514.38
792.813	477.38
793.07	460.38
793.327	453.38
793.584	522.38
793.841	438.38
794.099	468.38
794.356	521.38
794.613	429.38
794.869	464.38
795.126	415.38
795.383	414.38
795.64	427.38
795.897	376.38
796.153	434.38
796.41	411.38
796.667	391.38
796.923	410.38
797.18	415.38
797.436	444.38
797.693	404.38
797.949	440.38
798.206	477.38
798.462	382.38
798.718	448.38
798.974	420.38
799.231	462.38
799.487	450.38
799.743	445.38
799.999	482.38
800.255	465.38
800.511	454.38
800.767	486.38
801.023	466.38
801.279	502.38
801.534	510.38
801.79	554.38
802.046	574.38
802.302	675.38
802.557	745.38
802.813	892.38
803.068	1033.38
803.324	1404.38
803.579	1871.38
803.835	2503.38
804.09	3443.38
804.345	4388.38
804.601	5493.38
804.856	6620.38
805.111	7625.38
805.366	8334.38
805.621	8829.38
805.876	9182.38
806.131	9464.38
806.386	9615.38
806.641	9755.38
806.896	9861.38
807.151	10142.38
807.406	10287.38
807.661	10403.38
807.915	10542.38
808.17	10769.38
808.425	10840.38
808.679	10854.38
808.934	11140.38
809.188	11083.38
809.443	11251.38
809.697	11368.38
809.951	11468.38
810.206	11492.38
810.46	11675.38
810.714	11684.38
810.968	11855.38
811.223	11895.38
811.477	12010.38
811.731	12091.38
811.985	12109.38
812.239	12120.38
812.493	12320.38
812.747	12261.38
813	12211.38
813.254	12284.38
813.508	12387.38
813.762	12373.38
814.015	12427.38
814.269	12566.38
814.522	12710.38
814.776	12879.38
815.03	12905.38
815.283	13120.38
815.536	13352.38
815.79	13570.38
816.043	13785.38
816.296	13908.38
816.55	14084.38
816.803	14133.38
817.056	14373.38
817.309	14485.38
817.562	14561.38
817.815	14800.38
818.068	14839.38
818.321	15009.38
818.574	15248.38
818.827	15314.38
819.079	15487.38
819.332	15951.38
819.585	15991.38
819.838	16220.38
820.09	16264.38
820.343	16389.38
820.595	16425.38
820.848	16532.38
821.1	16636.38
821.353	16722.38
821.605	16631.38
821.857	16566.38
822.11	16507.38
822.362	16463.38
822.614	16396.38
822.866	16361.38
823.118	16465.38
823.37	16594.38
823.622	16520.38
823.874	16691.38
824.126	16645.38
824.378	16670.38
824.63	16733.38
824.882	16827.38
825.134	16702.38
825.385	16725.38
825.637	16642.38
825.888	16581.38
826.14	16512.38
826.392	16398.38
826.643	16344.38
826.895	16326.38
827.146	16295.38
827.397	16207.38
827.649	16231.38
827.9	16170.38
828.151	16136.38
828.402	16156.38
828.653	16288.38
828.905	16457.38
829.156	16315.38
829.407	16346.38
829.658	16417.38
829.909	16380.38
830.159	16433.38
830.41	16297.38
830.661	16221.38
830.912	16045.38
831.162	15980.38
831.413	16015.38
831.664	16089.38
831.914	15965.38
832.165	15931.38
832.415	16004.38
832.666	15954.38
832.916	15963.38
833.167	15998.38
833.417	16000.38
833.667	15848.38
833.917	15822.38
834.168	15912.38
834.418	15742.38
834.668	15787.38
834.918	15618.38
835.168	15642.38
835.418	15569.38
835.668	15499.38
835.918	15435.38
836.167	15401.38
836.417	15317.38
836.667	15337.38
836.917	15396.38
837.166	15316.38
837.416	15357.38
837.666	15315.38
837.915	15222.38
838.165	15209.38
838.414	15141.38
838.663	15165.38
838.913	15108.38
839.162	15115.38
839.411	15138.38
839.661	15112.38
839.91	15037.38
840.159	14988.38
840.408	14905.38
840.657	15000.38
840.906	15021.38
841.155	15015.38
841.404	15010.38
841.653	15005.38
841.902	14952.38
842.15	15013.38
842.399	15075.38
842.648	14989.38
842.897	14937.38
843.145	14786.38
843.394	14773.38
843.642	14612.38
843.891	14661.38
844.139	14588.38
844.388	14437.38
844.636	14390.38
844.884	14373.38
845.133	14378.38
845.381	14379.38
845.629	14378.38
845.877	14314.38
846.125	14303.38
846.373	14304.38
846.621	14229.38
846.869	14238.38
847.117	14100.38
847.365	13993.38
847.613	13990.38
847.861	13997.38
848.108	13990.38
848.356	13959.38
848.604	13859.38
848.851	14003.38
849.099	13873.38
849.346	13983.38
849.594	14066.38
849.841	14070.38
850.089	14104.38
850.336	14108.38
850.583	14081.38
850.831	14072.38
851.078	14010.38
851.325	13947.38
851.572	13959.38
851.819	13791.38
852.066	13556.38
852.313	13378.38
852.56	13340.38
852.807	13167.38
853.054	13091.38
853.301	13096.38
853.548	13106.38
853.794	13295.38
854.041	13251.38
854.288	13341.38
854.534	13482.38
854.781	13460.38
855.028	13403.38
855.274	13418.38
855.52	13393.38
855.767	13245.38
856.013	13309.38
856.26	13498.38
856.506	13142.38
856.752	13131.38
856.998	13072.38
857.244	13151.38
857.49	13258.38
857.736	13306.38
857.982	13207.38
858.228	13198.38
858.474	13059.38
858.72	13007.38
858.966	12910.38
859.212	12729.38
859.458	12601.38
859.703	12538.38
859.949	12377.38
860.195	12322.38
860.44	12198.38
860.686	12199.38
860.931	12234.38
861.177	12138.38
861.422	12078.38
861.667	12005.38
861.913	11979.38
862.158	12006.38
862.403	12057.38
862.648	12094.38
862.893	12129.38
863.138	12068.38
863.384	12034.38
863.629	12025.38
863.873	11888.38
864.118	11962.38
864.363	11928.38
864.608	11846.38
864.853	11807.38
865.098	11750.38
865.342	11684.38
865.587	11645.38
865.832	11656.38
866.076	11611.38
866.321	11574.38
866.565	11496.38
866.81	11421.38
867.054	11413.38
867.298	11473.38
867.543	11400.38
867.787	11438.38
868.031	11378.38
868.275	11353.38
868.519	11308.38
868.764	11321.38
869.008	11296.38
869.252	11307.38
869.496	11307.38
869.739	11130.38
869.983	11275.38
870.227	11240.38
870.471	11097.38
870.715	11310.38
870.958	11273.38
871.202	11299.38
871.446	11342.38
871.689	11264.38
871.933	11287.38
872.176	11280.38
872.42	11289.38
872.663	11232.38
872.906	11289.38
873.15	11127.38
873.393	11126.38
873.636	11125.38
873.879	11038.38
874.122	11007.38
874.366	10839.38
874.609	10699.38
874.852	10603.38
875.095	10516.38
875.337	10404.38
875.58	10290.38
875.823	10361.38
876.066	10355.38
876.309	10423.38
876.551	10260.38
876.794	10265.38
877.037	10323.38
877.279	10151.38
877.522	10184.38
877.764	10188.38
878.007	10133.38
878.249	10173.38
878.491	10077.38
878.734	10153.38
878.976	10095.38
879.218	10031.38
879.46	9931.38
879.702	9790.38
879.945	9850.38
880.187	9717.38
880.429	9614.38
880.671	9612.38
880.912	9624.38
881.154	9570.38
881.396	9429.38
881.638	9538.38
881.88	9560.38
882.121	9465.38
882.363	9471.38
882.605	9502.38
882.846	9508.38
883.088	9486.38
883.329	9408.38
883.571	9413.38
883.812	9564.38
884.053	9687.38
884.295	9851.38
884.536	10098.38
884.777	9965.38
885.018	9876.38
885.259	9824.38
885.5	9718.38
885.742	9970.38
885.982	9725.38
886.223	9598.38
886.464	9543.38
886.705	9421.38
886.946	9345.38
887.187	9181.38
887.428	9119.38
887.668	8984.38
887.909	8821.38
888.15	8693.38
888.39	8764.38
888.631	8681.38
888.871	8627.38
889.111	8580.38
889.352	8445.38
889.592	8352.38
889.833	8270.38
890.073	8272.38
890.313	8315.38
890.553	8164.38
890.793	8170.38
891.033	8144.38
891.273	8038.38
891.513	8038.38
891.753	8050.38
891.993	7955.38
892.233	8048.38
892.473	8086.38
892.713	8108.38
892.952	7973.38
893.192	8046.38
893.432	7957.38
893.671	8042.38
893.911	7966.38
894.15	7951.38
894.39	7854.38
894.629	7791.38
894.869	7807.38
895.108	7680.38
895.347	7644.38
895.587	7687.38
895.826	7618.38
896.065	7659.38
896.304	7568.38
896.543	7630.38
896.782	7521.38
897.021	7531.38
897.26	7537.38
897.499	7504.38
897.738	7559.38
897.977	7471.38
898.216	7375.38
898.454	7331.38
898.693	7251.38
898.932	7300.38
899.17	7198.38
899.409	7200.38
899.647	7151.38
899.886	7190.38
900.124	7176.38
900.363	7136.38
900.601	7200.38
900.839	7242.38
901.078	7185.38
901.316	7251.38
901.554	7272.38
901.792	7350.38
902.03	7247.38
902.268	7240.38
902.506	7275.38
902.744	7221.38
902.982	7161.38
903.22	6979.38
903.458	6981.38
903.695	6905.38
903.933	6823.38
904.171	6638.38
904.409	6602.38
904.646	6604.38
904.884	6416.38
905.121	6431.38
905.359	6347.38
905.596	6285.38
905.833	6201.38
906.071	6152.38
906.308	6259.38
906.545	6191.38
906.783	6068.38
907.02	6139.38
907.257	6102.38
907.494	6130.38
907.731	6126.38
907.968	6082.38
908.205	6064.38
908.442	5976.38
908.679	6000.38
908.915	5977.38
909.152	5875.38
909.389	5775.38
909.626	5767.38
909.862	5752.38
910.099	5706.38
910.335	5714.38
910.572	5594.38
910.808	5665.38
911.045	5610.38
911.281	5570.38
911.518	5631.38
911.754	5587.38
911.99	5570.38
912.226	5500.38
912.463	5412.38
912.699	5397.38
912.935	5381.38
913.171	5351.38
913.407	5249.38
913.643	5303.38
913.879	5201.38
914.114	5190.38
914.35	5110.38
914.586	5109.38
914.822	5001.38
915.057	5087.38
915.293	4955.38
915.529	4961.38
915.764	5005.38
916	4993.38
916.235	4985.38
916.471	4999.38
916.706	4852.38
916.941	4893.38
917.177	4892.38
917.412	4907.38
917.647	4911.38
917.882	4813.38
918.117	4894.38
918.352	4870.38
918.588	4894.38
918.823	4764.38
919.057	4752.38
919.292	4648.38
919.527	4718.38
919.762	4597.38
919.997	4600.38
920.232	4552.38
920.466	4516.38
920.701	4405.38
920.935	4420.38
921.17	4421.38
921.405	4362.38
921.639	4432.38
921.873	4391.38
922.108	4326.38
922.342	4341.38
922.576	4296.38
922.811	4250.38
923.045	4315.38
923.279	4320.38
923.513	4196.38
923.747	4288.38
923.981	4210.38
924.215	4176.38
924.449	4090.38
924.683	4068.38
924.917	4092.38
925.151	4077.38
925.385	4081.38
925.618	4058.38
925.852	4028.38
926.086	3986.38
926.319	4004.38
926.553	4018.38
926.786	4017.38
927.02	4008.38
927.253	4054.38
927.486	4024.38
927.72	3947.38
927.953	3992.38
928.186	3910.38
928.42	3977.38
928.653	3912.38
928.886	3907.38
929.119	3888.38
929.352	3917.38
929.585	3876.38
929.818	3798.38
930.051	3795.38
930.284	3796.38
930.516	3711.38
930.749	3704.38
930.982	3723.38
931.215	3740.38
931.447	3630.38
931.68	3686.38
931.912	3592.38
932.145	3611.38
932.377	3642.38
932.61	3800.38
932.842	3596.38
933.074	3647.38
933.307	3595.38
933.539	3667.38
933.771	3743.38
934.003	3616.38
934.236	3729.38
934.468	3695.38
934.7	3593.38
934.932	3594.38
935.164	3544.38
935.395	3515.38
935.627	3583.38
935.859	3560.38
936.091	3542.38
936.323	3594.38
936.554	3560.38
936.786	3530.38
937.017	3464.38
937.249	3486.38
937.481	3406.38
937.712	3519.38
937.943	3484.38
938.175	3444.38
938.406	3476.38
938.637	3495.38
938.869	3398.38
939.1	3411.38
939.331	3415.38
939.562	3429.38
939.793	3406.38
940.024	3389.38
940.255	3439.38
940.486	3358.38
940.717	3342.38
940.948	3334.38
941.179	3307.38
941.409	3291.38
941.64	3300.38
941.871	3292.38
942.102	3278.38
942.332	3278.38
942.563	3333.38
942.793	3311.38
943.024	3227.38
943.254	3293.38
943.484	3322.38
943.715	3318.38
943.945	3298.38
944.175	3196.38
944.405	3161.38
944.636	3224.38
944.866	3247.38
945.096	3270.38
945.326	3213.38
945.556	3231.38
945.786	3251.38
946.016	3208.38
946.245	3131.38
946.475	3159.38
946.705	3150.38
946.935	3112.38
947.164	3119.38
947.394	3084.38
947.624	3063.38
947.853	3103.38
948.083	3090.38
948.312	3050.38
948.542	2976.38
948.771	2968.38
949	2997.38
949.23	2999.38
949.459	2997.38
949.688	3043.38
949.917	2965.38
950.146	2986.38
950.375	3041.38
950.604	2960.38
950.833	3060.38
951.062	2999.38
951.291	2996.38
951.52	2969.38
951.749	2962.38
951.978	2943.38
952.206	2899.38
952.435	2908.38
952.664	2910.38
952.892	2950.38
953.121	2924.38
953.349	2927.38
953.578	2954.38
953.806	2887.38
954.035	2831.38
954.263	2876.38
954.491	2789.38
954.719	2822.38
954.948	2777.38
955.176	2786.38
955.404	2711.38
955.632	2772.38
955.86	2786.38
956.088	2787.38
956.316	2759.38
956.544	2754.38
956.772	2728.38
956.999	2673.38
957.227	2746.38
957.455	2652.38
957.683	2708.38
957.91	2643.38
958.138	2618.38
958.365	2638.38
958.593	2634.38
958.82	2593.38
959.048	2636.38
959.275	2619.38
959.502	2591.38
959.73	2580.38
959.957	2567.38
960.184	2638.38
960.411	2601.38
960.638	2651.38
960.865	2567.38
961.092	2608.38
961.319	2525.38
961.546	2590.38
961.773	2582.38
962	2563.38
962.227	2604.38
962.454	2560.38
962.68	2552.38
962.907	2592.38
963.134	2511.38
963.36	2489.38
963.587	2544.38
963.813	2447.38
964.04	2492.38
964.266	2418.38
964.493	2520.38
964.719	2477.38
964.945	2487.38
965.171	2370.38
965.398	2396.38
965.624	2405.38
965.85	2366.38
966.076	2341.38
966.302	2399.38
966.528	2371.38
966.754	2357.38
966.98	2387.38
967.206	2351.38
967.431	2301.38
967.657	2370.38
967.883	2360.38
968.109	2328.38
968.334	2273.38
968.56	2301.38
968.785	2292.38
969.011	2257.38
969.236	2321.38
969.462	2248.38
969.687	2299.38
969.912	2324.38
970.138	2347.38
970.363	2227.38
970.588	2260.38
970.813	2223.38
971.038	2206.38
971.263	2216.38
971.488	2230.38
971.713	2265.38
971.938	2258.38
972.163	2152.38
972.388	2206.38
972.613	2158.38
972.838	2181.38
973.062	2144.38
973.287	2138.38
973.512	2044.38
973.736	2138.38
973.961	2087.38
974.185	2070.38
974.41	2114.38
974.634	2014.38
974.858	2018.38
975.083	2075.38
975.307	2108.38
975.531	2024.38
975.755	1945.38
975.98	2015.38
976.204	1903.38
976.428	1943.38
976.652	1969.38
976.876	1935.38
977.1	1967.38
977.324	1923.38
977.547	1968.38
977.771	1986.38
977.995	1939.38
978.219	1874.38
978.442	1993.38
978.666	1917.38
978.89	1929.38
979.113	1937.38
979.337	1896.38
979.56	1883.38
979.783	1937.38
980.007	1817.38
980.23	1904.38
980.453	1885.38
980.677	1890.38
980.9	1900.38
981.123	1780.38
981.346	1883.38
981.569	1860.38
981.792	1877.38
982.015	1839.38
982.238	1761.38
982.461	1834.38
982.684	1772.38
982.907	1756.38
983.129	1756.38
983.352	1796.38
983.575	1785.38
983.797	1766.38
984.02	1741.38
984.242	1749.38
984.465	1735.38
984.687	1790.38
984.91	1800.38
985.132	1711.38
985.354	1763.38
985.577	1722.38
985.799	1715.38
986.021	1667.38
986.243	1678.38
986.465	1704.38
986.687	1725.38
986.909	1769.38
987.131	1727.38
987.353	1718.38
987.575	1731.38
987.797	1665.38
988.019	1633.38
988.241	1694.38
988.462	1621.38
988.684	1668.38
988.906	1695.38
989.127	1737.38
989.349	1626.38
989.57	1631.38
989.792	1674.38
990.013	1700.38
990.234	1682.38
990.456	1707.38
990.677	1697.38
990.898	1629.38
991.119	1639.38
991.341	1645.38
991.562	1584.38
991.783	1628.38
992.004	1583.38
992.225	1532.38
992.446	1589.38
992.667	1524.38
992.887	1596.38
993.108	1493.38
993.329	1629.38
993.55	1549.38
993.77	1501.38
993.991	1517.38
994.212	1532.38
994.432	1557.38
994.653	1541.38
994.873	1528.38
995.093	1433.38
995.314	1464.38
995.534	1513.38
995.754	1541.38
995.975	1560.38
996.195	1420.38
996.415	1522.38
996.635	1495.38
996.855	1539.38
997.075	1464.38
997.295	1445.38
997.515	1454.38
997.735	1519.38
997.955	1464.38
998.174	1472.38
998.394	1441.38
998.614	1511.38
998.834	1454.38
999.053	1501.38
999.273	1468.38
999.492	1553.38
999.712	1457.38
999.931	1436.38
1000.151	1480.38
1000.37	1442.38
1000.589	1506.38
1000.809	1422.38
1001.028	1536.38
1001.247	1491.38
1001.466	1352.38
1001.685	1501.38
1001.904	1473.38
1002.123	1449.38
1002.342	1436.38
1002.561	1366.38
1002.78	1424.38
1002.999	1486.38
1003.218	1421.38
1003.436	1390.38
1003.655	1447.38
1003.874	1386.38
1004.092	1405.38
1004.311	1457.38
1004.53	1411.38
1004.748	1499.38
1004.966	1397.38
1005.185	1469.38
1005.403	1449.38
1005.622	1416.38
1005.84	1497.38
1006.058	1400.38
1006.276	1405.38
1006.494	1910.38
1006.712	1386.38
1006.931	1473.38
1007.149	1378.38
1007.367	1391.38
1007.584	1436.38
1007.802	1446.38
1008.02	1412.38
1008.238	1496.38
1008.456	1509.38
1008.673	1342.38
1008.891	1472.38
1009.109	1406.38
1009.326	1482.38
1009.544	1566.38
1009.761	1480.38
1009.979	1567.38
1010.196	1549.38
1010.413	1646.38
1010.631	1719.38
1010.848	1750.38
1011.065	1734.38
1011.282	1694.38
1011.5	1615.38
1011.717	1749.38
1011.934	1654.38
1012.151	1735.38
1012.368	1676.38
1012.585	1610.38
1012.801	1663.38
1013.018	1624.38
1013.235	1611.38
1013.452	1622.38
1013.669	1628.38
1013.885	1612.38
1014.102	1684.38
1014.318	1610.38
1014.535	1577.38
1014.751	1606.38
1014.968	1605.38
1015.184	1643.38
1015.401	1578.38
1015.617	1573.38
1015.833	1513.38
1016.049	1541.38
1016.266	1557.38
1016.482	1504.38
1016.698	1425.38
1016.914	1514.38
1017.13	1442.38
1017.346	1433.38
1017.562	1503.38
1017.778	1420.38
1017.993	1410.38
1018.209	1450.38
1018.425	1411.38
1018.641	1399.38
1018.856	1343.38
1019.072	1394.38
1019.288	1434.38
1019.503	1417.38
1019.719	1302.38
1019.934	1312.38
1020.149	1414.38
1020.365	1330.38
1020.58	1283.38
1020.795	1330.38
1021.011	1272.38
1021.226	1250.38
1021.441	1279.38
1021.656	1205.38
1021.871	1134.38
1022.086	1144.38
1022.301	1136.38
1022.516	1105.38
1022.731	1170.38
1022.946	1064.38
1023.16	1080.38
1023.375	1038.38
1023.59	1018.38
1023.804	997.38
1024.019	1073.38
1024.234	953.38
1024.448	993.38
1024.663	904.38
1024.877	946.38
1025.092	967.38
1025.306	938.38
1025.52	849.38
1025.734	943.38
1025.949	872.38
1026.163	841.38
1026.377	782.38
1026.591	836.38
1026.805	753.38
1027.019	745.38
1027.233	730.38
1027.447	705.38
1027.661	785.38
1027.875	714.38
1028.088	721.38
1028.302	646.38
1028.516	648.38
1028.73	649.38
1028.943	635.38
1029.157	594.38
1029.37	559.38
1029.584	-3.62
1029.797	-1.62
1030.011	-3.62
1030.224	-0.62
