Data from QEP037381__228__10-52-44-541.txt Node

Date: Wed Dec 21 10:52:44 EST 2022
User: dcclab
Spectrometer: QEP03738
Trigger mode: 4
Integration Time (sec): 1.000000E1
Scans to average: 1
Electric dark correction enabled: true
Nonlinearity correction enabled: false
Boxcar width: 0
XAxis mode: Wavelengths
Number of Pixels in Spectrum: 1044
>>>>>Begin Spectral Data<<<<<
784.041	10.75
784.3	-0.25
784.558	-3.25
784.817	-3.25
785.075	110398.75
785.334	19128.75
785.592	8848.75
785.851	6045.75
786.109	4502.75
786.368	3523.75
786.626	2802.75
786.884	2319.75
787.143	1974.75
787.401	1580.75
787.659	1430.75
787.917	1212.75
788.175	1125.75
788.433	975.75
788.691	855.75
788.949	804.75
789.207	757.75
789.465	659.75
789.723	641.75
789.98	599.75
790.238	604.75
790.496	598.75
790.753	563.75
791.011	597.75
791.268	537.75
791.526	511.75
791.783	538.75
792.041	517.75
792.298	414.75
792.556	495.75
792.813	479.75
793.07	449.75
793.327	433.75
793.584	517.75
793.841	424.75
794.099	447.75
794.356	501.75
794.613	409.75
794.869	450.75
795.126	409.75
795.383	396.75
795.64	405.75
795.897	362.75
796.153	414.75
796.41	391.75
796.667	386.75
796.923	392.75
797.18	402.75
797.436	425.75
797.693	380.75
797.949	429.75
798.206	448.75
798.462	371.75
798.718	439.75
798.974	402.75
799.231	446.75
799.487	427.75
799.743	437.75
799.999	458.75
800.255	431.75
800.511	428.75
800.767	448.75
801.023	436.75
801.279	452.75
801.534	474.75
801.79	502.75
802.046	490.75
802.302	569.75
802.557	623.75
802.813	731.75
803.068	799.75
803.324	1059.75
803.579	1334.75
803.835	1795.75
804.09	2394.75
804.345	3054.75
804.601	3813.75
804.856	4576.75
805.111	5336.75
805.366	5788.75
805.621	6147.75
805.876	6448.75
806.131	6537.75
806.386	6664.75
806.641	6748.75
806.896	6850.75
807.151	6924.75
807.406	7056.75
807.661	7207.75
807.915	7240.75
808.17	7384.75
808.425	7495.75
808.679	7505.75
808.934	7657.75
809.188	7640.75
809.443	7748.75
809.697	7855.75
809.951	7831.75
810.206	7896.75
810.46	8066.75
810.714	8072.75
810.968	8144.75
811.223	8136.75
811.477	8275.75
811.731	8332.75
811.985	8218.75
812.239	8251.75
812.493	8375.75
812.747	8425.75
813	8360.75
813.254	8412.75
813.508	8513.75
813.762	8527.75
814.015	8550.75
814.269	8585.75
814.522	8762.75
814.776	8827.75
815.03	8908.75
815.283	8961.75
815.536	9199.75
815.79	9225.75
816.043	9379.75
816.296	9466.75
816.55	9608.75
816.803	9656.75
817.056	9917.75
817.309	9894.75
817.562	9988.75
817.815	10128.75
818.068	10087.75
818.321	10230.75
818.574	10314.75
818.827	10508.75
819.079	10580.75
819.332	10877.75
819.585	10885.75
819.838	11121.75
820.09	10959.75
820.343	11160.75
820.595	11101.75
820.848	11292.75
821.1	11308.75
821.353	11376.75
821.605	11225.75
821.857	11295.75
822.11	11134.75
822.362	11221.75
822.614	11127.75
822.866	11187.75
823.118	11174.75
823.37	11246.75
823.622	11295.75
823.874	11302.75
824.126	11406.75
824.378	11284.75
824.63	11389.75
824.882	11425.75
825.134	11365.75
825.385	11341.75
825.637	11283.75
825.888	11245.75
826.14	11216.75
826.392	11166.75
826.643	11072.75
826.895	11063.75
827.146	11031.75
827.397	11015.75
827.649	11054.75
827.9	10945.75
828.151	10917.75
828.402	11013.75
828.653	11007.75
828.905	11053.75
829.156	11181.75
829.407	11047.75
829.658	11021.75
829.909	11215.75
830.159	11191.75
830.41	11126.75
830.661	11027.75
830.912	10929.75
831.162	10920.75
831.413	10942.75
831.664	10967.75
831.914	10877.75
832.165	10863.75
832.415	10856.75
832.666	10907.75
832.916	10894.75
833.167	10833.75
833.417	10852.75
833.667	10856.75
833.917	10789.75
834.168	10836.75
834.418	10773.75
834.668	10777.75
834.918	10648.75
835.168	10633.75
835.418	10595.75
835.668	10552.75
835.918	10579.75
836.167	10531.75
836.417	10480.75
836.667	10496.75
836.917	10479.75
837.166	10444.75
837.416	10554.75
837.666	10539.75
837.915	10367.75
838.165	10431.75
838.414	10355.75
838.663	10296.75
838.913	10406.75
839.162	10342.75
839.411	10391.75
839.661	10275.75
839.91	10299.75
840.159	10283.75
840.408	10299.75
840.657	10269.75
840.906	10296.75
841.155	10369.75
841.404	10322.75
841.653	10303.75
841.902	10292.75
842.15	10318.75
842.399	10303.75
842.648	10282.75
842.897	10246.75
843.145	10171.75
843.394	10171.75
843.642	10105.75
843.891	10042.75
844.139	9994.75
844.388	9878.75
844.636	9823.75
844.884	9817.75
845.133	9843.75
845.381	9782.75
845.629	9839.75
845.877	9825.75
846.125	9807.75
846.373	9885.75
846.621	9800.75
846.869	9759.75
847.117	9708.75
847.365	9675.75
847.613	9630.75
847.861	9620.75
848.108	9661.75
848.356	9671.75
848.604	9503.75
848.851	9634.75
849.099	9622.75
849.346	9591.75
849.594	9690.75
849.841	9673.75
850.089	9705.75
850.336	9727.75
850.583	9792.75
850.831	9694.75
851.078	9655.75
851.325	9621.75
851.572	9757.75
851.819	9593.75
852.066	9332.75
852.313	9265.75
852.56	9187.75
852.807	9077.75
853.054	9075.75
853.301	9114.75
853.548	9082.75
853.794	9240.75
854.041	9153.75
854.288	9230.75
854.534	9404.75
854.781	9259.75
855.028	9290.75
855.274	9296.75
855.52	9278.75
855.767	9254.75
856.013	9274.75
856.26	9525.75
856.506	9182.75
856.752	9102.75
856.998	9188.75
857.244	9095.75
857.49	9218.75
857.736	9226.75
857.982	9211.75
858.228	9186.75
858.474	9084.75
858.72	9039.75
858.966	9025.75
859.212	8842.75
859.458	8798.75
859.703	8694.75
859.949	8547.75
860.195	8559.75
860.44	8458.75
860.686	8509.75
860.931	8552.75
861.177	8413.75
861.422	8416.75
861.667	8300.75
861.913	8268.75
862.158	8292.75
862.403	8333.75
862.648	8350.75
862.893	8479.75
863.138	8366.75
863.384	8328.75
863.629	8279.75
863.873	8279.75
864.118	8257.75
864.363	8185.75
864.608	8203.75
864.853	8173.75
865.098	8161.75
865.342	8086.75
865.587	8044.75
865.832	8082.75
866.076	8006.75
866.321	7991.75
866.565	8013.75
866.81	7948.75
867.054	7904.75
867.298	7980.75
867.543	7929.75
867.787	7976.75
868.031	7878.75
868.275	7871.75
868.519	7912.75
868.764	7863.75
869.008	7809.75
869.252	7869.75
869.496	7805.75
869.739	7911.75
869.983	7900.75
870.227	7957.75
870.471	7810.75
870.715	7919.75
870.958	7934.75
871.202	7920.75
871.446	8023.75
871.689	7934.75
871.933	7975.75
872.176	7967.75
872.42	7940.75
872.663	7916.75
872.906	7908.75
873.15	7953.75
873.393	7959.75
873.636	7988.75
873.879	7875.75
874.122	7784.75
874.366	7620.75
874.609	7565.75
874.852	7525.75
875.095	7437.75
875.337	7364.75
875.58	7301.75
875.823	7308.75
876.066	7352.75
876.309	7388.75
876.551	7248.75
876.794	7182.75
877.037	7221.75
877.279	7129.75
877.522	7125.75
877.764	7144.75
878.007	7111.75
878.249	7119.75
878.491	7056.75
878.734	7113.75
878.976	7116.75
879.218	7013.75
879.46	6961.75
879.702	6944.75
879.945	6865.75
880.187	6714.75
880.429	6743.75
880.671	6661.75
880.912	6727.75
881.154	6627.75
881.396	6561.75
881.638	6715.75
881.88	6635.75
882.121	6618.75
882.363	6626.75
882.605	6724.75
882.846	6665.75
883.088	6732.75
883.329	6642.75
883.571	6657.75
883.812	6779.75
884.053	6982.75
884.295	7147.75
884.536	7324.75
884.777	7284.75
885.018	7169.75
885.259	7137.75
885.5	7076.75
885.742	7255.75
885.982	7024.75
886.223	6861.75
886.464	6844.75
886.705	6738.75
886.946	6684.75
887.187	6547.75
887.428	6505.75
887.668	6360.75
887.909	6231.75
888.15	6146.75
888.39	6135.75
888.631	6167.75
888.871	6059.75
889.111	5972.75
889.352	5926.75
889.592	5853.75
889.833	5839.75
890.073	5784.75
890.313	5819.75
890.553	5690.75
890.793	5698.75
891.033	5627.75
891.273	5580.75
891.513	5637.75
891.753	5662.75
891.993	5601.75
892.233	5605.75
892.473	5668.75
892.713	5605.75
892.952	5568.75
893.192	5640.75
893.432	5592.75
893.671	5604.75
893.911	5602.75
894.15	5525.75
894.39	5471.75
894.629	5447.75
894.869	5450.75
895.108	5420.75
895.347	5351.75
895.587	5372.75
895.826	5337.75
896.065	5280.75
896.304	5389.75
896.543	5395.75
896.782	5270.75
897.021	5329.75
897.26	5226.75
897.499	5331.75
897.738	5339.75
897.977	5279.75
898.216	5240.75
898.454	5138.75
898.693	5187.75
898.932	5115.75
899.17	5081.75
899.409	5089.75
899.647	5069.75
899.886	5129.75
900.124	5116.75
900.363	5069.75
900.601	5117.75
900.839	5140.75
901.078	5147.75
901.316	5174.75
901.554	5222.75
901.792	5268.75
902.03	5207.75
902.268	5310.75
902.506	5294.75
902.744	5259.75
902.982	5199.75
903.22	5010.75
903.458	4951.75
903.695	4932.75
903.933	4846.75
904.171	4770.75
904.409	4728.75
904.646	4666.75
904.884	4597.75
905.121	4574.75
905.359	4515.75
905.596	4476.75
905.833	4343.75
906.071	4352.75
906.308	4393.75
906.545	4383.75
906.783	4309.75
907.02	4344.75
907.257	4309.75
907.494	4304.75
907.731	4330.75
907.968	4323.75
908.205	4287.75
908.442	4205.75
908.679	4212.75
908.915	4203.75
909.152	4203.75
909.389	4054.75
909.626	4069.75
909.862	4019.75
910.099	4061.75
910.335	4103.75
910.572	3934.75
910.808	4038.75
911.045	3972.75
911.281	3984.75
911.518	4037.75
911.754	3889.75
911.99	3903.75
912.226	3902.75
912.463	3878.75
912.699	3850.75
912.935	3852.75
913.171	3779.75
913.407	3736.75
913.643	3781.75
913.879	3717.75
914.114	3713.75
914.35	3617.75
914.586	3600.75
914.822	3581.75
915.057	3652.75
915.293	3515.75
915.529	3514.75
915.764	3564.75
916	3486.75
916.235	3541.75
916.471	3496.75
916.706	3400.75
916.941	3480.75
917.177	3447.75
917.412	3497.75
917.647	3521.75
917.882	3409.75
918.117	3514.75
918.352	3444.75
918.588	3475.75
918.823	3411.75
919.057	3346.75
919.292	3244.75
919.527	3388.75
919.762	3240.75
919.997	3345.75
920.232	3253.75
920.466	3230.75
920.701	3159.75
920.935	3163.75
921.17	3170.75
921.405	3124.75
921.639	3168.75
921.873	3113.75
922.108	3134.75
922.342	3102.75
922.576	3066.75
922.811	3043.75
923.045	3089.75
923.279	3088.75
923.513	2976.75
923.747	3052.75
923.981	3026.75
924.215	3030.75
924.449	3006.75
924.683	2925.75
924.917	2924.75
925.151	2916.75
925.385	2959.75
925.618	2948.75
925.852	2940.75
926.086	2819.75
926.319	2922.75
926.553	2899.75
926.786	2896.75
927.02	2861.75
927.253	2930.75
927.486	2943.75
927.72	2787.75
927.953	2912.75
928.186	2844.75
928.42	2846.75
928.653	2772.75
928.886	2758.75
929.119	2843.75
929.352	2805.75
929.585	2820.75
929.818	2728.75
930.051	2748.75
930.284	2777.75
930.516	2662.75
930.749	2676.75
930.982	2690.75
931.215	2713.75
931.447	2635.75
931.68	2640.75
931.912	2614.75
932.145	2609.75
932.377	2648.75
932.61	2793.75
932.842	2608.75
933.074	2620.75
933.307	2588.75
933.539	2710.75
933.771	2691.75
934.003	2631.75
934.236	2699.75
934.468	2685.75
934.7	2613.75
934.932	2676.75
935.164	2603.75
935.395	2581.75
935.627	2585.75
935.859	2620.75
936.091	2556.75
936.323	2604.75
936.554	2608.75
936.786	2559.75
937.017	2517.75
937.249	2536.75
937.481	2504.75
937.712	2555.75
937.943	2495.75
938.175	2506.75
938.406	2514.75
938.637	2624.75
938.869	2466.75
939.1	2567.75
939.331	2449.75
939.562	2488.75
939.793	2513.75
940.024	2495.75
940.255	2520.75
940.486	2452.75
940.717	2486.75
940.948	2440.75
941.179	2389.75
941.409	2429.75
941.64	2424.75
941.871	2453.75
942.102	2400.75
942.332	2440.75
942.563	2445.75
942.793	2429.75
943.024	2397.75
943.254	2391.75
943.484	2452.75
943.715	2441.75
943.945	2402.75
944.175	2353.75
944.405	2321.75
944.636	2355.75
944.866	2416.75
945.096	2426.75
945.326	2352.75
945.556	2399.75
945.786	2409.75
946.016	2351.75
946.245	2316.75
946.475	2316.75
946.705	2320.75
946.935	2327.75
947.164	2278.75
947.394	2277.75
947.624	2304.75
947.853	2265.75
948.083	2267.75
948.312	2214.75
948.542	2194.75
948.771	2179.75
949	2195.75
949.23	2205.75
949.459	2233.75
949.688	2270.75
949.917	2218.75
950.146	2232.75
950.375	2254.75
950.604	2151.75
950.833	2280.75
951.062	2258.75
951.291	2185.75
951.52	2182.75
951.749	2205.75
951.978	2170.75
952.206	2145.75
952.435	2150.75
952.664	2173.75
952.892	2189.75
953.121	2165.75
953.349	2197.75
953.578	2201.75
953.806	2124.75
954.035	2117.75
954.263	2128.75
954.491	2089.75
954.719	2156.75
954.948	2090.75
955.176	2104.75
955.404	2026.75
955.632	2076.75
955.86	2068.75
956.088	2043.75
956.316	2075.75
956.544	2083.75
956.772	2049.75
956.999	2053.75
957.227	2108.75
957.455	1983.75
957.683	2009.75
957.91	1976.75
958.138	1975.75
958.365	1989.75
958.593	1989.75
958.82	1911.75
959.048	1997.75
959.275	1954.75
959.502	1945.75
959.73	1940.75
959.957	1954.75
960.184	1965.75
960.411	1934.75
960.638	2011.75
960.865	1945.75
961.092	1964.75
961.319	1872.75
961.546	1975.75
961.773	1973.75
962	1943.75
962.227	1967.75
962.454	1949.75
962.68	1934.75
962.907	1929.75
963.134	1887.75
963.36	1898.75
963.587	1909.75
963.813	1863.75
964.04	1903.75
964.266	1866.75
964.493	1914.75
964.719	1881.75
964.945	1889.75
965.171	1778.75
965.398	1824.75
965.624	1873.75
965.85	1810.75
966.076	1812.75
966.302	1837.75
966.528	1777.75
966.754	1851.75
966.98	1790.75
967.206	1819.75
967.431	1744.75
967.657	1838.75
967.883	1804.75
968.109	1802.75
968.334	1756.75
968.56	1734.75
968.785	1766.75
969.011	1727.75
969.236	1782.75
969.462	1691.75
969.687	1751.75
969.912	1750.75
970.138	1780.75
970.363	1699.75
970.588	1727.75
970.813	1738.75
971.038	1708.75
971.263	1712.75
971.488	1682.75
971.713	1749.75
971.938	1714.75
972.163	1647.75
972.388	1662.75
972.613	1671.75
972.838	1681.75
973.062	1664.75
973.287	1642.75
973.512	1603.75
973.736	1621.75
973.961	1650.75
974.185	1610.75
974.41	1614.75
974.634	1545.75
974.858	1560.75
975.083	1616.75
975.307	1642.75
975.531	1577.75
975.755	1528.75
975.98	1525.75
976.204	1485.75
976.428	1471.75
976.652	1492.75
976.876	1481.75
977.1	1526.75
977.324	1482.75
977.547	1519.75
977.771	1543.75
977.995	1518.75
978.219	1458.75
978.442	1556.75
978.666	1492.75
978.89	1511.75
979.113	1502.75
979.337	1515.75
979.56	1484.75
979.783	1540.75
980.007	1418.75
980.23	1478.75
980.453	1436.75
980.677	1486.75
980.9	1485.75
981.123	1384.75
981.346	1474.75
981.569	1459.75
981.792	1471.75
982.015	1436.75
982.238	1417.75
982.461	1436.75
982.684	1394.75
982.907	1365.75
983.129	1384.75
983.352	1434.75
983.575	1398.75
983.797	1410.75
984.02	1352.75
984.242	1355.75
984.465	1375.75
984.687	1405.75
984.91	1436.75
985.132	1397.75
985.354	1405.75
985.577	1391.75
985.799	1379.75
986.021	1310.75
986.243	1332.75
986.465	1330.75
986.687	1382.75
986.909	1434.75
987.131	1368.75
987.353	1320.75
987.575	1370.75
987.797	1332.75
988.019	1273.75
988.241	1335.75
988.462	1295.75
988.684	1383.75
988.906	1369.75
989.127	1410.75
989.349	1280.75
989.57	1312.75
989.792	1372.75
990.013	1385.75
990.234	1357.75
990.456	1404.75
990.677	1373.75
990.898	1310.75
991.119	1316.75
991.341	1346.75
991.562	1267.75
991.783	1311.75
992.004	1255.75
992.225	1235.75
992.446	1308.75
992.667	1229.75
992.887	1337.75
993.108	1208.75
993.329	1328.75
993.55	1303.75
993.77	1266.75
993.991	1209.75
994.212	1262.75
994.432	1261.75
994.653	1241.75
994.873	1250.75
995.093	1152.75
995.314	1214.75
995.534	1253.75
995.754	1286.75
995.975	1309.75
996.195	1201.75
996.415	1252.75
996.635	1212.75
996.855	1262.75
997.075	1233.75
997.295	1191.75
997.515	1213.75
997.735	1259.75
997.955	1205.75
998.174	1234.75
998.394	1181.75
998.614	1252.75
998.834	1192.75
999.053	1254.75
999.273	1236.75
999.492	1280.75
999.712	1214.75
999.931	1179.75
1000.151	1224.75
1000.37	1214.75
1000.589	1273.75
1000.809	1182.75
1001.028	1288.75
1001.247	1272.75
1001.466	1154.75
1001.685	1313.75
1001.904	1218.75
1002.123	1223.75
1002.342	1201.75
1002.561	1190.75
1002.78	1228.75
1002.999	1268.75
1003.218	1199.75
1003.436	1221.75
1003.655	1232.75
1003.874	1180.75
1004.092	1221.75
1004.311	1251.75
1004.53	1216.75
1004.748	1281.75
1004.966	1196.75
1005.185	1273.75
1005.403	1240.75
1005.622	1222.75
1005.84	1304.75
1006.058	1208.75
1006.276	1228.75
1006.494	1721.75
1006.712	1213.75
1006.931	1279.75
1007.149	1200.75
1007.367	1203.75
1007.584	1230.75
1007.802	1275.75
1008.02	1196.75
1008.238	1310.75
1008.456	1335.75
1008.673	1195.75
1008.891	1278.75
1009.109	1249.75
1009.326	1274.75
1009.544	1401.75
1009.761	1288.75
1009.979	1381.75
1010.196	1428.75
1010.413	1478.75
1010.631	1517.75
1010.848	1568.75
1011.065	1588.75
1011.282	1519.75
1011.5	1456.75
1011.717	1558.75
1011.934	1522.75
1012.151	1553.75
1012.368	1522.75
1012.585	1486.75
1012.801	1512.75
1013.018	1474.75
1013.235	1469.75
1013.452	1482.75
1013.669	1503.75
1013.885	1474.75
1014.102	1530.75
1014.318	1484.75
1014.535	1461.75
1014.751	1487.75
1014.968	1483.75
1015.184	1531.75
1015.401	1413.75
1015.617	1435.75
1015.833	1401.75
1016.049	1400.75
1016.266	1404.75
1016.482	1421.75
1016.698	1337.75
1016.914	1337.75
1017.13	1327.75
1017.346	1313.75
1017.562	1371.75
1017.778	1325.75
1017.993	1271.75
1018.209	1316.75
1018.425	1309.75
1018.641	1273.75
1018.856	1241.75
1019.072	1268.75
1019.288	1319.75
1019.503	1307.75
1019.719	1230.75
1019.934	1215.75
1020.149	1302.75
1020.365	1212.75
1020.58	1170.75
1020.795	1213.75
1021.011	1142.75
1021.226	1130.75
1021.441	1171.75
1021.656	1089.75
1021.871	1019.75
1022.086	1002.75
1022.301	1018.75
1022.516	1028.75
1022.731	1063.75
1022.946	994.75
1023.16	964.75
1023.375	945.75
1023.59	906.75
1023.804	875.75
1024.019	1008.75
1024.234	880.75
1024.448	885.75
1024.663	846.75
1024.877	833.75
1025.092	862.75
1025.306	861.75
1025.52	785.75
1025.734	860.75
1025.949	785.75
1026.163	751.75
1026.377	717.75
1026.591	746.75
1026.805	682.75
1027.019	683.75
1027.233	657.75
1027.447	611.75
1027.661	711.75
1027.875	637.75
1028.088	664.75
1028.302	576.75
1028.516	576.75
1028.73	600.75
1028.943	558.75
1029.157	533.75
1029.37	497.75
1029.584	-1.25
1029.797	-2.25
1030.011	-0.25
1030.224	-0.25
