Data from QEP037381__210__10-49-44-539.txt Node

Date: Wed Dec 21 10:49:44 EST 2022
User: dcclab
Spectrometer: QEP03738
Trigger mode: 4
Integration Time (sec): 1.000000E1
Scans to average: 1
Electric dark correction enabled: true
Nonlinearity correction enabled: false
Boxcar width: 0
XAxis mode: Wavelengths
Number of Pixels in Spectrum: 1044
>>>>>Begin Spectral Data<<<<<
784.041	11.88
784.3	1.88
784.558	2.88
784.817	-5.12
785.075	119076.88
785.334	19601.88
785.592	8941.88
785.851	6081.88
786.109	4570.88
786.368	3576.88
786.626	2847.88
786.884	2354.88
787.143	1990.88
787.401	1635.88
787.659	1484.88
787.917	1256.88
788.175	1151.88
788.433	1000.88
788.691	895.88
788.949	828.88
789.207	807.88
789.465	681.88
789.723	660.88
789.98	618.88
790.238	638.88
790.496	603.88
790.753	589.88
791.011	618.88
791.268	557.88
791.526	524.88
791.783	541.88
792.041	521.88
792.298	449.88
792.556	513.88
792.813	485.88
793.07	458.88
793.327	442.88
793.584	532.88
793.841	425.88
794.099	472.88
794.356	538.88
794.613	434.88
794.869	446.88
795.126	415.88
795.383	401.88
795.64	435.88
795.897	383.88
796.153	440.88
796.41	418.88
796.667	409.88
796.923	410.88
797.18	420.88
797.436	446.88
797.693	394.88
797.949	456.88
798.206	479.88
798.462	385.88
798.718	454.88
798.974	424.88
799.231	459.88
799.487	444.88
799.743	443.88
799.999	467.88
800.255	474.88
800.511	449.88
800.767	505.88
801.023	486.88
801.279	499.88
801.534	511.88
801.79	561.88
802.046	557.88
802.302	660.88
802.557	739.88
802.813	888.88
803.068	1004.88
803.324	1394.88
803.579	1788.88
803.835	2441.88
804.09	3385.88
804.345	4443.88
804.601	5621.88
804.856	6844.88
805.111	7887.88
805.366	8705.88
805.621	9312.88
805.876	9731.88
806.131	9902.88
806.386	10034.88
806.641	10218.88
806.896	10434.88
807.151	10677.88
807.406	10756.88
807.661	10901.88
807.915	11100.88
808.17	11273.88
808.425	11465.88
808.679	11432.88
808.934	11648.88
809.188	11687.88
809.443	11809.88
809.697	11935.88
809.951	11947.88
810.206	12171.88
810.46	12328.88
810.714	12417.88
810.968	12416.88
811.223	12496.88
811.477	12628.88
811.731	12759.88
811.985	12859.88
812.239	12778.88
812.493	12853.88
812.747	12870.88
813	12904.88
813.254	12988.88
813.508	13127.88
813.762	13060.88
814.015	13131.88
814.269	13199.88
814.522	13345.88
814.776	13579.88
815.03	13681.88
815.283	13814.88
815.536	14096.88
815.79	14265.88
816.043	14475.88
816.296	14663.88
816.55	14823.88
816.803	14926.88
817.056	15257.88
817.309	15298.88
817.562	15457.88
817.815	15681.88
818.068	15795.88
818.321	15969.88
818.574	15976.88
818.827	16393.88
819.079	16539.88
819.332	16816.88
819.585	16904.88
819.838	17142.88
820.09	17226.88
820.343	17394.88
820.595	17343.88
820.848	17566.88
821.1	17648.88
821.353	17619.88
821.605	17606.88
821.857	17621.88
822.11	17473.88
822.362	17416.88
822.614	17467.88
822.866	17536.88
823.118	17411.88
823.37	17480.88
823.622	17560.88
823.874	17650.88
824.126	17742.88
824.378	17641.88
824.63	17723.88
824.882	17720.88
825.134	17667.88
825.385	17708.88
825.637	17702.88
825.888	17516.88
826.14	17528.88
826.392	17431.88
826.643	17442.88
826.895	17305.88
827.146	17202.88
827.397	17214.88
827.649	17285.88
827.9	17207.88
828.151	17200.88
828.402	17192.88
828.653	17242.88
828.905	17305.88
829.156	17432.88
829.407	17306.88
829.658	17339.88
829.909	17359.88
830.159	17248.88
830.41	17318.88
830.661	17047.88
830.912	16968.88
831.162	17004.88
831.413	16915.88
831.664	16921.88
831.914	16943.88
832.165	16960.88
832.415	16895.88
832.666	16843.88
832.916	16945.88
833.167	16891.88
833.417	16953.88
833.667	16796.88
833.917	16809.88
834.168	16859.88
834.418	16637.88
834.668	16665.88
834.918	16444.88
835.168	16429.88
835.418	16414.88
835.668	16407.88
835.918	16371.88
836.167	16377.88
836.417	16211.88
836.667	16238.88
836.917	16282.88
837.166	16206.88
837.416	16338.88
837.666	16210.88
837.915	16113.88
838.165	16054.88
838.414	16070.88
838.663	15957.88
838.913	15991.88
839.162	15874.88
839.411	15942.88
839.661	15838.88
839.91	15856.88
840.159	15837.88
840.408	15854.88
840.657	15804.88
840.906	15831.88
841.155	15819.88
841.404	15795.88
841.653	15740.88
841.902	15850.88
842.15	15773.88
842.399	15813.88
842.648	15789.88
842.897	15748.88
843.145	15604.88
843.394	15553.88
843.642	15499.88
843.891	15408.88
844.139	15309.88
844.388	15231.88
844.636	15056.88
844.884	15089.88
845.133	15143.88
845.381	15118.88
845.629	15181.88
845.877	15058.88
846.125	15028.88
846.373	15100.88
846.621	14921.88
846.869	14949.88
847.117	14841.88
847.365	14794.88
847.613	14760.88
847.861	14743.88
848.108	14676.88
848.356	14637.88
848.604	14590.88
848.851	14676.88
849.099	14601.88
849.346	14717.88
849.594	14851.88
849.841	14711.88
850.089	14906.88
850.336	14812.88
850.583	14801.88
850.831	14805.88
851.078	14709.88
851.325	14600.88
851.572	14567.88
851.819	14421.88
852.066	14205.88
852.313	13993.88
852.56	13959.88
852.807	13858.88
853.054	13851.88
853.301	13847.88
853.548	13837.88
853.794	13962.88
854.041	13982.88
854.288	14005.88
854.534	14130.88
854.781	14089.88
855.028	14004.88
855.274	14003.88
855.52	13857.88
855.767	13858.88
856.013	13848.88
856.26	14163.88
856.506	13828.88
856.752	13759.88
856.998	13722.88
857.244	13760.88
857.49	13874.88
857.736	13807.88
857.982	13880.88
858.228	13762.88
858.474	13672.88
858.72	13598.88
858.966	13474.88
859.212	13413.88
859.458	13237.88
859.703	13104.88
859.949	12975.88
860.195	12904.88
860.44	12744.88
860.686	12685.88
860.931	12766.88
861.177	12631.88
861.422	12676.88
861.667	12563.88
861.913	12589.88
862.158	12627.88
862.403	12607.88
862.648	12721.88
862.893	12769.88
863.138	12639.88
863.384	12705.88
863.629	12707.88
863.873	12607.88
864.118	12541.88
864.363	12418.88
864.608	12427.88
864.853	12403.88
865.098	12290.88
865.342	12313.88
865.587	12238.88
865.832	12260.88
866.076	12108.88
866.321	12101.88
866.565	12034.88
866.81	11961.88
867.054	11956.88
867.298	11957.88
867.543	11929.88
867.787	11948.88
868.031	11973.88
868.275	11863.88
868.519	11952.88
868.764	11777.88
869.008	11892.88
869.252	11822.88
869.496	11717.88
869.739	11748.88
869.983	11727.88
870.227	11721.88
870.471	11676.88
870.715	11710.88
870.958	11853.88
871.202	11769.88
871.446	11787.88
871.689	11836.88
871.933	11781.88
872.176	11808.88
872.42	11726.88
872.663	11626.88
872.906	11699.88
873.15	11654.88
873.393	11613.88
873.636	11738.88
873.879	11454.88
874.122	11453.88
874.366	11240.88
874.609	11139.88
874.852	11107.88
875.095	11053.88
875.337	10996.88
875.58	10853.88
875.823	10856.88
876.066	10854.88
876.309	10761.88
876.551	10692.88
876.794	10554.88
877.037	10696.88
877.279	10586.88
877.522	10615.88
877.764	10601.88
878.007	10532.88
878.249	10570.88
878.491	10536.88
878.734	10617.88
878.976	10541.88
879.218	10499.88
879.46	10435.88
879.702	10378.88
879.945	10252.88
880.187	10141.88
880.429	10080.88
880.671	10009.88
880.912	10000.88
881.154	9956.88
881.396	9905.88
881.638	9924.88
881.88	9938.88
882.121	9906.88
882.363	9871.88
882.605	9925.88
882.846	9862.88
883.088	9834.88
883.329	9839.88
883.571	9848.88
883.812	9880.88
884.053	10093.88
884.295	10278.88
884.536	10474.88
884.777	10296.88
885.018	10220.88
885.259	10209.88
885.5	10045.88
885.742	10259.88
885.982	10029.88
886.223	9956.88
886.464	9896.88
886.705	9802.88
886.946	9762.88
887.187	9559.88
887.428	9538.88
887.668	9337.88
887.909	9263.88
888.15	9165.88
888.39	9152.88
888.631	9081.88
888.871	8956.88
889.111	8874.88
889.352	8854.88
889.592	8772.88
889.833	8680.88
890.073	8702.88
890.313	8645.88
890.553	8497.88
890.793	8531.88
891.033	8524.88
891.273	8314.88
891.513	8346.88
891.753	8385.88
891.993	8304.88
892.233	8356.88
892.473	8436.88
892.713	8408.88
892.952	8383.88
893.192	8391.88
893.432	8350.88
893.671	8377.88
893.911	8333.88
894.15	8226.88
894.39	8099.88
894.629	8162.88
894.869	8142.88
895.108	8096.88
895.347	7938.88
895.587	7978.88
895.826	7942.88
896.065	7958.88
896.304	7972.88
896.543	7935.88
896.782	7848.88
897.021	7913.88
897.26	7867.88
897.499	7815.88
897.738	7798.88
897.977	7804.88
898.216	7598.88
898.454	7586.88
898.693	7561.88
898.932	7540.88
899.17	7491.88
899.409	7513.88
899.647	7465.88
899.886	7427.88
900.124	7462.88
900.363	7401.88
900.601	7478.88
900.839	7462.88
901.078	7497.88
901.316	7450.88
901.554	7506.88
901.792	7554.88
902.03	7512.88
902.268	7579.88
902.506	7550.88
902.744	7481.88
902.982	7470.88
903.22	7296.88
903.458	7265.88
903.695	7136.88
903.933	7104.88
904.171	6935.88
904.409	6851.88
904.646	6837.88
904.884	6673.88
905.121	6707.88
905.359	6625.88
905.596	6549.88
905.833	6431.88
906.071	6408.88
906.308	6443.88
906.545	6427.88
906.783	6343.88
907.02	6392.88
907.257	6376.88
907.494	6387.88
907.731	6346.88
907.968	6354.88
908.205	6329.88
908.442	6278.88
908.679	6248.88
908.915	6151.88
909.152	6092.88
909.389	6014.88
909.626	6029.88
909.862	5892.88
910.099	5933.88
910.335	5982.88
910.572	5911.88
910.808	5924.88
911.045	5854.88
911.281	5813.88
911.518	5872.88
911.754	5750.88
911.99	5767.88
912.226	5717.88
912.463	5663.88
912.699	5620.88
912.935	5570.88
913.171	5523.88
913.407	5460.88
913.643	5498.88
913.879	5448.88
914.114	5426.88
914.35	5284.88
914.586	5298.88
914.822	5255.88
915.057	5251.88
915.293	5096.88
915.529	5138.88
915.764	5196.88
916	5128.88
916.235	5145.88
916.471	5209.88
916.706	5015.88
916.941	5092.88
917.177	5088.88
917.412	5126.88
917.647	5088.88
917.882	5054.88
918.117	5076.88
918.352	5035.88
918.588	5068.88
918.823	4956.88
919.057	4951.88
919.292	4778.88
919.527	4934.88
919.762	4750.88
919.997	4787.88
920.232	4679.88
920.466	4712.88
920.701	4556.88
920.935	4577.88
921.17	4537.88
921.405	4508.88
921.639	4559.88
921.873	4576.88
922.108	4527.88
922.342	4490.88
922.576	4425.88
922.811	4447.88
923.045	4449.88
923.279	4490.88
923.513	4345.88
923.747	4385.88
923.981	4339.88
924.215	4271.88
924.449	4283.88
924.683	4221.88
924.917	4188.88
925.151	4230.88
925.385	4240.88
925.618	4217.88
925.852	4195.88
926.086	4130.88
926.319	4189.88
926.553	4180.88
926.786	4156.88
927.02	4193.88
927.253	4174.88
927.486	4142.88
927.72	4136.88
927.953	4168.88
928.186	4091.88
928.42	4120.88
928.653	4062.88
928.886	4017.88
929.119	4061.88
929.352	4060.88
929.585	3999.88
929.818	3951.88
930.051	4013.88
930.284	3950.88
930.516	3884.88
930.749	3821.88
930.982	3922.88
931.215	3824.88
931.447	3759.88
931.68	3789.88
931.912	3710.88
932.145	3753.88
932.377	3810.88
932.61	3872.88
932.842	3703.88
933.074	3801.88
933.307	3732.88
933.539	3844.88
933.771	3804.88
934.003	3751.88
934.236	3827.88
934.468	3835.88
934.7	3711.88
934.932	3758.88
935.164	3669.88
935.395	3694.88
935.627	3674.88
935.859	3696.88
936.091	3661.88
936.323	3673.88
936.554	3687.88
936.786	3660.88
937.017	3583.88
937.249	3608.88
937.481	3548.88
937.712	3603.88
937.943	3598.88
938.175	3539.88
938.406	3566.88
938.637	3660.88
938.869	3529.88
939.1	3560.88
939.331	3518.88
939.562	3583.88
939.793	3519.88
940.024	3539.88
940.255	3550.88
940.486	3466.88
940.717	3463.88
940.948	3444.88
941.179	3403.88
941.409	3450.88
941.64	3389.88
941.871	3443.88
942.102	3388.88
942.332	3382.88
942.563	3435.88
942.793	3455.88
943.024	3390.88
943.254	3379.88
943.484	3432.88
943.715	3479.88
943.945	3408.88
944.175	3358.88
944.405	3342.88
944.636	3341.88
944.866	3381.88
945.096	3393.88
945.326	3312.88
945.556	3359.88
945.786	3381.88
946.016	3281.88
946.245	3244.88
946.475	3255.88
946.705	3236.88
946.935	3216.88
947.164	3232.88
947.394	3163.88
947.624	3214.88
947.853	3252.88
948.083	3212.88
948.312	3201.88
948.542	3117.88
948.771	3068.88
949	3087.88
949.23	3110.88
949.459	3105.88
949.688	3224.88
949.917	3104.88
950.146	3116.88
950.375	3160.88
950.604	3065.88
950.833	3193.88
951.062	3131.88
951.291	3086.88
951.52	3077.88
951.749	3123.88
951.978	3072.88
952.206	3021.88
952.435	3039.88
952.664	3043.88
952.892	3052.88
953.121	3004.88
953.349	3056.88
953.578	3052.88
953.806	2995.88
954.035	2944.88
954.263	2976.88
954.491	2895.88
954.719	2975.88
954.948	2910.88
955.176	2880.88
955.404	2818.88
955.632	2898.88
955.86	2912.88
956.088	2888.88
956.316	2903.88
956.544	2935.88
956.772	2810.88
956.999	2819.88
957.227	2856.88
957.455	2769.88
957.683	2822.88
957.91	2730.88
958.138	2743.88
958.365	2750.88
958.593	2757.88
958.82	2654.88
959.048	2775.88
959.275	2759.88
959.502	2707.88
959.73	2681.88
959.957	2696.88
960.184	2711.88
960.411	2652.88
960.638	2739.88
960.865	2665.88
961.092	2712.88
961.319	2640.88
961.546	2690.88
961.773	2704.88
962	2673.88
962.227	2687.88
962.454	2660.88
962.68	2623.88
962.907	2680.88
963.134	2596.88
963.36	2634.88
963.587	2660.88
963.813	2564.88
964.04	2601.88
964.266	2531.88
964.493	2576.88
964.719	2594.88
964.945	2563.88
965.171	2473.88
965.398	2511.88
965.624	2527.88
965.85	2474.88
966.076	2461.88
966.302	2485.88
966.528	2454.88
966.754	2491.88
966.98	2458.88
967.206	2458.88
967.431	2373.88
967.657	2453.88
967.883	2427.88
968.109	2424.88
968.334	2368.88
968.56	2341.88
968.785	2409.88
969.011	2333.88
969.236	2404.88
969.462	2347.88
969.687	2372.88
969.912	2357.88
970.138	2374.88
970.363	2307.88
970.588	2341.88
970.813	2319.88
971.038	2308.88
971.263	2349.88
971.488	2323.88
971.713	2344.88
971.938	2324.88
972.163	2239.88
972.388	2266.88
972.613	2251.88
972.838	2261.88
973.062	2210.88
973.287	2256.88
973.512	2166.88
973.736	2187.88
973.961	2191.88
974.185	2157.88
974.41	2168.88
974.634	2131.88
974.858	2106.88
975.083	2137.88
975.307	2157.88
975.531	2104.88
975.755	2043.88
975.98	2084.88
976.204	2025.88
976.428	2028.88
976.652	2030.88
976.876	2034.88
977.1	2007.88
977.324	2011.88
977.547	2042.88
977.771	2056.88
977.995	2022.88
978.219	1952.88
978.442	2073.88
978.666	2016.88
978.89	2002.88
979.113	2005.88
979.337	1962.88
979.56	1942.88
979.783	2029.88
980.007	1917.88
980.23	1952.88
980.453	1892.88
980.677	1971.88
980.9	1954.88
981.123	1853.88
981.346	1930.88
981.569	1919.88
981.792	1946.88
982.015	1926.88
982.238	1884.88
982.461	1913.88
982.684	1830.88
982.907	1838.88
983.129	1803.88
983.352	1864.88
983.575	1833.88
983.797	1850.88
984.02	1807.88
984.242	1791.88
984.465	1778.88
984.687	1833.88
984.91	1831.88
985.132	1818.88
985.354	1848.88
985.577	1801.88
985.799	1770.88
986.021	1734.88
986.243	1730.88
986.465	1779.88
986.687	1806.88
986.909	1851.88
987.131	1761.88
987.353	1731.88
987.575	1765.88
987.797	1728.88
988.019	1675.88
988.241	1718.88
988.462	1704.88
988.684	1747.88
988.906	1757.88
989.127	1770.88
989.349	1672.88
989.57	1693.88
989.792	1748.88
990.013	1730.88
990.234	1758.88
990.456	1776.88
990.677	1734.88
990.898	1685.88
991.119	1686.88
991.341	1692.88
991.562	1656.88
991.783	1675.88
992.004	1612.88
992.225	1599.88
992.446	1677.88
992.667	1574.88
992.887	1636.88
993.108	1544.88
993.329	1673.88
993.55	1624.88
993.77	1547.88
993.991	1536.88
994.212	1595.88
994.432	1574.88
994.653	1609.88
994.873	1593.88
995.093	1495.88
995.314	1522.88
995.534	1587.88
995.754	1583.88
995.975	1598.88
996.195	1496.88
996.415	1549.88
996.635	1533.88
996.855	1535.88
997.075	1534.88
997.295	1535.88
997.515	1509.88
997.735	1540.88
997.955	1535.88
998.174	1498.88
998.394	1507.88
998.614	1526.88
998.834	1484.88
999.053	1547.88
999.273	1547.88
999.492	1581.88
999.712	1505.88
999.931	1478.88
1000.151	1552.88
1000.37	1513.88
1000.589	1544.88
1000.809	1495.88
1001.028	1588.88
1001.247	1521.88
1001.466	1414.88
1001.685	1554.88
1001.904	1505.88
1002.123	1465.88
1002.342	1480.88
1002.561	1418.88
1002.78	1458.88
1002.999	1547.88
1003.218	1474.88
1003.436	1426.88
1003.655	1493.88
1003.874	1412.88
1004.092	1449.88
1004.311	1484.88
1004.53	1450.88
1004.748	1527.88
1004.966	1446.88
1005.185	1502.88
1005.403	1473.88
1005.622	1477.88
1005.84	1520.88
1006.058	1412.88
1006.276	1481.88
1006.494	1905.88
1006.712	1448.88
1006.931	1520.88
1007.149	1420.88
1007.367	1420.88
1007.584	1432.88
1007.802	1478.88
1008.02	1402.88
1008.238	1533.88
1008.456	1532.88
1008.673	1370.88
1008.891	1494.88
1009.109	1434.88
1009.326	1470.88
1009.544	1593.88
1009.761	1506.88
1009.979	1574.88
1010.196	1581.88
1010.413	1709.88
1010.631	1719.88
1010.848	1734.88
1011.065	1729.88
1011.282	1706.88
1011.5	1623.88
1011.717	1744.88
1011.934	1685.88
1012.151	1712.88
1012.368	1704.88
1012.585	1627.88
1012.801	1682.88
1013.018	1653.88
1013.235	1614.88
1013.452	1633.88
1013.669	1636.88
1013.885	1639.88
1014.102	1673.88
1014.318	1646.88
1014.535	1609.88
1014.751	1621.88
1014.968	1633.88
1015.184	1658.88
1015.401	1573.88
1015.617	1618.88
1015.833	1546.88
1016.049	1573.88
1016.266	1540.88
1016.482	1519.88
1016.698	1439.88
1016.914	1532.88
1017.13	1449.88
1017.346	1444.88
1017.562	1486.88
1017.778	1461.88
1017.993	1416.88
1018.209	1452.88
1018.425	1440.88
1018.641	1419.88
1018.856	1373.88
1019.072	1437.88
1019.288	1460.88
1019.503	1407.88
1019.719	1340.88
1019.934	1346.88
1020.149	1432.88
1020.365	1341.88
1020.58	1315.88
1020.795	1345.88
1021.011	1302.88
1021.226	1256.88
1021.441	1272.88
1021.656	1196.88
1021.871	1153.88
1022.086	1152.88
1022.301	1129.88
1022.516	1133.88
1022.731	1187.88
1022.946	1101.88
1023.16	1082.88
1023.375	1064.88
1023.59	1039.88
1023.804	1002.88
1024.019	1107.88
1024.234	970.88
1024.448	1023.88
1024.663	942.88
1024.877	948.88
1025.092	973.88
1025.306	967.88
1025.52	868.88
1025.734	946.88
1025.949	895.88
1026.163	857.88
1026.377	790.88
1026.591	840.88
1026.805	778.88
1027.019	780.88
1027.233	753.88
1027.447	697.88
1027.661	798.88
1027.875	709.88
1028.088	725.88
1028.302	668.88
1028.516	657.88
1028.73	662.88
1028.943	644.88
1029.157	581.88
1029.37	573.88
1029.584	-1.12
1029.797	-4.12
1030.011	-3.12
1030.224	-3.12
