Data from QEP037381__233__10-53-34-540.txt Node

Date: Wed Dec 21 10:53:34 EST 2022
User: dcclab
Spectrometer: QEP03738
Trigger mode: 4
Integration Time (sec): 1.000000E1
Scans to average: 1
Electric dark correction enabled: true
Nonlinearity correction enabled: false
Boxcar width: 0
XAxis mode: Wavelengths
Number of Pixels in Spectrum: 1044
>>>>>Begin Spectral Data<<<<<
784.041	9.75
784.3	-1.25
784.558	-3.25
784.817	-2.25
785.075	104937.75
785.334	17656.75
785.592	8147.75
785.851	5584.75
786.109	4211.75
786.368	3327.75
786.626	2627.75
786.884	2218.75
787.143	1908.75
787.401	1523.75
787.659	1402.75
787.917	1217.75
788.175	1084.75
788.433	979.75
788.691	852.75
788.949	783.75
789.207	766.75
789.465	672.75
789.723	637.75
789.98	584.75
790.238	621.75
790.496	574.75
790.753	556.75
791.011	598.75
791.268	555.75
791.526	523.75
791.783	535.75
792.041	523.75
792.298	436.75
792.556	499.75
792.813	485.75
793.07	463.75
793.327	448.75
793.584	529.75
793.841	453.75
794.099	471.75
794.356	531.75
794.613	417.75
794.869	470.75
795.126	420.75
795.383	407.75
795.64	430.75
795.897	375.75
796.153	429.75
796.41	428.75
796.667	416.75
796.923	423.75
797.18	420.75
797.436	432.75
797.693	419.75
797.949	457.75
798.206	485.75
798.462	402.75
798.718	478.75
798.974	441.75
799.231	477.75
799.487	466.75
799.743	466.75
799.999	514.75
800.255	498.75
800.511	488.75
800.767	517.75
801.023	517.75
801.279	541.75
801.534	570.75
801.79	610.75
802.046	643.75
802.302	771.75
802.557	862.75
802.813	1053.75
803.068	1255.75
803.324	1750.75
803.579	2383.75
803.835	3269.75
804.09	4520.75
804.345	5975.75
804.601	7568.75
804.856	9312.75
805.111	10810.75
805.366	11874.75
805.621	12701.75
805.876	13176.75
806.131	13614.75
806.386	13779.75
806.641	14051.75
806.896	14294.75
807.151	14505.75
807.406	14819.75
807.661	15030.75
807.915	15336.75
808.17	15585.75
808.425	15716.75
808.679	15757.75
808.934	15974.75
809.188	16213.75
809.443	16326.75
809.697	16389.75
809.951	16535.75
810.206	16682.75
810.46	16913.75
810.714	17041.75
810.968	17201.75
811.223	17345.75
811.477	17424.75
811.731	17572.75
811.985	17590.75
812.239	17525.75
812.493	17713.75
812.747	17814.75
813	17813.75
813.254	17926.75
813.508	18077.75
813.762	18072.75
814.015	18178.75
814.269	18285.75
814.522	18470.75
814.776	18599.75
815.03	18939.75
815.283	19179.75
815.536	19367.75
815.79	19773.75
816.043	20023.75
816.296	20099.75
816.55	20506.75
816.803	20780.75
817.056	21073.75
817.309	21154.75
817.562	21362.75
817.815	21539.75
818.068	21744.75
818.321	21933.75
818.574	22263.75
818.827	22571.75
819.079	22861.75
819.332	23190.75
819.585	23398.75
819.838	23893.75
820.09	23765.75
820.343	23944.75
820.595	24031.75
820.848	24285.75
821.1	24360.75
821.353	24391.75
821.605	24326.75
821.857	24353.75
822.11	24133.75
822.362	24123.75
822.614	24160.75
822.866	24219.75
823.118	24063.75
823.37	24148.75
823.622	24207.75
823.874	24201.75
824.126	24359.75
824.378	24265.75
824.63	24414.75
824.882	24461.75
825.134	24403.75
825.385	24398.75
825.637	24361.75
825.888	24306.75
826.14	24187.75
826.392	24128.75
826.643	23914.75
826.895	23887.75
827.146	23725.75
827.397	23632.75
827.649	23734.75
827.9	23639.75
828.151	23811.75
828.402	23754.75
828.653	23777.75
828.905	23820.75
829.156	23931.75
829.407	23866.75
829.658	23906.75
829.909	23863.75
830.159	23881.75
830.41	23640.75
830.661	23549.75
830.912	23369.75
831.162	23356.75
831.413	23362.75
831.664	23348.75
831.914	23197.75
832.165	23226.75
832.415	23189.75
832.666	23289.75
832.916	23250.75
833.167	23133.75
833.417	23119.75
833.667	23164.75
833.917	23044.75
834.168	23027.75
834.418	22904.75
834.668	22791.75
834.918	22576.75
835.168	22590.75
835.418	22568.75
835.668	22548.75
835.918	22585.75
836.167	22475.75
836.417	22302.75
836.667	22298.75
836.917	22321.75
837.166	22139.75
837.416	22227.75
837.666	22176.75
837.915	22147.75
838.165	21979.75
838.414	22017.75
838.663	21905.75
838.913	21822.75
839.162	21802.75
839.411	21849.75
839.661	21713.75
839.91	21626.75
840.159	21619.75
840.408	21670.75
840.657	21701.75
840.906	21698.75
841.155	21667.75
841.404	21553.75
841.653	21557.75
841.902	21559.75
842.15	21730.75
842.399	21591.75
842.648	21619.75
842.897	21448.75
843.145	21446.75
843.394	21187.75
843.642	21169.75
843.891	21082.75
844.139	20950.75
844.388	20814.75
844.636	20673.75
844.884	20618.75
845.133	20598.75
845.381	20742.75
845.629	20658.75
845.877	20492.75
846.125	20445.75
846.373	20442.75
846.621	20298.75
846.869	20379.75
847.117	20258.75
847.365	20195.75
847.613	20145.75
847.861	20002.75
848.108	20080.75
848.356	19878.75
848.604	19944.75
848.851	20016.75
849.099	19943.75
849.346	19938.75
849.594	20061.75
849.841	20110.75
850.089	20119.75
850.336	20198.75
850.583	20156.75
850.831	20096.75
851.078	19980.75
851.325	19789.75
851.572	19877.75
851.819	19537.75
852.066	19336.75
852.313	19094.75
852.56	18921.75
852.807	18822.75
853.054	18848.75
853.301	18714.75
853.548	18777.75
853.794	18950.75
854.041	18918.75
854.288	18947.75
854.534	19267.75
854.781	19144.75
855.028	19114.75
855.274	19039.75
855.52	18924.75
855.767	18831.75
856.013	18891.75
856.26	19019.75
856.506	18607.75
856.752	18658.75
856.998	18542.75
857.244	18576.75
857.49	18688.75
857.736	18664.75
857.982	18649.75
858.228	18682.75
858.474	18532.75
858.72	18371.75
858.966	18226.75
859.212	18090.75
859.458	17868.75
859.703	17780.75
859.949	17521.75
860.195	17441.75
860.44	17332.75
860.686	17108.75
860.931	17183.75
861.177	17105.75
861.422	17005.75
861.667	16951.75
861.913	16972.75
862.158	17083.75
862.403	16948.75
862.648	17074.75
862.893	17118.75
863.138	17079.75
863.384	16984.75
863.629	17060.75
863.873	16990.75
864.118	16905.75
864.363	16776.75
864.608	16764.75
864.853	16718.75
865.098	16452.75
865.342	16482.75
865.587	16377.75
865.832	16424.75
866.076	16343.75
866.321	16233.75
866.565	16249.75
866.81	16079.75
867.054	16122.75
867.298	16030.75
867.543	16026.75
867.787	16042.75
868.031	16020.75
868.275	15908.75
868.519	15936.75
868.764	15909.75
869.008	15815.75
869.252	15816.75
869.496	15741.75
869.739	15694.75
869.983	15707.75
870.227	15673.75
870.471	15700.75
870.715	15768.75
870.958	15752.75
871.202	15839.75
871.446	15778.75
871.689	15825.75
871.933	15746.75
872.176	15825.75
872.42	15772.75
872.663	15685.75
872.906	15647.75
873.15	15595.75
873.393	15567.75
873.636	15577.75
873.879	15410.75
874.122	15301.75
874.366	14959.75
874.609	14979.75
874.852	14810.75
875.095	14745.75
875.337	14558.75
875.58	14470.75
875.823	14553.75
876.066	14438.75
876.309	14421.75
876.551	14287.75
876.794	14291.75
877.037	14239.75
877.279	14137.75
877.522	14236.75
877.764	14259.75
878.007	14132.75
878.249	14121.75
878.491	14066.75
878.734	14200.75
878.976	14087.75
879.218	13929.75
879.46	13924.75
879.702	13730.75
879.945	13690.75
880.187	13544.75
880.429	13443.75
880.671	13384.75
880.912	13351.75
881.154	13223.75
881.396	13193.75
881.638	13241.75
881.88	13212.75
882.121	13085.75
882.363	13154.75
882.605	13175.75
882.846	13070.75
883.088	13037.75
883.329	13046.75
883.571	13066.75
883.812	13238.75
884.053	13347.75
884.295	13590.75
884.536	13758.75
884.777	13669.75
885.018	13558.75
885.259	13482.75
885.5	13341.75
885.742	13584.75
885.982	13399.75
886.223	13256.75
886.464	13138.75
886.705	12964.75
886.946	12950.75
887.187	12685.75
887.428	12623.75
887.668	12369.75
887.909	12205.75
888.15	12124.75
888.39	12086.75
888.631	11987.75
888.871	11880.75
889.111	11825.75
889.352	11691.75
889.592	11537.75
889.833	11513.75
890.073	11457.75
890.313	11398.75
890.553	11259.75
890.793	11208.75
891.033	11109.75
891.273	11029.75
891.513	11091.75
891.753	11147.75
891.993	10987.75
892.233	11031.75
892.473	11090.75
892.713	11104.75
892.952	11019.75
893.192	10988.75
893.432	10977.75
893.671	11088.75
893.911	10950.75
894.15	10910.75
894.39	10767.75
894.629	10765.75
894.869	10776.75
895.108	10629.75
895.347	10501.75
895.587	10577.75
895.826	10459.75
896.065	10430.75
896.304	10430.75
896.543	10464.75
896.782	10298.75
897.021	10370.75
897.26	10277.75
897.499	10332.75
897.738	10279.75
897.977	10150.75
898.216	10132.75
898.454	10031.75
898.693	9960.75
898.932	9880.75
899.17	9837.75
899.409	9878.75
899.647	9736.75
899.886	9846.75
900.124	9833.75
900.363	9782.75
900.601	9755.75
900.839	9844.75
901.078	9833.75
901.316	9893.75
901.554	9929.75
901.792	9940.75
902.03	9906.75
902.268	9846.75
902.506	9947.75
902.744	9768.75
902.982	9804.75
903.22	9638.75
903.458	9479.75
903.695	9359.75
903.933	9286.75
904.171	9108.75
904.409	8983.75
904.646	8967.75
904.884	8731.75
905.121	8728.75
905.359	8654.75
905.596	8561.75
905.833	8451.75
906.071	8399.75
906.308	8414.75
906.545	8356.75
906.783	8335.75
907.02	8333.75
907.257	8305.75
907.494	8257.75
907.731	8246.75
907.968	8221.75
908.205	8191.75
908.442	8130.75
908.679	8131.75
908.915	8034.75
909.152	8012.75
909.389	7817.75
909.626	7842.75
909.862	7752.75
910.099	7747.75
910.335	7789.75
910.572	7569.75
910.808	7664.75
911.045	7633.75
911.281	7547.75
911.518	7583.75
911.754	7490.75
911.99	7475.75
912.226	7411.75
912.463	7407.75
912.699	7330.75
912.935	7276.75
913.171	7225.75
913.407	7070.75
913.643	7125.75
913.879	7053.75
914.114	7007.75
914.35	6947.75
914.586	6906.75
914.822	6762.75
915.057	6868.75
915.293	6636.75
915.529	6639.75
915.764	6683.75
916	6704.75
916.235	6672.75
916.471	6640.75
916.706	6572.75
916.941	6581.75
917.177	6587.75
917.412	6600.75
917.647	6638.75
917.882	6471.75
918.117	6520.75
918.352	6481.75
918.588	6536.75
918.823	6410.75
919.057	6367.75
919.292	6159.75
919.527	6329.75
919.762	6149.75
919.997	6187.75
920.232	6063.75
920.466	6070.75
920.701	5919.75
920.935	5925.75
921.17	5901.75
921.405	5831.75
921.639	5867.75
921.873	5836.75
922.108	5778.75
922.342	5802.75
922.576	5670.75
922.811	5769.75
923.045	5768.75
923.279	5721.75
923.513	5593.75
923.747	5664.75
923.981	5562.75
924.215	5557.75
924.449	5526.75
924.683	5456.75
924.917	5427.75
925.151	5425.75
925.385	5429.75
925.618	5370.75
925.852	5370.75
926.086	5346.75
926.319	5348.75
926.553	5342.75
926.786	5330.75
927.02	5285.75
927.253	5365.75
927.486	5353.75
927.72	5287.75
927.953	5346.75
928.186	5254.75
928.42	5288.75
928.653	5232.75
928.886	5175.75
929.119	5214.75
929.352	5117.75
929.585	5156.75
929.818	5066.75
930.051	5089.75
930.284	5038.75
930.516	4902.75
930.749	4875.75
930.982	4915.75
931.215	4914.75
931.447	4821.75
931.68	4831.75
931.912	4793.75
932.145	4839.75
932.377	4864.75
932.61	4936.75
932.842	4798.75
933.074	4870.75
933.307	4766.75
933.539	4873.75
933.771	4830.75
934.003	4767.75
934.236	4861.75
934.468	4854.75
934.7	4773.75
934.932	4748.75
935.164	4710.75
935.395	4701.75
935.627	4690.75
935.859	4692.75
936.091	4621.75
936.323	4701.75
936.554	4728.75
936.786	4618.75
937.017	4586.75
937.249	4625.75
937.481	4560.75
937.712	4586.75
937.943	4621.75
938.175	4524.75
938.406	4578.75
938.637	4559.75
938.869	4510.75
939.1	4533.75
939.331	4427.75
939.562	4507.75
939.793	4508.75
940.024	4471.75
940.255	4497.75
940.486	4452.75
940.717	4402.75
940.948	4366.75
941.179	4338.75
941.409	4341.75
941.64	4286.75
941.871	4329.75
942.102	4306.75
942.332	4325.75
942.563	4361.75
942.793	4325.75
943.024	4264.75
943.254	4330.75
943.484	4357.75
943.715	4355.75
943.945	4318.75
944.175	4245.75
944.405	4241.75
944.636	4287.75
944.866	4295.75
945.096	4298.75
945.326	4195.75
945.556	4294.75
945.786	4285.75
946.016	4201.75
946.245	4104.75
946.475	4110.75
946.705	4151.75
946.935	4094.75
947.164	4036.75
947.394	4013.75
947.624	4012.75
947.853	4082.75
948.083	4035.75
948.312	3975.75
948.542	3927.75
948.771	3897.75
949	3947.75
949.23	3924.75
949.459	3929.75
949.688	4027.75
949.917	3933.75
950.146	3891.75
950.375	3977.75
950.604	3919.75
950.833	3956.75
951.062	3957.75
951.291	3881.75
951.52	3816.75
951.749	3893.75
951.978	3839.75
952.206	3874.75
952.435	3788.75
952.664	3856.75
952.892	3857.75
953.121	3854.75
953.349	3843.75
953.578	3808.75
953.806	3788.75
954.035	3730.75
954.263	3713.75
954.491	3655.75
954.719	3728.75
954.948	3660.75
955.176	3627.75
955.404	3576.75
955.632	3605.75
955.86	3656.75
956.088	3625.75
956.316	3618.75
956.544	3656.75
956.772	3563.75
956.999	3500.75
957.227	3582.75
957.455	3468.75
957.683	3491.75
957.91	3409.75
958.138	3428.75
958.365	3463.75
958.593	3413.75
958.82	3359.75
959.048	3416.75
959.275	3393.75
959.502	3380.75
959.73	3317.75
959.957	3358.75
960.184	3374.75
960.411	3318.75
960.638	3391.75
960.865	3376.75
961.092	3337.75
961.319	3277.75
961.546	3325.75
961.773	3361.75
962	3324.75
962.227	3381.75
962.454	3314.75
962.68	3276.75
962.907	3315.75
963.134	3198.75
963.36	3264.75
963.587	3280.75
963.813	3146.75
964.04	3191.75
964.266	3143.75
964.493	3181.75
964.719	3196.75
964.945	3178.75
965.171	3046.75
965.398	3176.75
965.624	3129.75
965.85	3011.75
966.076	3063.75
966.302	3061.75
966.528	3039.75
966.754	3058.75
966.98	3015.75
967.206	3050.75
967.431	2952.75
967.657	3044.75
967.883	3031.75
968.109	2983.75
968.334	2920.75
968.56	2922.75
968.785	2938.75
969.011	2904.75
969.236	2930.75
969.462	2906.75
969.687	2899.75
969.912	2954.75
970.138	2943.75
970.363	2880.75
970.588	2890.75
970.813	2850.75
971.038	2829.75
971.263	2858.75
971.488	2873.75
971.713	2879.75
971.938	2849.75
972.163	2742.75
972.388	2803.75
972.613	2744.75
972.838	2795.75
973.062	2745.75
973.287	2716.75
973.512	2699.75
973.736	2729.75
973.961	2659.75
974.185	2661.75
974.41	2683.75
974.634	2613.75
974.858	2626.75
975.083	2670.75
975.307	2663.75
975.531	2600.75
975.755	2551.75
975.98	2543.75
976.204	2520.75
976.428	2463.75
976.652	2479.75
976.876	2436.75
977.1	2492.75
977.324	2518.75
977.547	2503.75
977.771	2524.75
977.995	2433.75
978.219	2376.75
978.442	2529.75
978.666	2479.75
978.89	2456.75
979.113	2457.75
979.337	2426.75
979.56	2349.75
979.783	2482.75
980.007	2355.75
980.23	2392.75
980.453	2354.75
980.677	2406.75
980.9	2332.75
981.123	2282.75
981.346	2393.75
981.569	2309.75
981.792	2355.75
982.015	2316.75
982.238	2272.75
982.461	2255.75
982.684	2257.75
982.907	2223.75
983.129	2203.75
983.352	2270.75
983.575	2222.75
983.797	2238.75
984.02	2195.75
984.242	2203.75
984.465	2188.75
984.687	2220.75
984.91	2228.75
985.132	2203.75
985.354	2212.75
985.577	2169.75
985.799	2141.75
986.021	2079.75
986.243	2080.75
986.465	2108.75
986.687	2184.75
986.909	2169.75
987.131	2151.75
987.353	2089.75
987.575	2123.75
987.797	2061.75
988.019	2006.75
988.241	2086.75
988.462	2029.75
988.684	2071.75
988.906	2085.75
989.127	2126.75
989.349	2040.75
989.57	2033.75
989.792	2053.75
990.013	2088.75
990.234	2061.75
990.456	2081.75
990.677	2026.75
990.898	2022.75
991.119	2004.75
991.341	2039.75
991.562	1974.75
991.783	1994.75
992.004	1949.75
992.225	1902.75
992.446	1970.75
992.667	1876.75
992.887	1970.75
993.108	1852.75
993.329	1977.75
993.55	1911.75
993.77	1871.75
993.991	1874.75
994.212	1886.75
994.432	1867.75
994.653	1871.75
994.873	1877.75
995.093	1745.75
995.314	1795.75
995.534	1857.75
995.754	1881.75
995.975	1926.75
996.195	1767.75
996.415	1856.75
996.635	1842.75
996.855	1838.75
997.075	1803.75
997.295	1779.75
997.515	1759.75
997.735	1834.75
997.955	1784.75
998.174	1800.75
998.394	1753.75
998.614	1790.75
998.834	1749.75
999.053	1839.75
999.273	1789.75
999.492	1831.75
999.712	1791.75
999.931	1736.75
1000.151	1782.75
1000.37	1754.75
1000.589	1785.75
1000.809	1715.75
1001.028	1815.75
1001.247	1775.75
1001.466	1681.75
1001.685	1804.75
1001.904	1749.75
1002.123	1713.75
1002.342	1731.75
1002.561	1653.75
1002.78	1700.75
1002.999	1728.75
1003.218	1675.75
1003.436	1675.75
1003.655	1693.75
1003.874	1647.75
1004.092	1675.75
1004.311	1678.75
1004.53	1658.75
1004.748	1737.75
1004.966	1635.75
1005.185	1716.75
1005.403	1688.75
1005.622	1676.75
1005.84	1708.75
1006.058	1618.75
1006.276	1690.75
1006.494	2153.75
1006.712	1648.75
1006.931	1728.75
1007.149	1613.75
1007.367	1646.75
1007.584	1663.75
1007.802	1703.75
1008.02	1633.75
1008.238	1743.75
1008.456	1753.75
1008.673	1614.75
1008.891	1701.75
1009.109	1683.75
1009.326	1732.75
1009.544	1793.75
1009.761	1738.75
1009.979	1830.75
1010.196	1835.75
1010.413	1913.75
1010.631	1960.75
1010.848	2036.75
1011.065	2013.75
1011.282	1946.75
1011.5	1907.75
1011.717	1990.75
1011.934	1954.75
1012.151	1983.75
1012.368	1966.75
1012.585	1896.75
1012.801	1938.75
1013.018	1897.75
1013.235	1875.75
1013.452	1914.75
1013.669	1888.75
1013.885	1886.75
1014.102	1940.75
1014.318	1867.75
1014.535	1878.75
1014.751	1896.75
1014.968	1886.75
1015.184	1926.75
1015.401	1823.75
1015.617	1834.75
1015.833	1785.75
1016.049	1784.75
1016.266	1759.75
1016.482	1774.75
1016.698	1703.75
1016.914	1743.75
1017.13	1687.75
1017.346	1699.75
1017.562	1744.75
1017.778	1685.75
1017.993	1637.75
1018.209	1670.75
1018.425	1638.75
1018.641	1646.75
1018.856	1594.75
1019.072	1644.75
1019.288	1693.75
1019.503	1613.75
1019.719	1539.75
1019.934	1575.75
1020.149	1625.75
1020.365	1570.75
1020.58	1509.75
1020.795	1537.75
1021.011	1458.75
1021.226	1464.75
1021.441	1459.75
1021.656	1376.75
1021.871	1331.75
1022.086	1356.75
1022.301	1302.75
1022.516	1306.75
1022.731	1372.75
1022.946	1259.75
1023.16	1256.75
1023.375	1191.75
1023.59	1190.75
1023.804	1138.75
1024.019	1260.75
1024.234	1102.75
1024.448	1141.75
1024.663	1054.75
1024.877	1077.75
1025.092	1110.75
1025.306	1096.75
1025.52	1009.75
1025.734	1068.75
1025.949	1010.75
1026.163	983.75
1026.377	898.75
1026.591	970.75
1026.805	869.75
1027.019	866.75
1027.233	844.75
1027.447	785.75
1027.661	866.75
1027.875	826.75
1028.088	808.75
1028.302	736.75
1028.516	747.75
1028.73	735.75
1028.943	737.75
1029.157	696.75
1029.37	646.75
1029.584	-3.25
1029.797	0.75
1030.011	-0.25
1030.224	-0.25
