Data from QEP037381__219__10-51-14-544.txt Node

Date: Wed Dec 21 10:51:14 EST 2022
User: dcclab
Spectrometer: QEP03738
Trigger mode: 4
Integration Time (sec): 1.000000E1
Scans to average: 1
Electric dark correction enabled: true
Nonlinearity correction enabled: false
Boxcar width: 0
XAxis mode: Wavelengths
Number of Pixels in Spectrum: 1044
>>>>>Begin Spectral Data<<<<<
784.041	15.88
784.3	-0.12
784.558	-1.12
784.817	-5.12
785.075	107229.88
785.334	18663.88
785.592	8710.88
785.851	6005.88
786.109	4493.88
786.368	3494.88
786.626	2794.88
786.884	2333.88
787.143	1941.88
787.401	1598.88
787.659	1453.88
787.917	1229.88
788.175	1127.88
788.433	982.88
788.691	904.88
788.949	822.88
789.207	758.88
789.465	676.88
789.723	665.88
789.98	579.88
790.238	641.88
790.496	594.88
790.753	561.88
791.011	595.88
791.268	535.88
791.526	518.88
791.783	555.88
792.041	514.88
792.298	426.88
792.556	499.88
792.813	475.88
793.07	452.88
793.327	436.88
793.584	515.88
793.841	442.88
794.099	469.88
794.356	521.88
794.613	415.88
794.869	454.88
795.126	414.88
795.383	406.88
795.64	424.88
795.897	363.88
796.153	421.88
796.41	416.88
796.667	400.88
796.923	401.88
797.18	410.88
797.436	431.88
797.693	387.88
797.949	441.88
798.206	470.88
798.462	388.88
798.718	438.88
798.974	409.88
799.231	453.88
799.487	450.88
799.743	445.88
799.999	466.88
800.255	469.88
800.511	454.88
800.767	482.88
801.023	460.88
801.279	491.88
801.534	521.88
801.79	538.88
802.046	556.88
802.302	666.88
802.557	702.88
802.813	849.88
803.068	973.88
803.324	1352.88
803.579	1758.88
803.835	2379.88
804.09	3247.88
804.345	4253.88
804.601	5382.88
804.856	6514.88
805.111	7569.88
805.366	8340.88
805.621	8935.88
805.876	9303.88
806.131	9531.88
806.386	9741.88
806.641	9900.88
806.896	10107.88
807.151	10274.88
807.406	10332.88
807.661	10548.88
807.915	10762.88
808.17	10919.88
808.425	11038.88
808.679	11088.88
808.934	11236.88
809.188	11273.88
809.443	11385.88
809.697	11600.88
809.951	11585.88
810.206	11692.88
810.46	11815.88
810.714	11887.88
810.968	12069.88
811.223	12083.88
811.477	12169.88
811.731	12216.88
811.985	12337.88
812.239	12358.88
812.493	12465.88
812.747	12441.88
813	12494.88
813.254	12548.88
813.508	12712.88
813.762	12605.88
814.015	12748.88
814.269	12787.88
814.522	12936.88
814.776	13112.88
815.03	13202.88
815.283	13437.88
815.536	13598.88
815.79	13831.88
816.043	13967.88
816.296	14203.88
816.55	14426.88
816.803	14543.88
817.056	14751.88
817.309	14888.88
817.562	15012.88
817.815	15142.88
818.068	15205.88
818.321	15348.88
818.574	15555.88
818.827	15736.88
819.079	15916.88
819.332	16271.88
819.585	16346.88
819.838	16496.88
820.09	16673.88
820.343	16774.88
820.595	16740.88
820.848	16963.88
821.1	16982.88
821.353	16954.88
821.605	16943.88
821.857	17012.88
822.11	16880.88
822.362	16847.88
822.614	16763.88
822.866	16947.88
823.118	16813.88
823.37	16991.88
823.622	16920.88
823.874	17005.88
824.126	17159.88
824.378	17056.88
824.63	17100.88
824.882	17147.88
825.134	17121.88
825.385	17081.88
825.637	16945.88
825.888	16938.88
826.14	16824.88
826.392	16820.88
826.643	16745.88
826.895	16754.88
827.146	16536.88
827.397	16707.88
827.649	16580.88
827.9	16521.88
828.151	16572.88
828.402	16656.88
828.653	16629.88
828.905	16726.88
829.156	16743.88
829.407	16754.88
829.658	16712.88
829.909	16782.88
830.159	16809.88
830.41	16604.88
830.661	16512.88
830.912	16448.88
831.162	16377.88
831.413	16369.88
831.664	16389.88
831.914	16457.88
832.165	16358.88
832.415	16307.88
832.666	16410.88
832.916	16361.88
833.167	16296.88
833.417	16336.88
833.667	16241.88
833.917	16224.88
834.168	16186.88
834.418	16122.88
834.668	16137.88
834.918	15995.88
835.168	16025.88
835.418	15870.88
835.668	15876.88
835.918	15855.88
836.167	15799.88
836.417	15706.88
836.667	15688.88
836.917	15649.88
837.166	15672.88
837.416	15665.88
837.666	15731.88
837.915	15569.88
838.165	15630.88
838.414	15501.88
838.663	15436.88
838.913	15500.88
839.162	15432.88
839.411	15467.88
839.661	15328.88
839.91	15435.88
840.159	15314.88
840.408	15337.88
840.657	15469.88
840.906	15379.88
841.155	15375.88
841.404	15304.88
841.653	15312.88
841.902	15279.88
842.15	15428.88
842.399	15388.88
842.648	15347.88
842.897	15284.88
843.145	15173.88
843.394	15055.88
843.642	15107.88
843.891	14979.88
844.139	14840.88
844.388	14763.88
844.636	14678.88
844.884	14684.88
845.133	14699.88
845.381	14696.88
845.629	14710.88
845.877	14694.88
846.125	14689.88
846.373	14564.88
846.621	14531.88
846.869	14530.88
847.117	14410.88
847.365	14358.88
847.613	14348.88
847.861	14214.88
848.108	14251.88
848.356	14238.88
848.604	14177.88
848.851	14103.88
849.099	14144.88
849.346	14208.88
849.594	14253.88
849.841	14469.88
850.089	14365.88
850.336	14450.88
850.583	14525.88
850.831	14363.88
851.078	14216.88
851.325	14220.88
851.572	14270.88
851.819	14110.88
852.066	13823.88
852.313	13589.88
852.56	13606.88
852.807	13496.88
853.054	13394.88
853.301	13543.88
853.548	13479.88
853.794	13518.88
854.041	13563.88
854.288	13692.88
854.534	13740.88
854.781	13850.88
855.028	13631.88
855.274	13715.88
855.52	13552.88
855.767	13537.88
856.013	13643.88
856.26	13850.88
856.506	13477.88
856.752	13420.88
856.998	13430.88
857.244	13321.88
857.49	13552.88
857.736	13488.88
857.982	13517.88
858.228	13428.88
858.474	13325.88
858.72	13201.88
858.966	13078.88
859.212	12972.88
859.458	12851.88
859.703	12741.88
859.949	12587.88
860.195	12522.88
860.44	12439.88
860.686	12384.88
860.931	12468.88
861.177	12269.88
861.422	12294.88
861.667	12270.88
861.913	12195.88
862.158	12200.88
862.403	12321.88
862.648	12372.88
862.893	12359.88
863.138	12287.88
863.384	12284.88
863.629	12264.88
863.873	12265.88
864.118	12159.88
864.363	12092.88
864.608	12106.88
864.853	12089.88
865.098	11937.88
865.342	11947.88
865.587	11860.88
865.832	11860.88
866.076	11768.88
866.321	11732.88
866.565	11760.88
866.81	11700.88
867.054	11689.88
867.298	11690.88
867.543	11593.88
867.787	11630.88
868.031	11609.88
868.275	11583.88
868.519	11568.88
868.764	11557.88
869.008	11489.88
869.252	11438.88
869.496	11437.88
869.739	11423.88
869.983	11413.88
870.227	11365.88
870.471	11432.88
870.715	11422.88
870.958	11443.88
871.202	11464.88
871.446	11497.88
871.689	11450.88
871.933	11496.88
872.176	11471.88
872.42	11430.88
872.663	11479.88
872.906	11415.88
873.15	11399.88
873.393	11368.88
873.636	11348.88
873.879	11240.88
874.122	11191.88
874.366	10982.88
874.609	10896.88
874.852	10791.88
875.095	10714.88
875.337	10694.88
875.58	10598.88
875.823	10546.88
876.066	10551.88
876.309	10531.88
876.551	10448.88
876.794	10316.88
877.037	10436.88
877.279	10368.88
877.522	10326.88
877.764	10327.88
878.007	10256.88
878.249	10348.88
878.491	10299.88
878.734	10320.88
878.976	10285.88
879.218	10157.88
879.46	10139.88
879.702	10039.88
879.945	9983.88
880.187	9795.88
880.429	9856.88
880.671	9739.88
880.912	9672.88
881.154	9636.88
881.396	9606.88
881.638	9718.88
881.88	9617.88
882.121	9594.88
882.363	9603.88
882.605	9644.88
882.846	9584.88
883.088	9652.88
883.329	9541.88
883.571	9533.88
883.812	9681.88
884.053	9801.88
884.295	10058.88
884.536	10201.88
884.777	10083.88
885.018	10014.88
885.259	10002.88
885.5	9886.88
885.742	10059.88
885.982	9898.88
886.223	9737.88
886.464	9660.88
886.705	9560.88
886.946	9513.88
887.187	9393.88
887.428	9272.88
887.668	9122.88
887.909	9008.88
888.15	8949.88
888.39	8907.88
888.631	8872.88
888.871	8746.88
889.111	8651.88
889.352	8599.88
889.592	8505.88
889.833	8521.88
890.073	8407.88
890.313	8462.88
890.553	8226.88
890.793	8239.88
891.033	8205.88
891.273	8157.88
891.513	8207.88
891.753	8163.88
891.993	8107.88
892.233	8115.88
892.473	8230.88
892.713	8165.88
892.952	8141.88
893.192	8169.88
893.432	8200.88
893.671	8145.88
893.911	8085.88
894.15	8000.88
894.39	7916.88
894.629	7917.88
894.869	7869.88
895.108	7866.88
895.347	7851.88
895.587	7798.88
895.826	7768.88
896.065	7690.88
896.304	7751.88
896.543	7732.88
896.782	7551.88
897.021	7681.88
897.26	7640.88
897.499	7670.88
897.738	7623.88
897.977	7558.88
898.216	7467.88
898.454	7393.88
898.693	7357.88
898.932	7328.88
899.17	7314.88
899.409	7356.88
899.647	7285.88
899.886	7267.88
900.124	7267.88
900.363	7228.88
900.601	7242.88
900.839	7286.88
901.078	7248.88
901.316	7336.88
901.554	7408.88
901.792	7419.88
902.03	7386.88
902.268	7429.88
902.506	7369.88
902.744	7350.88
902.982	7232.88
903.22	7150.88
903.458	7086.88
903.695	7002.88
903.933	6953.88
904.171	6732.88
904.409	6661.88
904.646	6671.88
904.884	6549.88
905.121	6467.88
905.359	6381.88
905.596	6360.88
905.833	6311.88
906.071	6304.88
906.308	6280.88
906.545	6221.88
906.783	6162.88
907.02	6208.88
907.257	6182.88
907.494	6174.88
907.731	6167.88
907.968	6138.88
908.205	6098.88
908.442	6049.88
908.679	6076.88
908.915	5981.88
909.152	6002.88
909.389	5846.88
909.626	5800.88
909.862	5809.88
910.099	5789.88
910.335	5771.88
910.572	5691.88
910.808	5752.88
911.045	5683.88
911.281	5672.88
911.518	5742.88
911.754	5606.88
911.99	5648.88
912.226	5560.88
912.463	5453.88
912.699	5496.88
912.935	5457.88
913.171	5406.88
913.407	5313.88
913.643	5357.88
913.879	5305.88
914.114	5212.88
914.35	5190.88
914.586	5167.88
914.822	5070.88
915.057	5138.88
915.293	5009.88
915.529	4964.88
915.764	5064.88
916	5036.88
916.235	4993.88
916.471	4980.88
916.706	4919.88
916.941	4944.88
917.177	4960.88
917.412	4919.88
917.647	4951.88
917.882	4888.88
918.117	4989.88
918.352	4845.88
918.588	4900.88
918.823	4834.88
919.057	4806.88
919.292	4671.88
919.527	4744.88
919.762	4640.88
919.997	4684.88
920.232	4572.88
920.466	4589.88
920.701	4417.88
920.935	4483.88
921.17	4453.88
921.405	4404.88
921.639	4407.88
921.873	4396.88
922.108	4425.88
922.342	4403.88
922.576	4316.88
922.811	4270.88
923.045	4367.88
923.279	4375.88
923.513	4248.88
923.747	4267.88
923.981	4252.88
924.215	4193.88
924.449	4207.88
924.683	4116.88
924.917	4080.88
925.151	4109.88
925.385	4120.88
925.618	4075.88
925.852	4058.88
926.086	4017.88
926.319	4029.88
926.553	4019.88
926.786	4025.88
927.02	4024.88
927.253	4057.88
927.486	4045.88
927.72	3984.88
927.953	4070.88
928.186	4011.88
928.42	4060.88
928.653	3911.88
928.886	3951.88
929.119	3913.88
929.352	3933.88
929.585	3926.88
929.818	3836.88
930.051	3877.88
930.284	3840.88
930.516	3718.88
930.749	3722.88
930.982	3766.88
931.215	3750.88
931.447	3669.88
931.68	3657.88
931.912	3656.88
932.145	3678.88
932.377	3653.88
932.61	3789.88
932.842	3596.88
933.074	3668.88
933.307	3671.88
933.539	3767.88
933.771	3708.88
934.003	3709.88
934.236	3752.88
934.468	3795.88
934.7	3766.88
934.932	3771.88
935.164	3691.88
935.395	3644.88
935.627	3671.88
935.859	3645.88
936.091	3558.88
936.323	3555.88
936.554	3636.88
936.786	3551.88
937.017	3473.88
937.249	3539.88
937.481	3444.88
937.712	3520.88
937.943	3559.88
938.175	3505.88
938.406	3534.88
938.637	3568.88
938.869	3441.88
939.1	3585.88
939.331	3526.88
939.562	3572.88
939.793	3648.88
940.024	3882.88
940.255	4341.88
940.486	4632.88
940.717	4604.88
940.948	4335.88
941.179	4008.88
941.409	3817.88
941.64	3583.88
941.871	3477.88
942.102	3396.88
942.332	3383.88
942.563	3380.88
942.793	3340.88
943.024	3298.88
943.254	3340.88
943.484	3388.88
943.715	3361.88
943.945	3304.88
944.175	3261.88
944.405	3248.88
944.636	3277.88
944.866	3309.88
945.096	3301.88
945.326	3224.88
945.556	3261.88
945.786	3295.88
946.016	3232.88
946.245	3166.88
946.475	3149.88
946.705	3156.88
946.935	3133.88
947.164	3140.88
947.394	3070.88
947.624	3116.88
947.853	3156.88
948.083	3136.88
948.312	3090.88
948.542	3049.88
948.771	3011.88
949	3022.88
949.23	3029.88
949.459	3033.88
949.688	3098.88
949.917	3047.88
950.146	3030.88
950.375	3089.88
950.604	3022.88
950.833	3103.88
951.062	2989.88
951.291	2970.88
951.52	2961.88
951.749	2980.88
951.978	2923.88
952.206	2935.88
952.435	2905.88
952.664	2994.88
952.892	2975.88
953.121	2929.88
953.349	2947.88
953.578	2935.88
953.806	2932.88
954.035	2868.88
954.263	2883.88
954.491	2816.88
954.719	2857.88
954.948	2843.88
955.176	2812.88
955.404	2723.88
955.632	2776.88
955.86	2794.88
956.088	2793.88
956.316	2817.88
956.544	2771.88
956.772	2758.88
956.999	2719.88
957.227	2808.88
957.455	2699.88
957.683	2686.88
957.91	2687.88
958.138	2647.88
958.365	2644.88
958.593	2669.88
958.82	2573.88
959.048	2695.88
959.275	2628.88
959.502	2621.88
959.73	2604.88
959.957	2616.88
960.184	2659.88
960.411	2591.88
960.638	2634.88
960.865	2581.88
961.092	2673.88
961.319	2508.88
961.546	2609.88
961.773	2610.88
962	2598.88
962.227	2617.88
962.454	2567.88
962.68	2560.88
962.907	2566.88
963.134	2546.88
963.36	2543.88
963.587	2573.88
963.813	2465.88
964.04	2535.88
964.266	2483.88
964.493	2524.88
964.719	2491.88
964.945	2526.88
965.171	2388.88
965.398	2433.88
965.624	2470.88
965.85	2381.88
966.076	2401.88
966.302	2401.88
966.528	2413.88
966.754	2417.88
966.98	2387.88
967.206	2378.88
967.431	2310.88
967.657	2382.88
967.883	2387.88
968.109	2376.88
968.334	2317.88
968.56	2297.88
968.785	2305.88
969.011	2262.88
969.236	2340.88
969.462	2264.88
969.687	2284.88
969.912	2323.88
970.138	2345.88
970.363	2250.88
970.588	2284.88
970.813	2256.88
971.038	2225.88
971.263	2277.88
971.488	2232.88
971.713	2255.88
971.938	2271.88
972.163	2179.88
972.388	2174.88
972.613	2181.88
972.838	2178.88
973.062	2183.88
973.287	2158.88
973.512	2122.88
973.736	2157.88
973.961	2161.88
974.185	2078.88
974.41	2116.88
974.634	2051.88
974.858	2053.88
975.083	2084.88
975.307	2104.88
975.531	2027.88
975.755	2009.88
975.98	1998.88
976.204	1964.88
976.428	1965.88
976.652	1958.88
976.876	1942.88
977.1	2001.88
977.324	1922.88
977.547	1998.88
977.771	1979.88
977.995	1944.88
978.219	1905.88
978.442	2020.88
978.666	1957.88
978.89	1935.88
979.113	1944.88
979.337	1936.88
979.56	1886.88
979.783	1950.88
980.007	1882.88
980.23	1911.88
980.453	1905.88
980.677	1891.88
980.9	1874.88
981.123	1820.88
981.346	1871.88
981.569	1896.88
981.792	1904.88
982.015	1853.88
982.238	1823.88
982.461	1860.88
982.684	1793.88
982.907	1769.88
983.129	1722.88
983.352	1833.88
983.575	1779.88
983.797	1797.88
984.02	1720.88
984.242	1769.88
984.465	1759.88
984.687	1767.88
984.91	1800.88
985.132	1775.88
985.354	1760.88
985.577	1762.88
985.799	1712.88
986.021	1686.88
986.243	1710.88
986.465	1733.88
986.687	1735.88
986.909	1768.88
987.131	1728.88
987.353	1679.88
987.575	1717.88
987.797	1678.88
988.019	1598.88
988.241	1680.88
988.462	1622.88
988.684	1716.88
988.906	1697.88
989.127	1774.88
989.349	1642.88
989.57	1678.88
989.792	1689.88
990.013	1687.88
990.234	1671.88
990.456	1715.88
990.677	1688.88
990.898	1625.88
991.119	1634.88
991.341	1663.88
991.562	1586.88
991.783	1656.88
992.004	1598.88
992.225	1553.88
992.446	1602.88
992.667	1529.88
992.887	1587.88
993.108	1506.88
993.329	1622.88
993.55	1566.88
993.77	1523.88
993.991	1503.88
994.212	1562.88
994.432	1513.88
994.653	1561.88
994.873	1528.88
995.093	1438.88
995.314	1516.88
995.534	1554.88
995.754	1531.88
995.975	1578.88
996.195	1471.88
996.415	1523.88
996.635	1485.88
996.855	1514.88
997.075	1473.88
997.295	1476.88
997.515	1442.88
997.735	1525.88
997.955	1477.88
998.174	1451.88
998.394	1440.88
998.614	1525.88
998.834	1426.88
999.053	1537.88
999.273	1482.88
999.492	1553.88
999.712	1474.88
999.931	1441.88
1000.151	1482.88
1000.37	1466.88
1000.589	1506.88
1000.809	1414.88
1001.028	1546.88
1001.247	1490.88
1001.466	1386.88
1001.685	1530.88
1001.904	1461.88
1002.123	1427.88
1002.342	1468.88
1002.561	1418.88
1002.78	1400.88
1002.999	1506.88
1003.218	1443.88
1003.436	1410.88
1003.655	1451.88
1003.874	1393.88
1004.092	1381.88
1004.311	1455.88
1004.53	1419.88
1004.748	1518.88
1004.966	1402.88
1005.185	1471.88
1005.403	1459.88
1005.622	1429.88
1005.84	1505.88
1006.058	1419.88
1006.276	1429.88
1006.494	1906.88
1006.712	1424.88
1006.931	1502.88
1007.149	1387.88
1007.367	1396.88
1007.584	1440.88
1007.802	1454.88
1008.02	1401.88
1008.238	1513.88
1008.456	1487.88
1008.673	1370.88
1008.891	1446.88
1009.109	1432.88
1009.326	1483.88
1009.544	1570.88
1009.761	1484.88
1009.979	1577.88
1010.196	1570.88
1010.413	1677.88
1010.631	1699.88
1010.848	1730.88
1011.065	1739.88
1011.282	1676.88
1011.5	1638.88
1011.717	1764.88
1011.934	1674.88
1012.151	1713.88
1012.368	1661.88
1012.585	1637.88
1012.801	1664.88
1013.018	1640.88
1013.235	1646.88
1013.452	1617.88
1013.669	1676.88
1013.885	1633.88
1014.102	1687.88
1014.318	1651.88
1014.535	1585.88
1014.751	1635.88
1014.968	1626.88
1015.184	1655.88
1015.401	1598.88
1015.617	1592.88
1015.833	1528.88
1016.049	1568.88
1016.266	1546.88
1016.482	1509.88
1016.698	1461.88
1016.914	1497.88
1017.13	1452.88
1017.346	1456.88
1017.562	1500.88
1017.778	1434.88
1017.993	1395.88
1018.209	1463.88
1018.425	1442.88
1018.641	1411.88
1018.856	1373.88
1019.072	1423.88
1019.288	1445.88
1019.503	1411.88
1019.719	1343.88
1019.934	1328.88
1020.149	1424.88
1020.365	1327.88
1020.58	1307.88
1020.795	1351.88
1021.011	1287.88
1021.226	1259.88
1021.441	1279.88
1021.656	1176.88
1021.871	1115.88
1022.086	1128.88
1022.301	1120.88
1022.516	1115.88
1022.731	1156.88
1022.946	1097.88
1023.16	1066.88
1023.375	1026.88
1023.59	1026.88
1023.804	984.88
1024.019	1112.88
1024.234	969.88
1024.448	996.88
1024.663	915.88
1024.877	956.88
1025.092	967.88
1025.306	956.88
1025.52	865.88
1025.734	968.88
1025.949	892.88
1026.163	835.88
1026.377	788.88
1026.591	848.88
1026.805	763.88
1027.019	766.88
1027.233	734.88
1027.447	675.88
1027.661	784.88
1027.875	724.88
1028.088	728.88
1028.302	656.88
1028.516	657.88
1028.73	640.88
1028.943	669.88
1029.157	604.88
1029.37	564.88
1029.584	-0.12
1029.797	-3.12
1030.011	-4.12
1030.224	-2.12
