Data from QEP037381__178__10-44-24-539.txt Node

Date: Wed Dec 21 10:44:24 EST 2022
User: dcclab
Spectrometer: QEP03738
Trigger mode: 4
Integration Time (sec): 1.000000E1
Scans to average: 1
Electric dark correction enabled: true
Nonlinearity correction enabled: false
Boxcar width: 0
XAxis mode: Wavelengths
Number of Pixels in Spectrum: 1044
>>>>>Begin Spectral Data<<<<<
784.041	13.62
784.3	2.62
784.558	-1.38
784.817	-4.38
785.075	116013.62
785.334	19855.62
785.592	9164.62
785.851	6280.62
786.109	4689.62
786.368	3664.62
786.626	2932.62
786.884	2406.62
787.143	2014.62
787.401	1693.62
787.659	1519.62
787.917	1295.62
788.175	1165.62
788.433	1036.62
788.691	931.62
788.949	846.62
789.207	807.62
789.465	710.62
789.723	678.62
789.98	632.62
790.238	658.62
790.496	615.62
790.753	587.62
791.011	649.62
791.268	571.62
791.526	546.62
791.783	580.62
792.041	555.62
792.298	470.62
792.556	528.62
792.813	508.62
793.07	478.62
793.327	457.62
793.584	552.62
793.841	479.62
794.099	503.62
794.356	543.62
794.613	447.62
794.869	478.62
795.126	437.62
795.383	434.62
795.64	449.62
795.897	407.62
796.153	469.62
796.41	438.62
796.667	433.62
796.923	450.62
797.18	426.62
797.436	471.62
797.693	443.62
797.949	480.62
798.206	527.62
798.462	432.62
798.718	496.62
798.974	476.62
799.231	500.62
799.487	510.62
799.743	511.62
799.999	527.62
800.255	536.62
800.511	523.62
800.767	581.62
801.023	555.62
801.279	607.62
801.534	641.62
801.79	705.62
802.046	761.62
802.302	898.62
802.557	1026.62
802.813	1294.62
803.068	1645.62
803.324	2287.62
803.579	3133.62
803.835	4360.62
804.09	6119.62
804.345	8039.62
804.601	10090.62
804.856	12209.62
805.111	14032.62
805.366	15414.62
805.621	16474.62
805.876	17228.62
806.131	17541.62
806.386	17853.62
806.641	18198.62
806.896	18522.62
807.151	18863.62
807.406	18961.62
807.661	19455.62
807.915	19655.62
808.17	20005.62
808.425	20165.62
808.679	20408.62
808.934	20590.62
809.188	20722.62
809.443	21059.62
809.697	21195.62
809.951	21323.62
810.206	21564.62
810.46	21823.62
810.714	21843.62
810.968	22114.62
811.223	22183.62
811.477	22450.62
811.731	22467.62
811.985	22611.62
812.239	22678.62
812.493	22800.62
812.747	23018.62
813	22952.62
813.254	23080.62
813.508	23280.62
813.762	23301.62
814.015	23314.62
814.269	23515.62
814.522	23671.62
814.776	23884.62
815.03	24319.62
815.283	24577.62
815.536	24992.62
815.79	25119.62
816.043	25597.62
816.296	25960.62
816.55	26204.62
816.803	26452.62
817.056	26883.62
817.309	27128.62
817.562	27324.62
817.815	27673.62
818.068	27746.62
818.321	28222.62
818.574	28396.62
818.827	28696.62
819.079	29116.62
819.332	29614.62
819.585	29874.62
819.838	30304.62
820.09	30461.62
820.343	30743.62
820.595	30674.62
820.848	30888.62
821.1	31166.62
821.353	31099.62
821.605	31097.62
821.857	30990.62
822.11	30793.62
822.362	30916.62
822.614	30696.62
822.866	30843.62
823.118	30703.62
823.37	30830.62
823.622	30843.62
823.874	31009.62
824.126	31192.62
824.378	31054.62
824.63	31114.62
824.882	31234.62
825.134	31025.62
825.385	31115.62
825.637	31167.62
825.888	30906.62
826.14	30830.62
826.392	30735.62
826.643	30527.62
826.895	30546.62
827.146	30352.62
827.397	30316.62
827.649	30360.62
827.9	30073.62
828.151	30288.62
828.402	30235.62
828.653	30318.62
828.905	30356.62
829.156	30560.62
829.407	30411.62
829.658	30475.62
829.909	30531.62
830.159	30372.62
830.41	30403.62
830.661	30087.62
830.912	29833.62
831.162	29784.62
831.413	29673.62
831.664	29594.62
831.914	29604.62
832.165	29543.62
832.415	29707.62
832.666	29612.62
832.916	29829.62
833.167	29522.62
833.417	29476.62
833.667	29493.62
833.917	29240.62
834.168	29273.62
834.418	29140.62
834.668	29061.62
834.918	28865.62
835.168	28689.62
835.418	28575.62
835.668	28468.62
835.918	28465.62
836.167	28519.62
836.417	28347.62
836.667	28258.62
836.917	28321.62
837.166	28187.62
837.416	28282.62
837.666	28219.62
837.915	28063.62
838.165	27946.62
838.414	27868.62
838.663	27816.62
838.913	27735.62
839.162	27679.62
839.411	27654.62
839.661	27610.62
839.91	27549.62
840.159	27461.62
840.408	27548.62
840.657	27402.62
840.906	27522.62
841.155	27532.62
841.404	27391.62
841.653	27361.62
841.902	27375.62
842.15	27383.62
842.399	27474.62
842.648	27397.62
842.897	27259.62
843.145	27190.62
843.394	27033.62
843.642	26745.62
843.891	26812.62
844.139	26615.62
844.388	26335.62
844.636	26283.62
844.884	26108.62
845.133	26110.62
845.381	26155.62
845.629	26112.62
845.877	26134.62
846.125	26027.62
846.373	25956.62
846.621	25802.62
846.869	25894.62
847.117	25747.62
847.365	25539.62
847.613	25434.62
847.861	25440.62
848.108	25377.62
848.356	25244.62
848.604	25183.62
848.851	25177.62
849.099	25241.62
849.346	25207.62
849.594	25480.62
849.841	25462.62
850.089	25565.62
850.336	25551.62
850.583	25573.62
850.831	25474.62
851.078	25317.62
851.325	25092.62
851.572	25064.62
851.819	24920.62
852.066	24503.62
852.313	24141.62
852.56	23892.62
852.807	23924.62
853.054	23777.62
853.301	23729.62
853.548	23694.62
853.794	23838.62
854.041	23930.62
854.288	24008.62
854.534	24175.62
854.781	24112.62
855.028	24145.62
855.274	24094.62
855.52	23849.62
855.767	23702.62
856.013	23775.62
856.26	23897.62
856.506	23555.62
856.752	23427.62
856.998	23537.62
857.244	23404.62
857.49	23541.62
857.736	23583.62
857.982	23624.62
858.228	23642.62
858.474	23290.62
858.72	23351.62
858.966	23028.62
859.212	22830.62
859.458	22572.62
859.703	22300.62
859.949	22230.62
860.195	21956.62
860.44	21835.62
860.686	21748.62
860.931	21760.62
861.177	21628.62
861.422	21613.62
861.667	21450.62
861.913	21508.62
862.158	21478.62
862.403	21574.62
862.648	21654.62
862.893	21681.62
863.138	21668.62
863.384	21498.62
863.629	21604.62
863.873	21496.62
864.118	21435.62
864.363	21358.62
864.608	21178.62
864.853	21106.62
865.098	21059.62
865.342	20931.62
865.587	20781.62
865.832	20775.62
866.076	20687.62
866.321	20690.62
866.565	20533.62
866.81	20289.62
867.054	20417.62
867.298	20282.62
867.543	20255.62
867.787	20308.62
868.031	20222.62
868.275	20126.62
868.519	20073.62
868.764	19969.62
869.008	19924.62
869.252	19945.62
869.496	19917.62
869.739	19829.62
869.983	19833.62
870.227	19778.62
870.471	19778.62
870.715	19823.62
870.958	19935.62
871.202	19929.62
871.446	19884.62
871.689	19868.62
871.933	19965.62
872.176	19785.62
872.42	19786.62
872.663	19659.62
872.906	19667.62
873.15	19565.62
873.393	19482.62
873.636	19529.62
873.879	19245.62
874.122	19013.62
874.366	18807.62
874.609	18743.62
874.852	18648.62
875.095	18570.62
875.337	18329.62
875.58	18282.62
875.823	18152.62
876.066	18249.62
876.309	18115.62
876.551	18014.62
876.794	17967.62
877.037	17902.62
877.279	17781.62
877.522	17853.62
877.764	17882.62
878.007	17790.62
878.249	17827.62
878.491	17714.62
878.734	17688.62
878.976	17705.62
879.218	17576.62
879.46	17517.62
879.702	17301.62
879.945	17132.62
880.187	17030.62
880.429	16918.62
880.671	16836.62
880.912	16817.62
881.154	16727.62
881.396	16558.62
881.638	16700.62
881.88	16713.62
882.121	16644.62
882.363	16606.62
882.605	16540.62
882.846	16499.62
883.088	16540.62
883.329	16386.62
883.571	16368.62
883.812	16537.62
884.053	16793.62
884.295	16973.62
884.536	17193.62
884.777	16972.62
885.018	16861.62
885.259	16747.62
885.5	16669.62
885.742	16922.62
885.982	16705.62
886.223	16464.62
886.464	16350.62
886.705	16281.62
886.946	16171.62
887.187	15871.62
887.428	15766.62
887.668	15616.62
887.909	15436.62
888.15	15263.62
888.39	15188.62
888.631	15196.62
888.871	14917.62
889.111	14846.62
889.352	14782.62
889.592	14593.62
889.833	14535.62
890.073	14411.62
890.313	14452.62
890.553	14175.62
890.793	14089.62
891.033	14041.62
891.273	14046.62
891.513	13965.62
891.753	13986.62
891.993	13877.62
892.233	13939.62
892.473	13970.62
892.713	13966.62
892.952	13976.62
893.192	14003.62
893.432	13919.62
893.671	13943.62
893.911	13921.62
894.15	13791.62
894.39	13553.62
894.629	13505.62
894.869	13489.62
895.108	13367.62
895.347	13295.62
895.587	13182.62
895.826	13154.62
896.065	13102.62
896.304	13148.62
896.543	13092.62
896.782	13060.62
897.021	13002.62
897.26	12977.62
897.499	12954.62
897.738	12807.62
897.977	12807.62
898.216	12665.62
898.454	12598.62
898.693	12420.62
898.932	12473.62
899.17	12272.62
899.409	12335.62
899.647	12241.62
899.886	12299.62
900.124	12312.62
900.363	12305.62
900.601	12314.62
900.839	12257.62
901.078	12292.62
901.316	12429.62
901.554	12383.62
901.792	12401.62
902.03	12405.62
902.268	12447.62
902.506	12385.62
902.744	12217.62
902.982	12172.62
903.22	11977.62
903.458	11919.62
903.695	11783.62
903.933	11612.62
904.171	11415.62
904.409	11304.62
904.646	11168.62
904.884	10988.62
905.121	10958.62
905.359	10855.62
905.596	10740.62
905.833	10633.62
906.071	10606.62
906.308	10589.62
906.545	10513.62
906.783	10498.62
907.02	10506.62
907.257	10445.62
907.494	10439.62
907.731	10415.62
907.968	10391.62
908.205	10270.62
908.442	10191.62
908.679	10175.62
908.915	10085.62
909.152	10046.62
909.389	9885.62
909.626	9817.62
909.862	9787.62
910.099	9686.62
910.335	9807.62
910.572	9606.62
910.808	9624.62
911.045	9572.62
911.281	9562.62
911.518	9569.62
911.754	9435.62
911.99	9440.62
912.226	9359.62
912.463	9194.62
912.699	9274.62
912.935	9198.62
913.171	9066.62
913.407	8984.62
913.643	8929.62
913.879	8843.62
914.114	8801.62
914.35	8638.62
914.586	8644.62
914.822	8565.62
915.057	8504.62
915.293	8380.62
915.529	8378.62
915.764	8454.62
916	8333.62
916.235	8382.62
916.471	8349.62
916.706	8216.62
916.941	8251.62
917.177	8206.62
917.412	8227.62
917.647	8228.62
917.882	8216.62
918.117	8211.62
918.352	8117.62
918.588	8155.62
918.823	8036.62
919.057	8022.62
919.292	7834.62
919.527	7837.62
919.762	7790.62
919.997	7772.62
920.232	7608.62
920.466	7642.62
920.701	7398.62
920.935	7443.62
921.17	7344.62
921.405	7323.62
921.639	7345.62
921.873	7237.62
922.108	7274.62
922.342	7262.62
922.576	7177.62
922.811	7161.62
923.045	7217.62
923.279	7165.62
923.513	7057.62
923.747	7093.62
923.981	6982.62
924.215	6911.62
924.449	6883.62
924.683	6848.62
924.917	6781.62
925.151	6747.62
925.385	6828.62
925.618	6724.62
925.852	6665.62
926.086	6653.62
926.319	6664.62
926.553	6717.62
926.786	6696.62
927.02	6653.62
927.253	6719.62
927.486	6682.62
927.72	6539.62
927.953	6651.62
928.186	6598.62
928.42	6569.62
928.653	6523.62
928.886	6461.62
929.119	6486.62
929.352	6462.62
929.585	6410.62
929.818	6324.62
930.051	6306.62
930.284	6233.62
930.516	6148.62
930.749	6093.62
930.982	6139.62
931.215	6125.62
931.447	6057.62
931.68	6015.62
931.912	5993.62
932.145	6088.62
932.377	6025.62
932.61	6137.62
932.842	5960.62
933.074	6017.62
933.307	5983.62
933.539	6026.62
933.771	6009.62
934.003	5948.62
934.236	5984.62
934.468	6066.62
934.7	5921.62
934.932	5962.62
935.164	5888.62
935.395	5893.62
935.627	5832.62
935.859	5859.62
936.091	5728.62
936.323	5785.62
936.554	5863.62
936.786	5771.62
937.017	5700.62
937.249	5762.62
937.481	5616.62
937.712	5713.62
937.943	5676.62
938.175	5625.62
938.406	5621.62
938.637	5709.62
938.869	5598.62
939.1	5664.62
939.331	5602.62
939.562	5627.62
939.793	5490.62
940.024	5570.62
940.255	5583.62
940.486	5466.62
940.717	5447.62
940.948	5467.62
941.179	5389.62
941.409	5363.62
941.64	5351.62
941.871	5381.62
942.102	5281.62
942.332	5381.62
942.563	5379.62
942.793	5389.62
943.024	5300.62
943.254	5341.62
943.484	5400.62
943.715	5432.62
943.945	5354.62
944.175	5234.62
944.405	5239.62
944.636	5238.62
944.866	5290.62
945.096	5294.62
945.326	5227.62
945.556	5223.62
945.786	5283.62
946.016	5128.62
946.245	5105.62
946.475	5096.62
946.705	5083.62
946.935	5061.62
947.164	5072.62
947.394	4976.62
947.624	4985.62
947.853	5019.62
948.083	4980.62
948.312	4907.62
948.542	4891.62
948.771	4844.62
949	4902.62
949.23	4856.62
949.459	4910.62
949.688	4938.62
949.917	4864.62
950.146	4850.62
950.375	4898.62
950.604	4827.62
950.833	4896.62
951.062	4868.62
951.291	4808.62
951.52	4765.62
951.749	4790.62
951.978	4695.62
952.206	4694.62
952.435	4731.62
952.664	4734.62
952.892	4754.62
953.121	4721.62
953.349	4726.62
953.578	4692.62
953.806	4598.62
954.035	4614.62
954.263	4605.62
954.491	4530.62
954.719	4620.62
954.948	4553.62
955.176	4504.62
955.404	4416.62
955.632	4478.62
955.86	4482.62
956.088	4457.62
956.316	4391.62
956.544	4423.62
956.772	4371.62
956.999	4392.62
957.227	4380.62
957.455	4258.62
957.683	4326.62
957.91	4242.62
958.138	4186.62
958.365	4194.62
958.593	4207.62
958.82	4136.62
959.048	4221.62
959.275	4153.62
959.502	4136.62
959.73	4121.62
959.957	4117.62
960.184	4187.62
960.411	4101.62
960.638	4170.62
960.865	4074.62
961.092	4143.62
961.319	4029.62
961.546	4106.62
961.773	4135.62
962	4083.62
962.227	4112.62
962.454	4048.62
962.68	4023.62
962.907	4060.62
963.134	3974.62
963.36	3968.62
963.587	3974.62
963.813	3912.62
964.04	3924.62
964.266	3825.62
964.493	3932.62
964.719	3867.62
964.945	3868.62
965.171	3743.62
965.398	3770.62
965.624	3844.62
965.85	3714.62
966.076	3699.62
966.302	3755.62
966.528	3714.62
966.754	3727.62
966.98	3745.62
967.206	3709.62
967.431	3635.62
967.657	3684.62
967.883	3692.62
968.109	3632.62
968.334	3599.62
968.56	3565.62
968.785	3614.62
969.011	3540.62
969.236	3572.62
969.462	3494.62
969.687	3567.62
969.912	3571.62
970.138	3606.62
970.363	3437.62
970.588	3482.62
970.813	3483.62
971.038	3440.62
971.263	3509.62
971.488	3406.62
971.713	3493.62
971.938	3457.62
972.163	3336.62
972.388	3387.62
972.613	3319.62
972.838	3364.62
973.062	3348.62
973.287	3344.62
973.512	3266.62
973.736	3282.62
973.961	3309.62
974.185	3225.62
974.41	3220.62
974.634	3134.62
974.858	3142.62
975.083	3180.62
975.307	3209.62
975.531	3127.62
975.755	3074.62
975.98	3091.62
976.204	3008.62
976.428	2989.62
976.652	3021.62
976.876	2989.62
977.1	2988.62
977.324	2958.62
977.547	3017.62
977.771	2980.62
977.995	2991.62
978.219	2914.62
978.442	3051.62
978.666	2967.62
978.89	2916.62
979.113	2921.62
979.337	2904.62
979.56	2867.62
979.783	2967.62
980.007	2863.62
980.23	2881.62
980.453	2838.62
980.677	2872.62
980.9	2853.62
981.123	2716.62
981.346	2873.62
981.569	2820.62
981.792	2802.62
982.015	2780.62
982.238	2752.62
982.461	2764.62
982.684	2766.62
982.907	2686.62
983.129	2653.62
983.352	2721.62
983.575	2653.62
983.797	2681.62
984.02	2634.62
984.242	2629.62
984.465	2602.62
984.687	2655.62
984.91	2656.62
985.132	2614.62
985.354	2640.62
985.577	2572.62
985.799	2565.62
986.021	2504.62
986.243	2480.62
986.465	2500.62
986.687	2557.62
986.909	2582.62
987.131	2497.62
987.353	2531.62
987.575	2532.62
987.797	2478.62
988.019	2407.62
988.241	2455.62
988.462	2458.62
988.684	2508.62
988.906	2479.62
989.127	2517.62
989.349	2391.62
989.57	2432.62
989.792	2404.62
990.013	2474.62
990.234	2474.62
990.456	2453.62
990.677	2444.62
990.898	2397.62
991.119	2361.62
991.341	2395.62
991.562	2321.62
991.783	2387.62
992.004	2287.62
992.225	2275.62
992.446	2308.62
992.667	2229.62
992.887	2322.62
993.108	2190.62
993.329	2316.62
993.55	2257.62
993.77	2181.62
993.991	2206.62
994.212	2207.62
994.432	2196.62
994.653	2216.62
994.873	2183.62
995.093	2102.62
995.314	2121.62
995.534	2201.62
995.754	2194.62
995.975	2222.62
996.195	2107.62
996.415	2165.62
996.635	2141.62
996.855	2143.62
997.075	2103.62
997.295	2066.62
997.515	2065.62
997.735	2120.62
997.955	2099.62
998.174	2096.62
998.394	2074.62
998.614	2098.62
998.834	2036.62
999.053	2125.62
999.273	2081.62
999.492	2138.62
999.712	2093.62
999.931	2015.62
1000.151	2025.62
1000.37	2047.62
1000.589	2070.62
1000.809	1981.62
1001.028	2087.62
1001.247	2024.62
1001.466	1936.62
1001.685	2060.62
1001.904	1990.62
1002.123	1966.62
1002.342	1995.62
1002.561	1926.62
1002.78	1968.62
1002.999	2016.62
1003.218	1962.62
1003.436	1936.62
1003.655	1933.62
1003.874	1911.62
1004.092	1879.62
1004.311	1960.62
1004.53	1888.62
1004.748	1978.62
1004.966	1886.62
1005.185	1901.62
1005.403	1922.62
1005.622	1903.62
1005.84	1980.62
1006.058	1874.62
1006.276	1882.62
1006.494	2372.62
1006.712	1882.62
1006.931	1945.62
1007.149	1811.62
1007.367	1846.62
1007.584	1866.62
1007.802	1934.62
1008.02	1858.62
1008.238	1973.62
1008.456	1965.62
1008.673	1819.62
1008.891	1942.62
1009.109	1887.62
1009.326	1929.62
1009.544	1990.62
1009.761	1924.62
1009.979	2020.62
1010.196	2019.62
1010.413	2139.62
1010.631	2195.62
1010.848	2216.62
1011.065	2220.62
1011.282	2177.62
1011.5	2121.62
1011.717	2219.62
1011.934	2139.62
1012.151	2150.62
1012.368	2129.62
1012.585	2105.62
1012.801	2153.62
1013.018	2115.62
1013.235	2079.62
1013.452	2120.62
1013.669	2124.62
1013.885	2101.62
1014.102	2114.62
1014.318	2124.62
1014.535	2084.62
1014.751	2101.62
1014.968	2082.62
1015.184	2107.62
1015.401	1991.62
1015.617	2021.62
1015.833	1968.62
1016.049	1983.62
1016.266	1911.62
1016.482	1939.62
1016.698	1877.62
1016.914	1890.62
1017.13	1845.62
1017.346	1828.62
1017.562	1879.62
1017.778	1835.62
1017.993	1788.62
1018.209	1808.62
1018.425	1809.62
1018.641	1800.62
1018.856	1740.62
1019.072	1811.62
1019.288	1830.62
1019.503	1787.62
1019.719	1691.62
1019.934	1690.62
1020.149	1769.62
1020.365	1712.62
1020.58	1647.62
1020.795	1690.62
1021.011	1628.62
1021.226	1608.62
1021.441	1642.62
1021.656	1527.62
1021.871	1452.62
1022.086	1462.62
1022.301	1444.62
1022.516	1437.62
1022.731	1488.62
1022.946	1373.62
1023.16	1361.62
1023.375	1355.62
1023.59	1327.62
1023.804	1271.62
1024.019	1369.62
1024.234	1218.62
1024.448	1256.62
1024.663	1193.62
1024.877	1179.62
1025.092	1195.62
1025.306	1194.62
1025.52	1108.62
1025.734	1189.62
1025.949	1081.62
1026.163	1046.62
1026.377	1002.62
1026.591	1083.62
1026.805	970.62
1027.019	964.62
1027.233	921.62
1027.447	860.62
1027.661	979.62
1027.875	904.62
1028.088	929.62
1028.302	851.62
1028.516	826.62
1028.73	809.62
1028.943	802.62
1029.157	751.62
1029.37	707.62
1029.584	-2.38
1029.797	-3.38
1030.011	-5.38
1030.224	0.62
