Data from QEP037381__185__10-45-34-539.txt Node

Date: Wed Dec 21 10:45:34 EST 2022
User: dcclab
Spectrometer: QEP03738
Trigger mode: 4
Integration Time (sec): 1.000000E1
Scans to average: 1
Electric dark correction enabled: true
Nonlinearity correction enabled: false
Boxcar width: 0
XAxis mode: Wavelengths
Number of Pixels in Spectrum: 1044
>>>>>Begin Spectral Data<<<<<
784.041	12.38
784.3	-1.62
784.558	0.38
784.817	-4.62
785.075	111013.38
785.334	19190.38
785.592	9006.38
785.851	6194.38
786.109	4668.38
786.368	3643.38
786.626	2931.38
786.884	2432.38
787.143	2038.38
787.401	1687.38
787.659	1549.38
787.917	1293.38
788.175	1184.38
788.433	1047.38
788.691	910.38
788.949	850.38
789.207	804.38
789.465	685.38
789.723	669.38
789.98	627.38
790.238	636.38
790.496	602.38
790.753	576.38
791.011	614.38
791.268	557.38
791.526	542.38
791.783	552.38
792.041	529.38
792.298	442.38
792.556	496.38
792.813	485.38
793.07	459.38
793.327	468.38
793.584	534.38
793.841	458.38
794.099	463.38
794.356	532.38
794.613	430.38
794.869	472.38
795.126	437.38
795.383	411.38
795.64	446.38
795.897	392.38
796.153	420.38
796.41	433.38
796.667	419.38
796.923	424.38
797.18	418.38
797.436	437.38
797.693	411.38
797.949	462.38
798.206	481.38
798.462	410.38
798.718	473.38
798.974	413.38
799.231	475.38
799.487	469.38
799.743	473.38
799.999	492.38
800.255	483.38
800.511	457.38
800.767	498.38
801.023	497.38
801.279	545.38
801.534	553.38
801.79	599.38
802.046	618.38
802.302	736.38
802.557	823.38
802.813	1007.38
803.068	1207.38
803.324	1637.38
803.579	2186.38
803.835	3010.38
804.09	4144.38
804.345	5442.38
804.601	6721.38
804.856	8075.38
805.111	9287.38
805.366	10120.38
805.621	10808.38
805.876	11246.38
806.131	11497.38
806.386	11770.38
806.641	11921.38
806.896	12052.38
807.151	12377.38
807.406	12456.38
807.661	12740.38
807.915	12977.38
808.17	13156.38
808.425	13269.38
808.679	13361.38
808.934	13553.38
809.188	13608.38
809.443	13694.38
809.697	13909.38
809.951	13949.38
810.206	14149.38
810.46	14260.38
810.714	14280.38
810.968	14550.38
811.223	14577.38
811.477	14644.38
811.731	14821.38
811.985	14825.38
812.239	14889.38
812.493	15029.38
812.747	14963.38
813	15128.38
813.254	15098.38
813.508	15144.38
813.762	15273.38
814.015	15336.38
814.269	15410.38
814.522	15615.38
814.776	15758.38
815.03	15887.38
815.283	16141.38
815.536	16441.38
815.79	16663.38
816.043	16874.38
816.296	17074.38
816.55	17203.38
816.803	17425.38
817.056	17751.38
817.309	17854.38
817.562	18061.38
817.815	18256.38
818.068	18356.38
818.321	18533.38
818.574	18604.38
818.827	18908.38
819.079	19065.38
819.332	19508.38
819.585	19696.38
819.838	20075.38
820.09	19952.38
820.343	20260.38
820.595	20272.38
820.848	20392.38
821.1	20536.38
821.353	20492.38
821.605	20417.38
821.857	20519.38
822.11	20343.38
822.362	20289.38
822.614	20200.38
822.866	20389.38
823.118	20250.38
823.37	20414.38
823.622	20407.38
823.874	20488.38
824.126	20551.38
824.378	20568.38
824.63	20585.38
824.882	20673.38
825.134	20586.38
825.385	20588.38
825.637	20595.38
825.888	20483.38
826.14	20417.38
826.392	20379.38
826.643	20219.38
826.895	20234.38
827.146	20175.38
827.397	20111.38
827.649	20158.38
827.9	20036.38
828.151	19967.38
828.402	20200.38
828.653	20252.38
828.905	20137.38
829.156	20295.38
829.407	20163.38
829.658	20169.38
829.909	20262.38
830.159	20286.38
830.41	20172.38
830.661	19933.38
830.912	19924.38
831.162	19788.38
831.413	19788.38
831.664	19814.38
831.914	19683.38
832.165	19723.38
832.415	19787.38
832.666	19753.38
832.916	19695.38
833.167	19742.38
833.417	19679.38
833.667	19728.38
833.917	19534.38
834.168	19501.38
834.418	19572.38
834.668	19511.38
834.918	19216.38
835.168	19194.38
835.418	19154.38
835.668	19107.38
835.918	19204.38
836.167	19090.38
836.417	19058.38
836.667	19005.38
836.917	18940.38
837.166	18912.38
837.416	18897.38
837.666	18959.38
837.915	18874.38
838.165	18914.38
838.414	18713.38
838.663	18582.38
838.913	18699.38
839.162	18638.38
839.411	18693.38
839.661	18546.38
839.91	18528.38
840.159	18322.38
840.408	18427.38
840.657	18431.38
840.906	18547.38
841.155	18515.38
841.404	18482.38
841.653	18422.38
841.902	18450.38
842.15	18592.38
842.399	18498.38
842.648	18505.38
842.897	18421.38
843.145	18354.38
843.394	18150.38
843.642	18016.38
843.891	17945.38
844.139	17903.38
844.388	17789.38
844.636	17689.38
844.884	17774.38
845.133	17707.38
845.381	17585.38
845.629	17575.38
845.877	17636.38
846.125	17567.38
846.373	17610.38
846.621	17505.38
846.869	17480.38
847.117	17420.38
847.365	17310.38
847.613	17292.38
847.861	17224.38
848.108	17240.38
848.356	17151.38
848.604	17099.38
848.851	17153.38
849.099	17208.38
849.346	17164.38
849.594	17269.38
849.841	17337.38
850.089	17351.38
850.336	17332.38
850.583	17416.38
850.831	17320.38
851.078	17166.38
851.325	17042.38
851.572	17086.38
851.819	16952.38
852.066	16693.38
852.313	16376.38
852.56	16341.38
852.807	16218.38
853.054	16202.38
853.301	16229.38
853.548	16248.38
853.794	16307.38
854.041	16300.38
854.288	16366.38
854.534	16593.38
854.781	16508.38
855.028	16405.38
855.274	16445.38
855.52	16343.38
855.767	16270.38
856.013	16399.38
856.26	16573.38
856.506	16125.38
856.752	16084.38
856.998	16082.38
857.244	16100.38
857.49	16192.38
857.736	16218.38
857.982	16189.38
858.228	16165.38
858.474	15920.38
858.72	15842.38
858.966	15779.38
859.212	15687.38
859.458	15512.38
859.703	15393.38
859.949	15172.38
860.195	15141.38
860.44	15051.38
860.686	14990.38
860.931	14998.38
861.177	14834.38
861.422	14771.38
861.667	14692.38
861.913	14758.38
862.158	14820.38
862.403	14884.38
862.648	14949.38
862.893	14813.38
863.138	14793.38
863.384	14774.38
863.629	14772.38
863.873	14745.38
864.118	14697.38
864.363	14647.38
864.608	14522.38
864.853	14552.38
865.098	14439.38
865.342	14469.38
865.587	14283.38
865.832	14252.38
866.076	14323.38
866.321	14240.38
866.565	14235.38
866.81	14079.38
867.054	14019.38
867.298	13993.38
867.543	14007.38
867.787	13960.38
868.031	13965.38
868.275	13946.38
868.519	13893.38
868.764	13893.38
869.008	13858.38
869.252	13810.38
869.496	13694.38
869.739	13724.38
869.983	13750.38
870.227	13788.38
870.471	13718.38
870.715	13791.38
870.958	13744.38
871.202	13733.38
871.446	13807.38
871.689	13911.38
871.933	13800.38
872.176	13736.38
872.42	13709.38
872.663	13689.38
872.906	13708.38
873.15	13595.38
873.393	13635.38
873.636	13546.38
873.879	13445.38
874.122	13291.38
874.366	13094.38
874.609	13040.38
874.852	12952.38
875.095	12868.38
875.337	12821.38
875.58	12641.38
875.823	12732.38
876.066	12761.38
876.309	12625.38
876.551	12499.38
876.794	12468.38
877.037	12529.38
877.279	12386.38
877.522	12415.38
877.764	12435.38
878.007	12389.38
878.249	12394.38
878.491	12408.38
878.734	12402.38
878.976	12375.38
879.218	12199.38
879.46	12160.38
879.702	12110.38
879.945	11965.38
880.187	11887.38
880.429	11822.38
880.671	11705.38
880.912	11717.38
881.154	11675.38
881.396	11558.38
881.638	11660.38
881.88	11610.38
882.121	11551.38
882.363	11553.38
882.605	11640.38
882.846	11573.38
883.088	11593.38
883.329	11508.38
883.571	11439.38
883.812	11625.38
884.053	11727.38
884.295	11970.38
884.536	12064.38
884.777	11997.38
885.018	11946.38
885.259	11945.38
885.5	11792.38
885.742	12084.38
885.982	11779.38
886.223	11641.38
886.464	11613.38
886.705	11441.38
886.946	11339.38
887.187	11154.38
887.428	11121.38
887.668	10953.38
887.909	10857.38
888.15	10727.38
888.39	10639.38
888.631	10664.38
888.871	10508.38
889.111	10454.38
889.352	10390.38
889.592	10248.38
889.833	10209.38
890.073	10111.38
890.313	10120.38
890.553	9927.38
890.793	9973.38
891.033	9859.38
891.273	9860.38
891.513	9834.38
891.753	9794.38
891.993	9770.38
892.233	9875.38
892.473	9856.38
892.713	9805.38
892.952	9799.38
893.192	9871.38
893.432	9819.38
893.671	9835.38
893.911	9719.38
894.15	9698.38
894.39	9535.38
894.629	9500.38
894.869	9549.38
895.108	9419.38
895.347	9404.38
895.587	9361.38
895.826	9296.38
896.065	9172.38
896.304	9334.38
896.543	9298.38
896.782	9214.38
897.021	9237.38
897.26	9148.38
897.499	9170.38
897.738	9141.38
897.977	9033.38
898.216	8975.38
898.454	8897.38
898.693	8802.38
898.932	8785.38
899.17	8797.38
899.409	8779.38
899.647	8741.38
899.886	8684.38
900.124	8727.38
900.363	8688.38
900.601	8770.38
900.839	8737.38
901.078	8776.38
901.316	8746.38
901.554	8800.38
901.792	8880.38
902.03	8813.38
902.268	8838.38
902.506	8794.38
902.744	8692.38
902.982	8675.38
903.22	8463.38
903.458	8494.38
903.695	8372.38
903.933	8247.38
904.171	8138.38
904.409	7997.38
904.646	7962.38
904.884	7834.38
905.121	7841.38
905.359	7627.38
905.596	7683.38
905.833	7561.38
906.071	7573.38
906.308	7554.38
906.545	7530.38
906.783	7497.38
907.02	7457.38
907.257	7369.38
907.494	7452.38
907.731	7377.38
907.968	7443.38
908.205	7347.38
908.442	7309.38
908.679	7232.38
908.915	7212.38
909.152	7114.38
909.389	7018.38
909.626	7039.38
909.862	6929.38
910.099	6989.38
910.335	6988.38
910.572	6841.38
910.808	6909.38
911.045	6844.38
911.281	6822.38
911.518	6818.38
911.754	6742.38
911.99	6766.38
912.226	6676.38
912.463	6612.38
912.699	6563.38
912.935	6581.38
913.171	6504.38
913.407	6452.38
913.643	6420.38
913.879	6319.38
914.114	6257.38
914.35	6219.38
914.586	6135.38
914.822	6106.38
915.057	6129.38
915.293	5980.38
915.529	5987.38
915.764	6027.38
916	6042.38
916.235	6013.38
916.471	5975.38
916.706	5936.38
916.941	5919.38
917.177	5889.38
917.412	5986.38
917.647	5936.38
917.882	5834.38
918.117	5937.38
918.352	5928.38
918.588	5896.38
918.823	5796.38
919.057	5705.38
919.292	5655.38
919.527	5686.38
919.762	5538.38
919.997	5538.38
920.232	5472.38
920.466	5493.38
920.701	5332.38
920.935	5391.38
921.17	5340.38
921.405	5277.38
921.639	5294.38
921.873	5238.38
922.108	5290.38
922.342	5235.38
922.576	5186.38
922.811	5125.38
923.045	5253.38
923.279	5164.38
923.513	5077.38
923.747	5130.38
923.981	5055.38
924.215	5010.38
924.449	4998.38
924.683	4949.38
924.917	4918.38
925.151	4892.38
925.385	4968.38
925.618	4933.38
925.852	4856.38
926.086	4795.38
926.319	4860.38
926.553	4857.38
926.786	4868.38
927.02	4820.38
927.253	4835.38
927.486	4887.38
927.72	4749.38
927.953	4816.38
928.186	4811.38
928.42	4791.38
928.653	4749.38
928.886	4672.38
929.119	4711.38
929.352	4691.38
929.585	4690.38
929.818	4582.38
930.051	4592.38
930.284	4569.38
930.516	4515.38
930.749	4438.38
930.982	4512.38
931.215	4475.38
931.447	4410.38
931.68	4416.38
931.912	4330.38
932.145	4361.38
932.377	4400.38
932.61	4495.38
932.842	4319.38
933.074	4408.38
933.307	4309.38
933.539	4443.38
933.771	4409.38
934.003	4331.38
934.236	4434.38
934.468	4392.38
934.7	4329.38
934.932	4352.38
935.164	4293.38
935.395	4276.38
935.627	4327.38
935.859	4289.38
936.091	4215.38
936.323	4249.38
936.554	4297.38
936.786	4227.38
937.017	4149.38
937.249	4176.38
937.481	4095.38
937.712	4195.38
937.943	4153.38
938.175	4157.38
938.406	4116.38
938.637	4152.38
938.869	4089.38
939.1	4143.38
939.331	4080.38
939.562	4094.38
939.793	4087.38
940.024	4044.38
940.255	4081.38
940.486	4036.38
940.717	4004.38
940.948	3995.38
941.179	3938.38
941.409	3933.38
941.64	3930.38
941.871	3959.38
942.102	3923.38
942.332	3927.38
942.563	3963.38
942.793	3922.38
943.024	3872.38
943.254	3926.38
943.484	3938.38
943.715	3978.38
943.945	3953.38
944.175	3872.38
944.405	3848.38
944.636	3862.38
944.866	3919.38
945.096	3883.38
945.326	3834.38
945.556	3929.38
945.786	3866.38
946.016	3840.38
946.245	3727.38
946.475	3740.38
946.705	3758.38
946.935	3737.38
947.164	3713.38
947.394	3663.38
947.624	3676.38
947.853	3773.38
948.083	3662.38
948.312	3632.38
948.542	3569.38
948.771	3540.38
949	3574.38
949.23	3560.38
949.459	3598.38
949.688	3632.38
949.917	3594.38
950.146	3580.38
950.375	3610.38
950.604	3546.38
950.833	3612.38
951.062	3593.38
951.291	3565.38
951.52	3523.38
951.749	3514.38
951.978	3499.38
952.206	3501.38
952.435	3489.38
952.664	3554.38
952.892	3535.38
953.121	3502.38
953.349	3492.38
953.578	3502.38
953.806	3457.38
954.035	3407.38
954.263	3392.38
954.491	3344.38
954.719	3395.38
954.948	3334.38
955.176	3332.38
955.404	3229.38
955.632	3327.38
955.86	3310.38
956.088	3303.38
956.316	3320.38
956.544	3297.38
956.772	3234.38
956.999	3201.38
957.227	3305.38
957.455	3179.38
957.683	3204.38
957.91	3151.38
958.138	3091.38
958.365	3152.38
958.593	3133.38
958.82	3035.38
959.048	3149.38
959.275	3073.38
959.502	3078.38
959.73	3054.38
959.957	3070.38
960.184	3131.38
960.411	3048.38
960.638	3122.38
960.865	3064.38
961.092	3101.38
961.319	2942.38
961.546	3079.38
961.773	3109.38
962	3039.38
962.227	3088.38
962.454	3046.38
962.68	3026.38
962.907	3035.38
963.134	2945.38
963.36	2981.38
963.587	3014.38
963.813	2898.38
964.04	2924.38
964.266	2866.38
964.493	2948.38
964.719	2944.38
964.945	2906.38
965.171	2783.38
965.398	2869.38
965.624	2861.38
965.85	2787.38
966.076	2813.38
966.302	2858.38
966.528	2784.38
966.754	2806.38
966.98	2797.38
967.206	2803.38
967.431	2743.38
967.657	2827.38
967.883	2809.38
968.109	2723.38
968.334	2696.38
968.56	2692.38
968.785	2678.38
969.011	2660.38
969.236	2681.38
969.462	2667.38
969.687	2689.38
969.912	2691.38
970.138	2749.38
970.363	2645.38
970.588	2648.38
970.813	2602.38
971.038	2591.38
971.263	2654.38
971.488	2614.38
971.713	2633.38
971.938	2648.38
972.163	2503.38
972.388	2554.38
972.613	2517.38
972.838	2564.38
973.062	2537.38
973.287	2498.38
973.512	2475.38
973.736	2477.38
973.961	2460.38
974.185	2423.38
974.41	2498.38
974.634	2385.38
974.858	2431.38
975.083	2451.38
975.307	2417.38
975.531	2387.38
975.755	2336.38
975.98	2342.38
976.204	2282.38
976.428	2268.38
976.652	2289.38
976.876	2252.38
977.1	2310.38
977.324	2270.38
977.547	2288.38
977.771	2320.38
977.995	2252.38
978.219	2207.38
978.442	2319.38
978.666	2231.38
978.89	2252.38
979.113	2243.38
979.337	2239.38
979.56	2228.38
979.783	2274.38
980.007	2151.38
980.23	2193.38
980.453	2147.38
980.677	2208.38
980.9	2161.38
981.123	2109.38
981.346	2180.38
981.569	2167.38
981.792	2162.38
982.015	2130.38
982.238	2078.38
982.461	2101.38
982.684	2072.38
982.907	2058.38
983.129	2034.38
983.352	2083.38
983.575	2060.38
983.797	2054.38
984.02	2002.38
984.242	1997.38
984.465	2019.38
984.687	2072.38
984.91	2058.38
985.132	2039.38
985.354	2068.38
985.577	2008.38
985.799	1983.38
986.021	1905.38
986.243	1956.38
986.465	1961.38
986.687	2008.38
986.909	2031.38
987.131	1966.38
987.353	1944.38
987.575	1970.38
987.797	1924.38
988.019	1869.38
988.241	1915.38
988.462	1859.38
988.684	1943.38
988.906	1977.38
989.127	1995.38
989.349	1852.38
989.57	1865.38
989.792	1927.38
990.013	1943.38
990.234	1958.38
990.456	1946.38
990.677	1896.38
990.898	1873.38
991.119	1847.38
991.341	1881.38
991.562	1822.38
991.783	1871.38
992.004	1822.38
992.225	1800.38
992.446	1838.38
992.667	1764.38
992.887	1844.38
993.108	1694.38
993.329	1846.38
993.55	1783.38
993.77	1722.38
993.991	1717.38
994.212	1792.38
994.432	1728.38
994.653	1754.38
994.873	1751.38
995.093	1604.38
995.314	1664.38
995.534	1748.38
995.754	1737.38
995.975	1764.38
996.195	1628.38
996.415	1719.38
996.635	1670.38
996.855	1670.38
997.075	1679.38
997.295	1660.38
997.515	1678.38
997.735	1682.38
997.955	1652.38
998.174	1639.38
998.394	1655.38
998.614	1662.38
998.834	1648.38
999.053	1705.38
999.273	1676.38
999.492	1714.38
999.712	1653.38
999.931	1620.38
1000.151	1633.38
1000.37	1614.38
1000.589	1684.38
1000.809	1631.38
1001.028	1710.38
1001.247	1644.38
1001.466	1550.38
1001.685	1680.38
1001.904	1626.38
1002.123	1589.38
1002.342	1599.38
1002.561	1533.38
1002.78	1589.38
1002.999	1650.38
1003.218	1573.38
1003.436	1557.38
1003.655	1622.38
1003.874	1558.38
1004.092	1572.38
1004.311	1590.38
1004.53	1585.38
1004.748	1629.38
1004.966	1543.38
1005.185	1639.38
1005.403	1594.38
1005.622	1565.38
1005.84	1668.38
1006.058	1535.38
1006.276	1554.38
1006.494	2075.38
1006.712	1563.38
1006.931	1619.38
1007.149	1516.38
1007.367	1519.38
1007.584	1590.38
1007.802	1593.38
1008.02	1532.38
1008.238	1633.38
1008.456	1634.38
1008.673	1462.38
1008.891	1609.38
1009.109	1550.38
1009.326	1618.38
1009.544	1704.38
1009.761	1591.38
1009.979	1692.38
1010.196	1693.38
1010.413	1785.38
1010.631	1831.38
1010.848	1867.38
1011.065	1901.38
1011.282	1830.38
1011.5	1763.38
1011.717	1845.38
1011.934	1831.38
1012.151	1849.38
1012.368	1822.38
1012.585	1782.38
1012.801	1816.38
1013.018	1765.38
1013.235	1753.38
1013.452	1762.38
1013.669	1752.38
1013.885	1726.38
1014.102	1794.38
1014.318	1768.38
1014.535	1730.38
1014.751	1762.38
1014.968	1745.38
1015.184	1774.38
1015.401	1674.38
1015.617	1686.38
1015.833	1636.38
1016.049	1658.38
1016.266	1656.38
1016.482	1632.38
1016.698	1559.38
1016.914	1596.38
1017.13	1552.38
1017.346	1554.38
1017.562	1629.38
1017.778	1537.38
1017.993	1523.38
1018.209	1563.38
1018.425	1529.38
1018.641	1511.38
1018.856	1485.38
1019.072	1517.38
1019.288	1555.38
1019.503	1471.38
1019.719	1382.38
1019.934	1439.38
1020.149	1517.38
1020.365	1435.38
1020.58	1404.38
1020.795	1445.38
1021.011	1367.38
1021.226	1339.38
1021.441	1335.38
1021.656	1275.38
1021.871	1234.38
1022.086	1223.38
1022.301	1215.38
1022.516	1211.38
1022.731	1302.38
1022.946	1179.38
1023.16	1154.38
1023.375	1131.38
1023.59	1112.38
1023.804	1072.38
1024.019	1141.38
1024.234	1017.38
1024.448	1058.38
1024.663	974.38
1024.877	1021.38
1025.092	1041.38
1025.306	1015.38
1025.52	932.38
1025.734	1021.38
1025.949	920.38
1026.163	906.38
1026.377	845.38
1026.591	911.38
1026.805	830.38
1027.019	810.38
1027.233	774.38
1027.447	757.38
1027.661	854.38
1027.875	785.38
1028.088	789.38
1028.302	714.38
1028.516	695.38
1028.73	713.38
1028.943	678.38
1029.157	639.38
1029.37	598.38
1029.584	0.38
1029.797	-2.62
1030.011	-2.62
1030.224	-1.62
