Data from QEP037381__213__10-50-14-539.txt Node

Date: Wed Dec 21 10:50:14 EST 2022
User: dcclab
Spectrometer: QEP03738
Trigger mode: 4
Integration Time (sec): 1.000000E1
Scans to average: 1
Electric dark correction enabled: true
Nonlinearity correction enabled: false
Boxcar width: 0
XAxis mode: Wavelengths
Number of Pixels in Spectrum: 1044
>>>>>Begin Spectral Data<<<<<
784.041	15.12
784.3	0.12
784.558	-0.88
784.817	-3.88
785.075	111101.12
785.334	18821.12
785.592	8589.12
785.851	5952.12
786.109	4467.12
786.368	3508.12
786.626	2865.12
786.884	2364.12
787.143	1960.12
787.401	1629.12
787.659	1443.12
787.917	1242.12
788.175	1120.12
788.433	1010.12
788.691	887.12
788.949	821.12
789.207	785.12
789.465	683.12
789.723	663.12
789.98	581.12
790.238	630.12
790.496	591.12
790.753	561.12
791.011	603.12
791.268	542.12
791.526	520.12
791.783	541.12
792.041	516.12
792.298	426.12
792.556	495.12
792.813	468.12
793.07	456.12
793.327	437.12
793.584	507.12
793.841	429.12
794.099	452.12
794.356	521.12
794.613	408.12
794.869	467.12
795.126	400.12
795.383	407.12
795.64	420.12
795.897	365.12
796.153	431.12
796.41	428.12
796.667	406.12
796.923	404.12
797.18	410.12
797.436	430.12
797.693	393.12
797.949	437.12
798.206	474.12
798.462	387.12
798.718	441.12
798.974	422.12
799.231	457.12
799.487	443.12
799.743	432.12
799.999	462.12
800.255	468.12
800.511	435.12
800.767	482.12
801.023	468.12
801.279	494.12
801.534	521.12
801.79	546.12
802.046	541.12
802.302	662.12
802.557	720.12
802.813	869.12
803.068	1020.12
803.324	1380.12
803.579	1761.12
803.835	2418.12
804.09	3294.12
804.345	4260.12
804.601	5386.12
804.856	6468.12
805.111	7519.12
805.366	8218.12
805.621	8794.12
805.876	9158.12
806.131	9359.12
806.386	9503.12
806.641	9726.12
806.896	9845.12
807.151	10064.12
807.406	10181.12
807.661	10404.12
807.915	10563.12
808.17	10719.12
808.425	10857.12
808.679	10840.12
808.934	11032.12
809.188	11144.12
809.443	11223.12
809.697	11393.12
809.951	11378.12
810.206	11545.12
810.46	11612.12
810.714	11743.12
810.968	11831.12
811.223	11841.12
811.477	11969.12
811.731	12030.12
811.985	12129.12
812.239	12070.12
812.493	12214.12
812.747	12328.12
813	12217.12
813.254	12352.12
813.508	12503.12
813.762	12466.12
814.015	12464.12
814.269	12601.12
814.522	12606.12
814.776	12828.12
815.03	12972.12
815.283	13181.12
815.536	13375.12
815.79	13539.12
816.043	13726.12
816.296	13912.12
816.55	14138.12
816.803	14326.12
817.056	14441.12
817.309	14517.12
817.562	14674.12
817.815	14794.12
818.068	14908.12
818.321	15102.12
818.574	15266.12
818.827	15477.12
819.079	15656.12
819.332	15964.12
819.585	16145.12
819.838	16291.12
820.09	16408.12
820.343	16461.12
820.595	16532.12
820.848	16633.12
821.1	16712.12
821.353	16620.12
821.605	16647.12
821.857	16729.12
822.11	16542.12
822.362	16559.12
822.614	16624.12
822.866	16552.12
823.118	16533.12
823.37	16632.12
823.622	16703.12
823.874	16652.12
824.126	16792.12
824.378	16765.12
824.63	16881.12
824.882	16850.12
825.134	16810.12
825.385	16813.12
825.637	16754.12
825.888	16666.12
826.14	16632.12
826.392	16551.12
826.643	16523.12
826.895	16468.12
827.146	16386.12
827.397	16278.12
827.649	16439.12
827.9	16280.12
828.151	16268.12
828.402	16422.12
828.653	16436.12
828.905	16512.12
829.156	16530.12
829.407	16419.12
829.658	16518.12
829.909	16564.12
830.159	16458.12
830.41	16487.12
830.661	16326.12
830.912	16195.12
831.162	16170.12
831.413	16150.12
831.664	16218.12
831.914	16066.12
832.165	16094.12
832.415	16124.12
832.666	16123.12
832.916	16023.12
833.167	16061.12
833.417	16136.12
833.667	16125.12
833.917	15910.12
834.168	15982.12
834.418	15898.12
834.668	15876.12
834.918	15745.12
835.168	15710.12
835.418	15624.12
835.668	15664.12
835.918	15645.12
836.167	15508.12
836.417	15482.12
836.667	15594.12
836.917	15481.12
837.166	15379.12
837.416	15408.12
837.666	15411.12
837.915	15416.12
838.165	15415.12
838.414	15303.12
838.663	15272.12
838.913	15282.12
839.162	15265.12
839.411	15209.12
839.661	15229.12
839.91	15161.12
840.159	15114.12
840.408	15173.12
840.657	15160.12
840.906	15210.12
841.155	15104.12
841.404	15132.12
841.653	15223.12
841.902	15166.12
842.15	15241.12
842.399	15185.12
842.648	15185.12
842.897	15098.12
843.145	15027.12
843.394	14953.12
843.642	14884.12
843.891	14807.12
844.139	14713.12
844.388	14509.12
844.636	14516.12
844.884	14426.12
845.133	14462.12
845.381	14517.12
845.629	14511.12
845.877	14447.12
846.125	14401.12
846.373	14476.12
846.621	14297.12
846.869	14292.12
847.117	14240.12
847.365	14170.12
847.613	14096.12
847.861	14090.12
848.108	14062.12
848.356	14122.12
848.604	13998.12
848.851	14005.12
849.099	13994.12
849.346	14089.12
849.594	14202.12
849.841	14213.12
850.089	14217.12
850.336	14254.12
850.583	14308.12
850.831	14200.12
851.078	14145.12
851.325	14092.12
851.572	14152.12
851.819	13946.12
852.066	13725.12
852.313	13537.12
852.56	13376.12
852.807	13286.12
853.054	13281.12
853.301	13309.12
853.548	13296.12
853.794	13498.12
854.041	13402.12
854.288	13438.12
854.534	13665.12
854.781	13553.12
855.028	13585.12
855.274	13569.12
855.52	13490.12
855.767	13417.12
856.013	13475.12
856.26	13610.12
856.506	13257.12
856.752	13307.12
856.998	13281.12
857.244	13236.12
857.49	13302.12
857.736	13415.12
857.982	13427.12
858.228	13351.12
858.474	13153.12
858.72	13103.12
858.966	12999.12
859.212	12890.12
859.458	12765.12
859.703	12664.12
859.949	12462.12
860.195	12460.12
860.44	12369.12
860.686	12240.12
860.931	12362.12
861.177	12226.12
861.422	12250.12
861.667	12075.12
861.913	12197.12
862.158	12137.12
862.403	12194.12
862.648	12157.12
862.893	12218.12
863.138	12202.12
863.384	12122.12
863.629	12181.12
863.873	12111.12
864.118	12075.12
864.363	12077.12
864.608	12064.12
864.853	11961.12
865.098	11863.12
865.342	11872.12
865.587	11848.12
865.832	11833.12
866.076	11700.12
866.321	11643.12
866.565	11662.12
866.81	11536.12
867.054	11506.12
867.298	11528.12
867.543	11546.12
867.787	11540.12
868.031	11490.12
868.275	11447.12
868.519	11451.12
868.764	11493.12
869.008	11414.12
869.252	11440.12
869.496	11362.12
869.739	11332.12
869.983	11391.12
870.227	11389.12
870.471	11321.12
870.715	11352.12
870.958	11388.12
871.202	11425.12
871.446	11414.12
871.689	11401.12
871.933	11432.12
872.176	11453.12
872.42	11415.12
872.663	11382.12
872.906	11353.12
873.15	11344.12
873.393	11364.12
873.636	11339.12
873.879	11190.12
874.122	11014.12
874.366	10865.12
874.609	10844.12
874.852	10660.12
875.095	10698.12
875.337	10647.12
875.58	10520.12
875.823	10527.12
876.066	10545.12
876.309	10506.12
876.551	10327.12
876.794	10352.12
877.037	10430.12
877.279	10258.12
877.522	10266.12
877.764	10375.12
878.007	10230.12
878.249	10294.12
878.491	10174.12
878.734	10270.12
878.976	10309.12
879.218	10040.12
879.46	10065.12
879.702	10065.12
879.945	9854.12
880.187	9810.12
880.429	9766.12
880.671	9742.12
880.912	9776.12
881.154	9672.12
881.396	9522.12
881.638	9632.12
881.88	9571.12
882.121	9523.12
882.363	9562.12
882.605	9614.12
882.846	9590.12
883.088	9570.12
883.329	9591.12
883.571	9549.12
883.812	9631.12
884.053	9844.12
884.295	9981.12
884.536	10152.12
884.777	10149.12
885.018	10068.12
885.259	9942.12
885.5	9858.12
885.742	10040.12
885.982	9846.12
886.223	9747.12
886.464	9713.12
886.705	9546.12
886.946	9503.12
887.187	9291.12
887.428	9237.12
887.668	8994.12
887.909	8914.12
888.15	8905.12
888.39	8893.12
888.631	8837.12
888.871	8692.12
889.111	8630.12
889.352	8608.12
889.592	8449.12
889.833	8423.12
890.073	8376.12
890.313	8360.12
890.553	8255.12
890.793	8248.12
891.033	8220.12
891.273	8154.12
891.513	8057.12
891.753	8131.12
891.993	8105.12
892.233	8023.12
892.473	8181.12
892.713	8130.12
892.952	8102.12
893.192	8138.12
893.432	8065.12
893.671	8095.12
893.911	8074.12
894.15	8027.12
894.39	7935.12
894.629	7944.12
894.869	7966.12
895.108	7852.12
895.347	7785.12
895.587	7771.12
895.826	7712.12
896.065	7652.12
896.304	7780.12
896.543	7710.12
896.782	7626.12
897.021	7638.12
897.26	7666.12
897.499	7653.12
897.738	7615.12
897.977	7479.12
898.216	7449.12
898.454	7402.12
898.693	7318.12
898.932	7295.12
899.17	7306.12
899.409	7335.12
899.647	7282.12
899.886	7242.12
900.124	7237.12
900.363	7223.12
900.601	7250.12
900.839	7321.12
901.078	7322.12
901.316	7333.12
901.554	7319.12
901.792	7403.12
902.03	7371.12
902.268	7339.12
902.506	7400.12
902.744	7327.12
902.982	7358.12
903.22	7186.12
903.458	7097.12
903.695	7129.12
903.933	6939.12
904.171	6796.12
904.409	6659.12
904.646	6659.12
904.884	6568.12
905.121	6547.12
905.359	6428.12
905.596	6370.12
905.833	6269.12
906.071	6224.12
906.308	6297.12
906.545	6277.12
906.783	6158.12
907.02	6234.12
907.257	6192.12
907.494	6165.12
907.731	6172.12
907.968	6103.12
908.205	6100.12
908.442	6033.12
908.679	6007.12
908.915	5987.12
909.152	5962.12
909.389	5807.12
909.626	5854.12
909.862	5809.12
910.099	5776.12
910.335	5859.12
910.572	5687.12
910.808	5749.12
911.045	5680.12
911.281	5658.12
911.518	5724.12
911.754	5584.12
911.99	5595.12
912.226	5600.12
912.463	5507.12
912.699	5426.12
912.935	5431.12
913.171	5412.12
913.407	5354.12
913.643	5384.12
913.879	5324.12
914.114	5237.12
914.35	5107.12
914.586	5147.12
914.822	5096.12
915.057	5161.12
915.293	4956.12
915.529	4952.12
915.764	5040.12
916	5012.12
916.235	5011.12
916.471	5008.12
916.706	4934.12
916.941	4938.12
917.177	4900.12
917.412	4946.12
917.647	4955.12
917.882	4885.12
918.117	4954.12
918.352	4880.12
918.588	4856.12
918.823	4855.12
919.057	4787.12
919.292	4697.12
919.527	4759.12
919.762	4639.12
919.997	4668.12
920.232	4633.12
920.466	4588.12
920.701	4419.12
920.935	4494.12
921.17	4414.12
921.405	4404.12
921.639	4464.12
921.873	4379.12
922.108	4398.12
922.342	4410.12
922.576	4300.12
922.811	4335.12
923.045	4311.12
923.279	4365.12
923.513	4267.12
923.747	4310.12
923.981	4281.12
924.215	4212.12
924.449	4174.12
924.683	4088.12
924.917	4102.12
925.151	4098.12
925.385	4180.12
925.618	4080.12
925.852	4124.12
926.086	4046.12
926.319	4083.12
926.553	4077.12
926.786	4080.12
927.02	4080.12
927.253	4094.12
927.486	4073.12
927.72	4001.12
927.953	4049.12
928.186	3975.12
928.42	4042.12
928.653	3982.12
928.886	3951.12
929.119	3986.12
929.352	3962.12
929.585	3929.12
929.818	3860.12
930.051	3898.12
930.284	3861.12
930.516	3771.12
930.749	3708.12
930.982	3788.12
931.215	3722.12
931.447	3740.12
931.68	3696.12
931.912	3641.12
932.145	3674.12
932.377	3687.12
932.61	3833.12
932.842	3624.12
933.074	3692.12
933.307	3672.12
933.539	3763.12
933.771	3727.12
934.003	3644.12
934.236	3727.12
934.468	3755.12
934.7	3651.12
934.932	3720.12
935.164	3622.12
935.395	3585.12
935.627	3583.12
935.859	3639.12
936.091	3557.12
936.323	3576.12
936.554	3595.12
936.786	3539.12
937.017	3496.12
937.249	3536.12
937.481	3466.12
937.712	3501.12
937.943	3484.12
938.175	3500.12
938.406	3449.12
938.637	3531.12
938.869	3469.12
939.1	3511.12
939.331	3452.12
939.562	3472.12
939.793	3466.12
940.024	3486.12
940.255	3482.12
940.486	3373.12
940.717	3416.12
940.948	3397.12
941.179	3310.12
941.409	3303.12
941.64	3362.12
941.871	3362.12
942.102	3315.12
942.332	3305.12
942.563	3363.12
942.793	3351.12
943.024	3298.12
943.254	3332.12
943.484	3353.12
943.715	3418.12
943.945	3347.12
944.175	3280.12
944.405	3254.12
944.636	3277.12
944.866	3342.12
945.096	3304.12
945.326	3214.12
945.556	3295.12
945.786	3306.12
946.016	3263.12
946.245	3184.12
946.475	3184.12
946.705	3180.12
946.935	3157.12
947.164	3177.12
947.394	3049.12
947.624	3154.12
947.853	3158.12
948.083	3110.12
948.312	3091.12
948.542	3040.12
948.771	3016.12
949	3015.12
949.23	3081.12
949.459	3055.12
949.688	3104.12
949.917	3045.12
950.146	3092.12
950.375	3101.12
950.604	3024.12
950.833	3061.12
951.062	3075.12
951.291	3020.12
951.52	2985.12
951.749	2961.12
951.978	2990.12
952.206	2951.12
952.435	2946.12
952.664	2988.12
952.892	2999.12
953.121	2942.12
953.349	2956.12
953.578	2985.12
953.806	2908.12
954.035	2856.12
954.263	2917.12
954.491	2855.12
954.719	2895.12
954.948	2841.12
955.176	2823.12
955.404	2748.12
955.632	2816.12
955.86	2823.12
956.088	2816.12
956.316	2830.12
956.544	2853.12
956.772	2764.12
956.999	2726.12
957.227	2801.12
957.455	2725.12
957.683	2742.12
957.91	2671.12
958.138	2672.12
958.365	2673.12
958.593	2691.12
958.82	2625.12
959.048	2673.12
959.275	2665.12
959.502	2665.12
959.73	2582.12
959.957	2673.12
960.184	2627.12
960.411	2608.12
960.638	2681.12
960.865	2625.12
961.092	2627.12
961.319	2546.12
961.546	2624.12
961.773	2633.12
962	2579.12
962.227	2664.12
962.454	2585.12
962.68	2547.12
962.907	2595.12
963.134	2555.12
963.36	2566.12
963.587	2580.12
963.813	2508.12
964.04	2528.12
964.266	2450.12
964.493	2526.12
964.719	2484.12
964.945	2522.12
965.171	2409.12
965.398	2477.12
965.624	2451.12
965.85	2392.12
966.076	2379.12
966.302	2418.12
966.528	2399.12
966.754	2401.12
966.98	2376.12
967.206	2394.12
967.431	2346.12
967.657	2394.12
967.883	2404.12
968.109	2383.12
968.334	2327.12
968.56	2302.12
968.785	2289.12
969.011	2277.12
969.236	2371.12
969.462	2277.12
969.687	2308.12
969.912	2361.12
970.138	2344.12
970.363	2281.12
970.588	2307.12
970.813	2258.12
971.038	2243.12
971.263	2285.12
971.488	2293.12
971.713	2292.12
971.938	2257.12
972.163	2163.12
972.388	2186.12
972.613	2196.12
972.838	2196.12
973.062	2185.12
973.287	2202.12
973.512	2126.12
973.736	2148.12
973.961	2132.12
974.185	2104.12
974.41	2144.12
974.634	2069.12
974.858	2019.12
975.083	2094.12
975.307	2113.12
975.531	2052.12
975.755	2025.12
975.98	2019.12
976.204	1960.12
976.428	1989.12
976.652	1991.12
976.876	1939.12
977.1	1988.12
977.324	1998.12
977.547	1998.12
977.771	1995.12
977.995	1972.12
978.219	1938.12
978.442	2047.12
978.666	1953.12
978.89	1926.12
979.113	1950.12
979.337	1938.12
979.56	1907.12
979.783	1983.12
980.007	1869.12
980.23	1914.12
980.453	1893.12
980.677	1905.12
980.9	1919.12
981.123	1829.12
981.346	1905.12
981.569	1873.12
981.792	1915.12
982.015	1867.12
982.238	1814.12
982.461	1837.12
982.684	1819.12
982.907	1779.12
983.129	1777.12
983.352	1822.12
983.575	1775.12
983.797	1806.12
984.02	1758.12
984.242	1757.12
984.465	1786.12
984.687	1815.12
984.91	1807.12
985.132	1781.12
985.354	1807.12
985.577	1763.12
985.799	1745.12
986.021	1661.12
986.243	1704.12
986.465	1717.12
986.687	1777.12
986.909	1784.12
987.131	1742.12
987.353	1688.12
987.575	1715.12
987.797	1702.12
988.019	1660.12
988.241	1703.12
988.462	1640.12
988.684	1721.12
988.906	1724.12
989.127	1749.12
989.349	1630.12
989.57	1688.12
989.792	1735.12
990.013	1726.12
990.234	1722.12
990.456	1730.12
990.677	1711.12
990.898	1652.12
991.119	1634.12
991.341	1673.12
991.562	1621.12
991.783	1645.12
992.004	1619.12
992.225	1566.12
992.446	1626.12
992.667	1513.12
992.887	1631.12
993.108	1523.12
993.329	1637.12
993.55	1592.12
993.77	1528.12
993.991	1538.12
994.212	1568.12
994.432	1526.12
994.653	1555.12
994.873	1533.12
995.093	1447.12
995.314	1498.12
995.534	1547.12
995.754	1566.12
995.975	1562.12
996.195	1488.12
996.415	1525.12
996.635	1542.12
996.855	1523.12
997.075	1487.12
997.295	1484.12
997.515	1481.12
997.735	1547.12
997.955	1474.12
998.174	1484.12
998.394	1482.12
998.614	1508.12
998.834	1424.12
999.053	1507.12
999.273	1495.12
999.492	1540.12
999.712	1475.12
999.931	1458.12
1000.151	1515.12
1000.37	1470.12
1000.589	1514.12
1000.809	1440.12
1001.028	1539.12
1001.247	1478.12
1001.466	1404.12
1001.685	1516.12
1001.904	1474.12
1002.123	1444.12
1002.342	1453.12
1002.561	1409.12
1002.78	1432.12
1002.999	1512.12
1003.218	1441.12
1003.436	1421.12
1003.655	1448.12
1003.874	1409.12
1004.092	1421.12
1004.311	1467.12
1004.53	1427.12
1004.748	1503.12
1004.966	1445.12
1005.185	1457.12
1005.403	1463.12
1005.622	1452.12
1005.84	1503.12
1006.058	1410.12
1006.276	1420.12
1006.494	1904.12
1006.712	1415.12
1006.931	1473.12
1007.149	1396.12
1007.367	1423.12
1007.584	1441.12
1007.802	1452.12
1008.02	1444.12
1008.238	1498.12
1008.456	1501.12
1008.673	1358.12
1008.891	1465.12
1009.109	1453.12
1009.326	1499.12
1009.544	1588.12
1009.761	1478.12
1009.979	1604.12
1010.196	1563.12
1010.413	1661.12
1010.631	1726.12
1010.848	1762.12
1011.065	1766.12
1011.282	1711.12
1011.5	1622.12
1011.717	1739.12
1011.934	1679.12
1012.151	1724.12
1012.368	1718.12
1012.585	1660.12
1012.801	1664.12
1013.018	1649.12
1013.235	1626.12
1013.452	1657.12
1013.669	1668.12
1013.885	1642.12
1014.102	1686.12
1014.318	1662.12
1014.535	1617.12
1014.751	1652.12
1014.968	1648.12
1015.184	1703.12
1015.401	1568.12
1015.617	1590.12
1015.833	1560.12
1016.049	1555.12
1016.266	1543.12
1016.482	1544.12
1016.698	1481.12
1016.914	1515.12
1017.13	1445.12
1017.346	1454.12
1017.562	1531.12
1017.778	1434.12
1017.993	1425.12
1018.209	1469.12
1018.425	1443.12
1018.641	1426.12
1018.856	1394.12
1019.072	1430.12
1019.288	1454.12
1019.503	1415.12
1019.719	1322.12
1019.934	1336.12
1020.149	1436.12
1020.365	1370.12
1020.58	1307.12
1020.795	1339.12
1021.011	1277.12
1021.226	1263.12
1021.441	1301.12
1021.656	1215.12
1021.871	1135.12
1022.086	1171.12
1022.301	1148.12
1022.516	1143.12
1022.731	1189.12
1022.946	1102.12
1023.16	1086.12
1023.375	1051.12
1023.59	1032.12
1023.804	993.12
1024.019	1092.12
1024.234	961.12
1024.448	1008.12
1024.663	943.12
1024.877	960.12
1025.092	983.12
1025.306	968.12
1025.52	858.12
1025.734	962.12
1025.949	891.12
1026.163	849.12
1026.377	777.12
1026.591	831.12
1026.805	776.12
1027.019	773.12
1027.233	729.12
1027.447	675.12
1027.661	778.12
1027.875	729.12
1028.088	727.12
1028.302	662.12
1028.516	652.12
1028.73	651.12
1028.943	661.12
1029.157	596.12
1029.37	566.12
1029.584	-5.88
1029.797	-1.88
1030.011	-1.88
1030.224	-0.88
