Data from QEP037381__187__10-45-54-537.txt Node

Date: Wed Dec 21 10:45:54 EST 2022
User: dcclab
Spectrometer: QEP03738
Trigger mode: 4
Integration Time (sec): 1.000000E1
Scans to average: 1
Electric dark correction enabled: true
Nonlinearity correction enabled: false
Boxcar width: 0
XAxis mode: Wavelengths
Number of Pixels in Spectrum: 1044
>>>>>Begin Spectral Data<<<<<
784.041	13.75
784.3	-0.25
784.558	-0.25
784.817	-4.25
785.075	118098.75
785.334	19328.75
785.592	8701.75
785.851	6003.75
786.109	4487.75
786.368	3456.75
786.626	2823.75
786.884	2342.75
787.143	1951.75
787.401	1632.75
787.659	1435.75
787.917	1228.75
788.175	1132.75
788.433	1009.75
788.691	896.75
788.949	837.75
789.207	783.75
789.465	675.75
789.723	653.75
789.98	611.75
790.238	644.75
790.496	581.75
790.753	579.75
791.011	609.75
791.268	546.75
791.526	524.75
791.783	557.75
792.041	525.75
792.298	441.75
792.556	495.75
792.813	497.75
793.07	464.75
793.327	453.75
793.584	534.75
793.841	433.75
794.099	466.75
794.356	519.75
794.613	432.75
794.869	465.75
795.126	411.75
795.383	407.75
795.64	429.75
795.897	381.75
796.153	444.75
796.41	414.75
796.667	406.75
796.923	411.75
797.18	405.75
797.436	435.75
797.693	406.75
797.949	443.75
798.206	475.75
798.462	392.75
798.718	450.75
798.974	413.75
799.231	479.75
799.487	455.75
799.743	456.75
799.999	491.75
800.255	479.75
800.511	451.75
800.767	476.75
801.023	479.75
801.279	515.75
801.534	531.75
801.79	579.75
802.046	573.75
802.302	712.75
802.557	741.75
802.813	913.75
803.068	1044.75
803.324	1454.75
803.579	1968.75
803.835	2610.75
804.09	3556.75
804.345	4570.75
804.601	5762.75
804.856	6924.75
805.111	7967.75
805.366	8744.75
805.621	9282.75
805.876	9761.75
806.131	9911.75
806.386	10094.75
806.641	10252.75
806.896	10372.75
807.151	10620.75
807.406	10721.75
807.661	10903.75
807.915	11024.75
808.17	11291.75
808.425	11284.75
808.679	11413.75
808.934	11644.75
809.188	11643.75
809.443	11754.75
809.697	11888.75
809.951	11950.75
810.206	12106.75
810.46	12239.75
810.714	12238.75
810.968	12312.75
811.223	12420.75
811.477	12593.75
811.731	12656.75
811.985	12733.75
812.239	12698.75
812.493	12784.75
812.747	12887.75
813	12849.75
813.254	12863.75
813.508	12971.75
813.762	12867.75
814.015	13062.75
814.269	13194.75
814.522	13294.75
814.776	13393.75
815.03	13541.75
815.283	13681.75
815.536	13946.75
815.79	14226.75
816.043	14345.75
816.296	14586.75
816.55	14698.75
816.803	14907.75
817.056	15127.75
817.309	15030.75
817.562	15322.75
817.815	15434.75
818.068	15462.75
818.321	15654.75
818.574	15886.75
818.827	16110.75
819.079	16257.75
819.332	16613.75
819.585	16781.75
819.838	16965.75
820.09	17008.75
820.343	17104.75
820.595	17027.75
820.848	17228.75
821.1	17358.75
821.353	17424.75
821.605	17191.75
821.857	17338.75
822.11	17237.75
822.362	17187.75
822.614	17163.75
822.866	17184.75
823.118	17232.75
823.37	17390.75
823.622	17317.75
823.874	17392.75
824.126	17489.75
824.378	17390.75
824.63	17474.75
824.882	17472.75
825.134	17441.75
825.385	17459.75
825.637	17349.75
825.888	17371.75
826.14	17299.75
826.392	17201.75
826.643	17103.75
826.895	17097.75
827.146	16961.75
827.397	17027.75
827.649	16971.75
827.9	16782.75
828.151	16927.75
828.402	17000.75
828.653	17041.75
828.905	17085.75
829.156	16998.75
829.407	17077.75
829.658	17048.75
829.909	17127.75
830.159	17084.75
830.41	17044.75
830.661	16960.75
830.912	16805.75
831.162	16716.75
831.413	16711.75
831.664	16742.75
831.914	16727.75
832.165	16690.75
832.415	16734.75
832.666	16686.75
832.916	16669.75
833.167	16730.75
833.417	16682.75
833.667	16654.75
833.917	16503.75
834.168	16482.75
834.418	16511.75
834.668	16445.75
834.918	16332.75
835.168	16281.75
835.418	16158.75
835.668	16250.75
835.918	16118.75
836.167	16173.75
836.417	16050.75
836.667	16067.75
836.917	16069.75
837.166	16069.75
837.416	16043.75
837.666	16103.75
837.915	15972.75
838.165	15967.75
838.414	15872.75
838.663	15873.75
838.913	15815.75
839.162	15837.75
839.411	15766.75
839.661	15662.75
839.91	15641.75
840.159	15622.75
840.408	15599.75
840.657	15624.75
840.906	15740.75
841.155	15709.75
841.404	15612.75
841.653	15700.75
841.902	15695.75
842.15	15857.75
842.399	15655.75
842.648	15659.75
842.897	15655.75
843.145	15599.75
843.394	15364.75
843.642	15274.75
843.891	15394.75
844.139	15236.75
844.388	15043.75
844.636	15008.75
844.884	15010.75
845.133	15002.75
845.381	15066.75
845.629	15082.75
845.877	14988.75
846.125	14920.75
846.373	14952.75
846.621	14846.75
846.869	14882.75
847.117	14762.75
847.365	14725.75
847.613	14585.75
847.861	14604.75
848.108	14639.75
848.356	14526.75
848.604	14523.75
848.851	14504.75
849.099	14517.75
849.346	14602.75
849.594	14688.75
849.841	14735.75
850.089	14739.75
850.336	14713.75
850.583	14745.75
850.831	14606.75
851.078	14612.75
851.325	14600.75
851.572	14516.75
851.819	14364.75
852.066	14185.75
852.313	14027.75
852.56	13915.75
852.807	13829.75
853.054	13763.75
853.301	13728.75
853.548	13824.75
853.794	13893.75
854.041	13904.75
854.288	13914.75
854.534	14101.75
854.781	14088.75
855.028	13960.75
855.274	13962.75
855.52	13951.75
855.767	13844.75
856.013	13927.75
856.26	14171.75
856.506	13708.75
856.752	13801.75
856.998	13666.75
857.244	13696.75
857.49	13849.75
857.736	13837.75
857.982	13828.75
858.228	13643.75
858.474	13675.75
858.72	13606.75
858.966	13381.75
859.212	13340.75
859.458	13206.75
859.703	13112.75
859.949	12957.75
860.195	12855.75
860.44	12792.75
860.686	12674.75
860.931	12698.75
861.177	12630.75
861.422	12621.75
861.667	12545.75
861.913	12528.75
862.158	12497.75
862.403	12539.75
862.648	12655.75
862.893	12557.75
863.138	12610.75
863.384	12481.75
863.629	12589.75
863.873	12575.75
864.118	12521.75
864.363	12465.75
864.608	12397.75
864.853	12342.75
865.098	12229.75
865.342	12280.75
865.587	12147.75
865.832	12084.75
866.076	12167.75
866.321	12078.75
866.565	12054.75
866.81	11938.75
867.054	12026.75
867.298	11938.75
867.543	11852.75
867.787	11911.75
868.031	11833.75
868.275	11824.75
868.519	11898.75
868.764	11813.75
869.008	11855.75
869.252	11814.75
869.496	11714.75
869.739	11837.75
869.983	11745.75
870.227	11763.75
870.471	11687.75
870.715	11854.75
870.958	11771.75
871.202	11794.75
871.446	11779.75
871.689	11815.75
871.933	11876.75
872.176	11811.75
872.42	11728.75
872.663	11730.75
872.906	11754.75
873.15	11685.75
873.393	11646.75
873.636	11667.75
873.879	11558.75
874.122	11508.75
874.366	11227.75
874.609	11192.75
874.852	11076.75
875.095	11034.75
875.337	10978.75
875.58	10840.75
875.823	10895.75
876.066	10892.75
876.309	10827.75
876.551	10744.75
876.794	10661.75
877.037	10671.75
877.279	10632.75
877.522	10677.75
877.764	10685.75
878.007	10617.75
878.249	10642.75
878.491	10562.75
878.734	10495.75
878.976	10532.75
879.218	10508.75
879.46	10414.75
879.702	10356.75
879.945	10282.75
880.187	10170.75
880.429	10087.75
880.671	10077.75
880.912	10100.75
881.154	9988.75
881.396	9871.75
881.638	9987.75
881.88	9999.75
882.121	9934.75
882.363	9891.75
882.605	9998.75
882.846	9847.75
883.088	9862.75
883.329	9839.75
883.571	9874.75
883.812	9955.75
884.053	10161.75
884.295	10327.75
884.536	10577.75
884.777	10446.75
885.018	10306.75
885.259	10304.75
885.5	10136.75
885.742	10456.75
885.982	10162.75
886.223	10020.75
886.464	9988.75
886.705	9880.75
886.946	9860.75
887.187	9673.75
887.428	9525.75
887.668	9375.75
887.909	9227.75
888.15	9160.75
888.39	9140.75
888.631	9132.75
888.871	9049.75
889.111	8958.75
889.352	8892.75
889.592	8831.75
889.833	8765.75
890.073	8668.75
890.313	8684.75
890.553	8542.75
890.793	8480.75
891.033	8455.75
891.273	8434.75
891.513	8406.75
891.753	8479.75
891.993	8371.75
892.233	8382.75
892.473	8464.75
892.713	8434.75
892.952	8384.75
893.192	8456.75
893.432	8388.75
893.671	8405.75
893.911	8370.75
894.15	8331.75
894.39	8145.75
894.629	8177.75
894.869	8211.75
895.108	8106.75
895.347	8050.75
895.587	8047.75
895.826	8042.75
896.065	7989.75
896.304	7996.75
896.543	7924.75
896.782	7858.75
897.021	7918.75
897.26	7899.75
897.499	7845.75
897.738	7891.75
897.977	7753.75
898.216	7678.75
898.454	7694.75
898.693	7628.75
898.932	7622.75
899.17	7632.75
899.409	7483.75
899.647	7567.75
899.886	7510.75
900.124	7542.75
900.363	7459.75
900.601	7491.75
900.839	7534.75
901.078	7530.75
901.316	7655.75
901.554	7613.75
901.792	7603.75
902.03	7595.75
902.268	7585.75
902.506	7599.75
902.744	7559.75
902.982	7526.75
903.22	7438.75
903.458	7301.75
903.695	7249.75
903.933	7195.75
904.171	7029.75
904.409	6967.75
904.646	6837.75
904.884	6730.75
905.121	6771.75
905.359	6656.75
905.596	6627.75
905.833	6515.75
906.071	6522.75
906.308	6554.75
906.545	6480.75
906.783	6373.75
907.02	6430.75
907.257	6376.75
907.494	6411.75
907.731	6400.75
907.968	6402.75
908.205	6350.75
908.442	6297.75
908.679	6182.75
908.915	6199.75
909.152	6204.75
909.389	6090.75
909.626	6043.75
909.862	5997.75
910.099	5976.75
910.335	6041.75
910.572	5857.75
910.808	5895.75
911.045	5919.75
911.281	5863.75
911.518	5905.75
911.754	5871.75
911.99	5788.75
912.226	5767.75
912.463	5698.75
912.699	5672.75
912.935	5637.75
913.171	5602.75
913.407	5526.75
913.643	5583.75
913.879	5472.75
914.114	5437.75
914.35	5387.75
914.586	5312.75
914.822	5211.75
915.057	5337.75
915.293	5144.75
915.529	5167.75
915.764	5251.75
916	5237.75
916.235	5186.75
916.471	5151.75
916.706	5153.75
916.941	5134.75
917.177	5068.75
917.412	5147.75
917.647	5140.75
917.882	5024.75
918.117	5083.75
918.352	5098.75
918.588	5126.75
918.823	5030.75
919.057	4997.75
919.292	4822.75
919.527	4918.75
919.762	4815.75
919.997	4830.75
920.232	4760.75
920.466	4730.75
920.701	4638.75
920.935	4621.75
921.17	4625.75
921.405	4566.75
921.639	4620.75
921.873	4544.75
922.108	4574.75
922.342	4553.75
922.576	4453.75
922.811	4513.75
923.045	4550.75
923.279	4531.75
923.513	4361.75
923.747	4438.75
923.981	4387.75
924.215	4374.75
924.449	4323.75
924.683	4308.75
924.917	4288.75
925.151	4308.75
925.385	4291.75
925.618	4284.75
925.852	4206.75
926.086	4167.75
926.319	4204.75
926.553	4203.75
926.786	4213.75
927.02	4145.75
927.253	4272.75
927.486	4177.75
927.72	4150.75
927.953	4215.75
928.186	4130.75
928.42	4157.75
928.653	4097.75
928.886	4088.75
929.119	4121.75
929.352	4070.75
929.585	4019.75
929.818	3984.75
930.051	4018.75
930.284	3964.75
930.516	3865.75
930.749	3868.75
930.982	3910.75
931.215	3877.75
931.447	3821.75
931.68	3803.75
931.912	3790.75
932.145	3789.75
932.377	3836.75
932.61	3951.75
932.842	3750.75
933.074	3784.75
933.307	3786.75
933.539	3870.75
933.771	3850.75
934.003	3763.75
934.236	3885.75
934.468	3869.75
934.7	3768.75
934.932	3771.75
935.164	3727.75
935.395	3752.75
935.627	3749.75
935.859	3700.75
936.091	3641.75
936.323	3731.75
936.554	3745.75
936.786	3644.75
937.017	3571.75
937.249	3677.75
937.481	3599.75
937.712	3645.75
937.943	3604.75
938.175	3606.75
938.406	3573.75
938.637	3671.75
938.869	3529.75
939.1	3573.75
939.331	3543.75
939.562	3596.75
939.793	3583.75
940.024	3601.75
940.255	3586.75
940.486	3491.75
940.717	3493.75
940.948	3477.75
941.179	3422.75
941.409	3459.75
941.64	3451.75
941.871	3496.75
942.102	3456.75
942.332	3447.75
942.563	3459.75
942.793	3460.75
943.024	3403.75
943.254	3414.75
943.484	3487.75
943.715	3469.75
943.945	3449.75
944.175	3368.75
944.405	3381.75
944.636	3389.75
944.866	3403.75
945.096	3435.75
945.326	3368.75
945.556	3402.75
945.786	3364.75
946.016	3338.75
946.245	3316.75
946.475	3284.75
946.705	3279.75
946.935	3290.75
947.164	3248.75
947.394	3214.75
947.624	3219.75
947.853	3229.75
948.083	3222.75
948.312	3207.75
948.542	3118.75
948.771	3136.75
949	3096.75
949.23	3121.75
949.459	3147.75
949.688	3213.75
949.917	3144.75
950.146	3132.75
950.375	3186.75
950.604	3078.75
950.833	3177.75
951.062	3162.75
951.291	3078.75
951.52	3082.75
951.749	3095.75
951.978	3077.75
952.206	3053.75
952.435	3031.75
952.664	3062.75
952.892	3087.75
953.121	3061.75
953.349	3090.75
953.578	3068.75
953.806	3029.75
954.035	2980.75
954.263	2981.75
954.491	2962.75
954.719	2985.75
954.948	2973.75
955.176	2926.75
955.404	2858.75
955.632	2914.75
955.86	2920.75
956.088	2921.75
956.316	2901.75
956.544	2922.75
956.772	2819.75
956.999	2823.75
957.227	2882.75
957.455	2817.75
957.683	2805.75
957.91	2790.75
958.138	2742.75
958.365	2733.75
958.593	2740.75
958.82	2703.75
959.048	2774.75
959.275	2731.75
959.502	2690.75
959.73	2680.75
959.957	2743.75
960.184	2732.75
960.411	2669.75
960.638	2739.75
960.865	2685.75
961.092	2726.75
961.319	2615.75
961.546	2690.75
961.773	2713.75
962	2657.75
962.227	2720.75
962.454	2658.75
962.68	2639.75
962.907	2677.75
963.134	2589.75
963.36	2644.75
963.587	2654.75
963.813	2560.75
964.04	2583.75
964.266	2524.75
964.493	2627.75
964.719	2567.75
964.945	2577.75
965.171	2462.75
965.398	2521.75
965.624	2582.75
965.85	2467.75
966.076	2489.75
966.302	2486.75
966.528	2449.75
966.754	2462.75
966.98	2478.75
967.206	2465.75
967.431	2405.75
967.657	2501.75
967.883	2468.75
968.109	2409.75
968.334	2385.75
968.56	2363.75
968.785	2377.75
969.011	2342.75
969.236	2435.75
969.462	2351.75
969.687	2393.75
969.912	2399.75
970.138	2420.75
970.363	2337.75
970.588	2356.75
970.813	2305.75
971.038	2301.75
971.263	2340.75
971.488	2337.75
971.713	2306.75
971.938	2358.75
972.163	2245.75
972.388	2273.75
972.613	2233.75
972.838	2248.75
973.062	2250.75
973.287	2244.75
973.512	2184.75
973.736	2201.75
973.961	2229.75
974.185	2167.75
974.41	2222.75
974.634	2148.75
974.858	2127.75
975.083	2146.75
975.307	2174.75
975.531	2096.75
975.755	2065.75
975.98	2086.75
976.204	2029.75
976.428	2001.75
976.652	2036.75
976.876	2020.75
977.1	2034.75
977.324	2014.75
977.547	2075.75
977.771	2033.75
977.995	2049.75
978.219	1952.75
978.442	2073.75
978.666	2047.75
978.89	1991.75
979.113	2033.75
979.337	1969.75
979.56	1941.75
979.783	2062.75
980.007	1913.75
980.23	1948.75
980.453	1922.75
980.677	1980.75
980.9	1957.75
981.123	1863.75
981.346	1944.75
981.569	1928.75
981.792	1942.75
982.015	1906.75
982.238	1880.75
982.461	1878.75
982.684	1853.75
982.907	1836.75
983.129	1839.75
983.352	1887.75
983.575	1830.75
983.797	1825.75
984.02	1796.75
984.242	1816.75
984.465	1808.75
984.687	1845.75
984.91	1873.75
985.132	1805.75
985.354	1853.75
985.577	1805.75
985.799	1791.75
986.021	1710.75
986.243	1747.75
986.465	1752.75
986.687	1801.75
986.909	1854.75
987.131	1796.75
987.353	1733.75
987.575	1781.75
987.797	1702.75
988.019	1670.75
988.241	1725.75
988.462	1692.75
988.684	1749.75
988.906	1764.75
989.127	1799.75
989.349	1644.75
989.57	1705.75
989.792	1718.75
990.013	1766.75
990.234	1737.75
990.456	1758.75
990.677	1785.75
990.898	1683.75
991.119	1684.75
991.341	1722.75
991.562	1634.75
991.783	1663.75
992.004	1625.75
992.225	1613.75
992.446	1655.75
992.667	1542.75
992.887	1681.75
993.108	1557.75
993.329	1685.75
993.55	1607.75
993.77	1549.75
993.991	1554.75
994.212	1635.75
994.432	1599.75
994.653	1597.75
994.873	1582.75
995.093	1465.75
995.314	1525.75
995.534	1598.75
995.754	1589.75
995.975	1617.75
996.195	1520.75
996.415	1567.75
996.635	1545.75
996.855	1528.75
997.075	1537.75
997.295	1537.75
997.515	1520.75
997.735	1558.75
997.955	1548.75
998.174	1506.75
998.394	1519.75
998.614	1550.75
998.834	1500.75
999.053	1566.75
999.273	1525.75
999.492	1571.75
999.712	1519.75
999.931	1451.75
1000.151	1514.75
1000.37	1475.75
1000.589	1548.75
1000.809	1441.75
1001.028	1572.75
1001.247	1513.75
1001.466	1395.75
1001.685	1571.75
1001.904	1491.75
1002.123	1486.75
1002.342	1486.75
1002.561	1434.75
1002.78	1453.75
1002.999	1516.75
1003.218	1463.75
1003.436	1419.75
1003.655	1496.75
1003.874	1415.75
1004.092	1427.75
1004.311	1456.75
1004.53	1416.75
1004.748	1508.75
1004.966	1426.75
1005.185	1477.75
1005.403	1491.75
1005.622	1439.75
1005.84	1538.75
1006.058	1407.75
1006.276	1435.75
1006.494	1969.75
1006.712	1449.75
1006.931	1531.75
1007.149	1419.75
1007.367	1427.75
1007.584	1453.75
1007.802	1476.75
1008.02	1445.75
1008.238	1539.75
1008.456	1549.75
1008.673	1392.75
1008.891	1504.75
1009.109	1472.75
1009.326	1531.75
1009.544	1600.75
1009.761	1520.75
1009.979	1606.75
1010.196	1592.75
1010.413	1692.75
1010.631	1756.75
1010.848	1800.75
1011.065	1766.75
1011.282	1727.75
1011.5	1662.75
1011.717	1776.75
1011.934	1703.75
1012.151	1770.75
1012.368	1733.75
1012.585	1659.75
1012.801	1708.75
1013.018	1670.75
1013.235	1630.75
1013.452	1668.75
1013.669	1662.75
1013.885	1655.75
1014.102	1690.75
1014.318	1692.75
1014.535	1641.75
1014.751	1665.75
1014.968	1663.75
1015.184	1660.75
1015.401	1605.75
1015.617	1615.75
1015.833	1571.75
1016.049	1555.75
1016.266	1560.75
1016.482	1552.75
1016.698	1485.75
1016.914	1538.75
1017.13	1456.75
1017.346	1471.75
1017.562	1510.75
1017.778	1470.75
1017.993	1423.75
1018.209	1482.75
1018.425	1456.75
1018.641	1408.75
1018.856	1394.75
1019.072	1444.75
1019.288	1479.75
1019.503	1440.75
1019.719	1317.75
1019.934	1371.75
1020.149	1431.75
1020.365	1353.75
1020.58	1324.75
1020.795	1361.75
1021.011	1286.75
1021.226	1264.75
1021.441	1289.75
1021.656	1220.75
1021.871	1151.75
1022.086	1148.75
1022.301	1157.75
1022.516	1157.75
1022.731	1197.75
1022.946	1095.75
1023.16	1103.75
1023.375	1049.75
1023.59	1037.75
1023.804	981.75
1024.019	1103.75
1024.234	995.75
1024.448	991.75
1024.663	937.75
1024.877	939.75
1025.092	985.75
1025.306	978.75
1025.52	883.75
1025.734	976.75
1025.949	870.75
1026.163	859.75
1026.377	798.75
1026.591	853.75
1026.805	793.75
1027.019	778.75
1027.233	750.75
1027.447	701.75
1027.661	793.75
1027.875	733.75
1028.088	736.75
1028.302	677.75
1028.516	671.75
1028.73	676.75
1028.943	645.75
1029.157	599.75
1029.37	557.75
1029.584	-2.25
1029.797	-0.25
1030.011	-5.25
1030.224	-1.25
