Data from QEP037381__226__10-52-24-539.txt Node

Date: Wed Dec 21 10:52:24 EST 2022
User: dcclab
Spectrometer: QEP03738
Trigger mode: 4
Integration Time (sec): 1.000000E1
Scans to average: 1
Electric dark correction enabled: true
Nonlinearity correction enabled: false
Boxcar width: 0
XAxis mode: Wavelengths
Number of Pixels in Spectrum: 1044
>>>>>Begin Spectral Data<<<<<
784.041	15.38
784.3	0.38
784.558	-5.62
784.817	-0.62
785.075	106016.38
785.334	18580.38
785.592	8737.38
785.851	5979.38
786.109	4469.38
786.368	3487.38
786.626	2812.38
786.884	2326.38
787.143	1937.38
787.401	1626.38
787.659	1432.38
787.917	1228.38
788.175	1109.38
788.433	972.38
788.691	891.38
788.949	797.38
789.207	779.38
789.465	667.38
789.723	650.38
789.98	596.38
790.238	611.38
790.496	594.38
790.753	561.38
791.011	598.38
791.268	529.38
791.526	534.38
791.783	532.38
792.041	514.38
792.298	440.38
792.556	495.38
792.813	471.38
793.07	462.38
793.327	439.38
793.584	527.38
793.841	437.38
794.099	459.38
794.356	505.38
794.613	418.38
794.869	467.38
795.126	412.38
795.383	392.38
795.64	406.38
795.897	382.38
796.153	423.38
796.41	408.38
796.667	393.38
796.923	395.38
797.18	394.38
797.436	421.38
797.693	386.38
797.949	439.38
798.206	475.38
798.462	372.38
798.718	423.38
798.974	405.38
799.231	444.38
799.487	442.38
799.743	443.38
799.999	463.38
800.255	463.38
800.511	430.38
800.767	454.38
801.023	451.38
801.279	458.38
801.534	485.38
801.79	520.38
802.046	511.38
802.302	601.38
802.557	635.38
802.813	770.38
803.068	870.38
803.324	1123.38
803.579	1473.38
803.835	1956.38
804.09	2657.38
804.345	3449.38
804.601	4308.38
804.856	5153.38
805.111	5918.38
805.366	6511.38
805.621	6900.38
805.876	7161.38
806.131	7395.38
806.386	7434.38
806.641	7522.38
806.896	7679.38
807.151	7842.38
807.406	7871.38
807.661	8067.38
807.915	8153.38
808.17	8277.38
808.425	8378.38
808.679	8361.38
808.934	8613.38
809.188	8530.38
809.443	8662.38
809.697	8771.38
809.951	8737.38
810.206	8806.38
810.46	9008.38
810.714	9069.38
810.968	9096.38
811.223	9154.38
811.477	9208.38
811.731	9348.38
811.985	9316.38
812.239	9319.38
812.493	9408.38
812.747	9453.38
813	9437.38
813.254	9576.38
813.508	9559.38
813.762	9524.38
814.015	9585.38
814.269	9677.38
814.522	9778.38
814.776	9863.38
815.03	9938.38
815.283	10088.38
815.536	10226.38
815.79	10398.38
816.043	10572.38
816.296	10677.38
816.55	10688.38
816.803	10935.38
817.056	11012.38
817.309	11097.38
817.562	11231.38
817.815	11321.38
818.068	11414.38
818.321	11563.38
818.574	11623.38
818.827	11796.38
819.079	11941.38
819.332	12235.38
819.585	12241.38
819.838	12470.38
820.09	12509.38
820.343	12555.38
820.595	12557.38
820.848	12682.38
821.1	12778.38
821.353	12713.38
821.605	12684.38
821.857	12817.38
822.11	12598.38
822.362	12664.38
822.614	12609.38
822.866	12650.38
823.118	12645.38
823.37	12769.38
823.622	12743.38
823.874	12818.38
824.126	12870.38
824.378	12831.38
824.63	12834.38
824.882	12888.38
825.134	12899.38
825.385	12824.38
825.637	12728.38
825.888	12644.38
826.14	12685.38
826.392	12663.38
826.643	12590.38
826.895	12518.38
827.146	12455.38
827.397	12323.38
827.649	12581.38
827.9	12453.38
828.151	12418.38
828.402	12472.38
828.653	12560.38
828.905	12530.38
829.156	12545.38
829.407	12545.38
829.658	12531.38
829.909	12617.38
830.159	12586.38
830.41	12575.38
830.661	12468.38
830.912	12356.38
831.162	12273.38
831.413	12330.38
831.664	12245.38
831.914	12358.38
832.165	12365.38
832.415	12218.38
832.666	12189.38
832.916	12321.38
833.167	12262.38
833.417	12296.38
833.667	12166.38
833.917	12143.38
834.168	12188.38
834.418	12147.38
834.668	12059.38
834.918	12031.38
835.168	11981.38
835.418	11921.38
835.668	11975.38
835.918	11928.38
836.167	11879.38
836.417	11833.38
836.667	11806.38
836.917	11796.38
837.166	11715.38
837.416	11852.38
837.666	11826.38
837.915	11790.38
838.165	11675.38
838.414	11641.38
838.663	11588.38
838.913	11663.38
839.162	11608.38
839.411	11637.38
839.661	11564.38
839.91	11666.38
840.159	11659.38
840.408	11598.38
840.657	11603.38
840.906	11613.38
841.155	11569.38
841.404	11623.38
841.653	11618.38
841.902	11483.38
842.15	11605.38
842.399	11641.38
842.648	11588.38
842.897	11634.38
843.145	11449.38
843.394	11374.38
843.642	11267.38
843.891	11361.38
844.139	11239.38
844.388	11160.38
844.636	11066.38
844.884	11072.38
845.133	11094.38
845.381	11116.38
845.629	11136.38
845.877	11059.38
846.125	11067.38
846.373	11042.38
846.621	10971.38
846.869	11004.38
847.117	10940.38
847.365	10867.38
847.613	10812.38
847.861	10825.38
848.108	10879.38
848.356	10847.38
848.604	10743.38
848.851	10781.38
849.099	10803.38
849.346	10807.38
849.594	10827.38
849.841	10890.38
850.089	10964.38
850.336	10951.38
850.583	10955.38
850.831	10980.38
851.078	10817.38
851.325	10729.38
851.572	10809.38
851.819	10737.38
852.066	10486.38
852.313	10348.38
852.56	10220.38
852.807	10141.38
853.054	10178.38
853.301	10200.38
853.548	10231.38
853.794	10311.38
854.041	10391.38
854.288	10367.38
854.534	10497.38
854.781	10489.38
855.028	10367.38
855.274	10488.38
855.52	10428.38
855.767	10341.38
856.013	10372.38
856.26	10614.38
856.506	10155.38
856.752	10243.38
856.998	10172.38
857.244	10234.38
857.49	10258.38
857.736	10412.38
857.982	10321.38
858.228	10273.38
858.474	10185.38
858.72	10137.38
858.966	10017.38
859.212	9899.38
859.458	9861.38
859.703	9715.38
859.949	9707.38
860.195	9595.38
860.44	9524.38
860.686	9549.38
860.931	9537.38
861.177	9465.38
861.422	9398.38
861.667	9298.38
861.913	9281.38
862.158	9316.38
862.403	9364.38
862.648	9382.38
862.893	9447.38
863.138	9435.38
863.384	9340.38
863.629	9398.38
863.873	9338.38
864.118	9314.38
864.363	9223.38
864.608	9220.38
864.853	9186.38
865.098	9096.38
865.342	9120.38
865.587	9063.38
865.832	9016.38
866.076	9055.38
866.321	8977.38
866.565	8984.38
866.81	8828.38
867.054	8963.38
867.298	8906.38
867.543	8831.38
867.787	8853.38
868.031	8818.38
868.275	8810.38
868.519	8860.38
868.764	8822.38
869.008	8792.38
869.252	8790.38
869.496	8705.38
869.739	8763.38
869.983	8807.38
870.227	8759.38
870.471	8734.38
870.715	8860.38
870.958	8849.38
871.202	8822.38
871.446	8865.38
871.689	8835.38
871.933	8821.38
872.176	8890.38
872.42	8783.38
872.663	8793.38
872.906	8792.38
873.15	8830.38
873.393	8735.38
873.636	8781.38
873.879	8697.38
874.122	8628.38
874.366	8496.38
874.609	8457.38
874.852	8310.38
875.095	8258.38
875.337	8260.38
875.58	8137.38
875.823	8154.38
876.066	8158.38
876.309	8151.38
876.551	8067.38
876.794	7959.38
877.037	8033.38
877.279	7932.38
877.522	7974.38
877.764	8016.38
878.007	7878.38
878.249	7905.38
878.491	7944.38
878.734	7949.38
878.976	7855.38
879.218	7806.38
879.46	7813.38
879.702	7760.38
879.945	7629.38
880.187	7596.38
880.429	7563.38
880.671	7491.38
880.912	7431.38
881.154	7434.38
881.396	7368.38
881.638	7406.38
881.88	7423.38
882.121	7416.38
882.363	7393.38
882.605	7438.38
882.846	7438.38
883.088	7361.38
883.329	7348.38
883.571	7430.38
883.812	7530.38
884.053	7701.38
884.295	7967.38
884.536	8041.38
884.777	7985.38
885.018	7941.38
885.259	7826.38
885.5	7748.38
885.742	7969.38
885.982	7774.38
886.223	7604.38
886.464	7601.38
886.705	7480.38
886.946	7434.38
887.187	7234.38
887.428	7165.38
887.668	7043.38
887.909	6936.38
888.15	6860.38
888.39	6858.38
888.631	6795.38
888.871	6731.38
889.111	6678.38
889.352	6613.38
889.592	6540.38
889.833	6501.38
890.073	6523.38
890.313	6497.38
890.553	6332.38
890.793	6341.38
891.033	6266.38
891.273	6292.38
891.513	6290.38
891.753	6297.38
891.993	6256.38
892.233	6226.38
892.473	6282.38
892.713	6314.38
892.952	6248.38
893.192	6170.38
893.432	6202.38
893.671	6286.38
893.911	6221.38
894.15	6197.38
894.39	6101.38
894.629	6097.38
894.869	6147.38
895.108	6039.38
895.347	5930.38
895.587	6028.38
895.826	5942.38
896.065	5971.38
896.304	5967.38
896.543	6025.38
896.782	5875.38
897.021	5947.38
897.26	5896.38
897.499	5904.38
897.738	5930.38
897.977	5856.38
898.216	5779.38
898.454	5726.38
898.693	5690.38
898.932	5757.38
899.17	5646.38
899.409	5661.38
899.647	5673.38
899.886	5626.38
900.124	5698.38
900.363	5645.38
900.601	5629.38
900.839	5671.38
901.078	5699.38
901.316	5730.38
901.554	5760.38
901.792	5741.38
902.03	5724.38
902.268	5780.38
902.506	5756.38
902.744	5755.38
902.982	5745.38
903.22	5573.38
903.458	5471.38
903.695	5491.38
903.933	5380.38
904.171	5243.38
904.409	5185.38
904.646	5186.38
904.884	5087.38
905.121	5138.38
905.359	5016.38
905.596	5007.38
905.833	4882.38
906.071	4835.38
906.308	4887.38
906.545	4895.38
906.783	4794.38
907.02	4847.38
907.257	4780.38
907.494	4823.38
907.731	4794.38
907.968	4816.38
908.205	4789.38
908.442	4747.38
908.679	4641.38
908.915	4682.38
909.152	4640.38
909.389	4541.38
909.626	4509.38
909.862	4489.38
910.099	4523.38
910.335	4505.38
910.572	4432.38
910.808	4520.38
911.045	4430.38
911.281	4435.38
911.518	4431.38
911.754	4400.38
911.99	4375.38
912.226	4351.38
912.463	4300.38
912.699	4214.38
912.935	4240.38
913.171	4254.38
913.407	4148.38
913.643	4195.38
913.879	4135.38
914.114	4081.38
914.35	4004.38
914.586	4041.38
914.822	3976.38
915.057	4021.38
915.293	3932.38
915.529	3887.38
915.764	3958.38
916	3945.38
916.235	3879.38
916.471	3987.38
916.706	3797.38
916.941	3853.38
917.177	3814.38
917.412	3903.38
917.647	3884.38
917.882	3822.38
918.117	3844.38
918.352	3890.38
918.588	3830.38
918.823	3767.38
919.057	3761.38
919.292	3626.38
919.527	3749.38
919.762	3622.38
919.997	3706.38
920.232	3628.38
920.466	3649.38
920.701	3466.38
920.935	3526.38
921.17	3466.38
921.405	3455.38
921.639	3509.38
921.873	3399.38
922.108	3489.38
922.342	3456.38
922.576	3400.38
922.811	3403.38
923.045	3406.38
923.279	3421.38
923.513	3341.38
923.747	3418.38
923.981	3328.38
924.215	3287.38
924.449	3278.38
924.683	3223.38
924.917	3239.38
925.151	3197.38
925.385	3284.38
925.618	3236.38
925.852	3215.38
926.086	3164.38
926.319	3198.38
926.553	3183.38
926.786	3173.38
927.02	3190.38
927.253	3215.38
927.486	3227.38
927.72	3155.38
927.953	3221.38
928.186	3181.38
928.42	3180.38
928.653	3124.38
928.886	3116.38
929.119	3121.38
929.352	3111.38
929.585	3099.38
929.818	3049.38
930.051	3048.38
930.284	3059.38
930.516	2967.38
930.749	2966.38
930.982	3031.38
931.215	2999.38
931.447	2882.38
931.68	2941.38
931.912	2896.38
932.145	2913.38
932.377	2930.38
932.61	3022.38
932.842	2877.38
933.074	2929.38
933.307	2869.38
933.539	2939.38
933.771	2958.38
934.003	2895.38
934.236	2979.38
934.468	2989.38
934.7	2903.38
934.932	2928.38
935.164	2900.38
935.395	2838.38
935.627	2843.38
935.859	2833.38
936.091	2788.38
936.323	2861.38
936.554	2926.38
936.786	2800.38
937.017	2767.38
937.249	2772.38
937.481	2725.38
937.712	2813.38
937.943	2784.38
938.175	2710.38
938.406	2767.38
938.637	2822.38
938.869	2737.38
939.1	2778.38
939.331	2754.38
939.562	2764.38
939.793	2771.38
940.024	2735.38
940.255	2772.38
940.486	2705.38
940.717	2696.38
940.948	2720.38
941.179	2626.38
941.409	2697.38
941.64	2638.38
941.871	2683.38
942.102	2647.38
942.332	2632.38
942.563	2694.38
942.793	2654.38
943.024	2623.38
943.254	2660.38
943.484	2669.38
943.715	2701.38
943.945	2648.38
944.175	2584.38
944.405	2589.38
944.636	2591.38
944.866	2650.38
945.096	2620.38
945.326	2579.38
945.556	2611.38
945.786	2633.38
946.016	2581.38
946.245	2545.38
946.475	2543.38
946.705	2541.38
946.935	2541.38
947.164	2528.38
947.394	2462.38
947.624	2515.38
947.853	2530.38
948.083	2486.38
948.312	2474.38
948.542	2415.38
948.771	2378.38
949	2397.38
949.23	2435.38
949.459	2441.38
949.688	2487.38
949.917	2417.38
950.146	2473.38
950.375	2473.38
950.604	2378.38
950.833	2486.38
951.062	2484.38
951.291	2430.38
951.52	2388.38
951.749	2418.38
951.978	2344.38
952.206	2357.38
952.435	2399.38
952.664	2418.38
952.892	2409.38
953.121	2369.38
953.349	2391.38
953.578	2362.38
953.806	2363.38
954.035	2287.38
954.263	2319.38
954.491	2307.38
954.719	2308.38
954.948	2282.38
955.176	2262.38
955.404	2224.38
955.632	2303.38
955.86	2293.38
956.088	2274.38
956.316	2280.38
956.544	2284.38
956.772	2251.38
956.999	2198.38
957.227	2289.38
957.455	2133.38
957.683	2206.38
957.91	2137.38
958.138	2158.38
958.365	2173.38
958.593	2170.38
958.82	2143.38
959.048	2202.38
959.275	2145.38
959.502	2142.38
959.73	2109.38
959.957	2110.38
960.184	2147.38
960.411	2060.38
960.638	2171.38
960.865	2081.38
961.092	2157.38
961.319	2024.38
961.546	2174.38
961.773	2120.38
962	2087.38
962.227	2169.38
962.454	2104.38
962.68	2079.38
962.907	2103.38
963.134	2061.38
963.36	2070.38
963.587	2084.38
963.813	2027.38
964.04	2056.38
964.266	1974.38
964.493	2077.38
964.719	2051.38
964.945	2032.38
965.171	1929.38
965.398	2001.38
965.624	2039.38
965.85	1968.38
966.076	1971.38
966.302	2012.38
966.528	1961.38
966.754	1975.38
966.98	1978.38
967.206	1968.38
967.431	1886.38
967.657	1973.38
967.883	1929.38
968.109	1945.38
968.334	1886.38
968.56	1873.38
968.785	1883.38
969.011	1854.38
969.236	1910.38
969.462	1890.38
969.687	1897.38
969.912	1909.38
970.138	1919.38
970.363	1854.38
970.588	1879.38
970.813	1847.38
971.038	1820.38
971.263	1872.38
971.488	1869.38
971.713	1897.38
971.938	1866.38
972.163	1758.38
972.388	1821.38
972.613	1787.38
972.838	1827.38
973.062	1804.38
973.287	1770.38
973.512	1724.38
973.736	1779.38
973.961	1773.38
974.185	1726.38
974.41	1777.38
974.634	1697.38
974.858	1693.38
975.083	1732.38
975.307	1740.38
975.531	1695.38
975.755	1658.38
975.98	1665.38
976.204	1630.38
976.428	1626.38
976.652	1610.38
976.876	1615.38
977.1	1656.38
977.324	1599.38
977.547	1672.38
977.771	1661.38
977.995	1602.38
978.219	1576.38
978.442	1679.38
978.666	1588.38
978.89	1628.38
979.113	1629.38
979.337	1611.38
979.56	1558.38
979.783	1665.38
980.007	1527.38
980.23	1576.38
980.453	1554.38
980.677	1579.38
980.9	1586.38
981.123	1482.38
981.346	1592.38
981.569	1554.38
981.792	1598.38
982.015	1545.38
982.238	1515.38
982.461	1525.38
982.684	1523.38
982.907	1487.38
983.129	1475.38
983.352	1539.38
983.575	1495.38
983.797	1518.38
984.02	1463.38
984.242	1472.38
984.465	1504.38
984.687	1525.38
984.91	1528.38
985.132	1499.38
985.354	1537.38
985.577	1454.38
985.799	1467.38
986.021	1399.38
986.243	1448.38
986.465	1445.38
986.687	1475.38
986.909	1513.38
987.131	1458.38
987.353	1425.38
987.575	1437.38
987.797	1413.38
988.019	1349.38
988.241	1421.38
988.462	1382.38
988.684	1445.38
988.906	1453.38
989.127	1485.38
989.349	1388.38
989.57	1399.38
989.792	1434.38
990.013	1452.38
990.234	1463.38
990.456	1481.38
990.677	1461.38
990.898	1426.38
991.119	1403.38
991.341	1438.38
991.562	1369.38
991.783	1418.38
992.004	1356.38
992.225	1328.38
992.446	1382.38
992.667	1287.38
992.887	1395.38
993.108	1287.38
993.329	1405.38
993.55	1346.38
993.77	1274.38
993.991	1313.38
994.212	1337.38
994.432	1330.38
994.653	1356.38
994.873	1338.38
995.093	1233.38
995.314	1271.38
995.534	1331.38
995.754	1380.38
995.975	1411.38
996.195	1252.38
996.415	1322.38
996.635	1309.38
996.855	1311.38
997.075	1300.38
997.295	1308.38
997.515	1267.38
997.735	1334.38
997.955	1301.38
998.174	1289.38
998.394	1248.38
998.614	1305.38
998.834	1273.38
999.053	1352.38
999.273	1313.38
999.492	1353.38
999.712	1277.38
999.931	1237.38
1000.151	1301.38
1000.37	1293.38
1000.589	1317.38
1000.809	1234.38
1001.028	1368.38
1001.247	1307.38
1001.466	1207.38
1001.685	1344.38
1001.904	1273.38
1002.123	1271.38
1002.342	1266.38
1002.561	1244.38
1002.78	1261.38
1002.999	1331.38
1003.218	1251.38
1003.436	1261.38
1003.655	1310.38
1003.874	1235.38
1004.092	1266.38
1004.311	1318.38
1004.53	1251.38
1004.748	1346.38
1004.966	1262.38
1005.185	1321.38
1005.403	1302.38
1005.622	1272.38
1005.84	1354.38
1006.058	1253.38
1006.276	1274.38
1006.494	1755.38
1006.712	1270.38
1006.931	1351.38
1007.149	1245.38
1007.367	1233.38
1007.584	1268.38
1007.802	1327.38
1008.02	1256.38
1008.238	1336.38
1008.456	1371.38
1008.673	1218.38
1008.891	1340.38
1009.109	1291.38
1009.326	1338.38
1009.544	1453.38
1009.761	1325.38
1009.979	1417.38
1010.196	1463.38
1010.413	1518.38
1010.631	1566.38
1010.848	1593.38
1011.065	1601.38
1011.282	1585.38
1011.5	1503.38
1011.717	1619.38
1011.934	1550.38
1012.151	1582.38
1012.368	1571.38
1012.585	1489.38
1012.801	1551.38
1013.018	1516.38
1013.235	1512.38
1013.452	1525.38
1013.669	1508.38
1013.885	1510.38
1014.102	1556.38
1014.318	1530.38
1014.535	1487.38
1014.751	1536.38
1014.968	1500.38
1015.184	1516.38
1015.401	1438.38
1015.617	1480.38
1015.833	1430.38
1016.049	1413.38
1016.266	1403.38
1016.482	1429.38
1016.698	1334.38
1016.914	1400.38
1017.13	1343.38
1017.346	1343.38
1017.562	1410.38
1017.778	1315.38
1017.993	1299.38
1018.209	1352.38
1018.425	1334.38
1018.641	1294.38
1018.856	1295.38
1019.072	1306.38
1019.288	1361.38
1019.503	1299.38
1019.719	1218.38
1019.934	1241.38
1020.149	1324.38
1020.365	1250.38
1020.58	1187.38
1020.795	1257.38
1021.011	1178.38
1021.226	1146.38
1021.441	1181.38
1021.656	1099.38
1021.871	1047.38
1022.086	1077.38
1022.301	1048.38
1022.516	1003.38
1022.731	1102.38
1022.946	1005.38
1023.16	1003.38
1023.375	950.38
1023.59	948.38
1023.804	918.38
1024.019	1025.38
1024.234	883.38
1024.448	910.38
1024.663	824.38
1024.877	867.38
1025.092	867.38
1025.306	899.38
1025.52	782.38
1025.734	871.38
1025.949	808.38
1026.163	772.38
1026.377	706.38
1026.591	772.38
1026.805	697.38
1027.019	695.38
1027.233	666.38
1027.447	616.38
1027.661	729.38
1027.875	661.38
1028.088	674.38
1028.302	593.38
1028.516	585.38
1028.73	596.38
1028.943	591.38
1029.157	553.38
1029.37	525.38
1029.584	-4.62
1029.797	-1.62
1030.011	-3.62
1030.224	0.38
