Data from QEP037381__217__10-50-54-540.txt Node

Date: Wed Dec 21 10:50:54 EST 2022
User: dcclab
Spectrometer: QEP03738
Trigger mode: 4
Integration Time (sec): 1.000000E1
Scans to average: 1
Electric dark correction enabled: true
Nonlinearity correction enabled: false
Boxcar width: 0
XAxis mode: Wavelengths
Number of Pixels in Spectrum: 1044
>>>>>Begin Spectral Data<<<<<
784.041	12.12
784.3	0.12
784.558	-0.88
784.817	-3.88
785.075	106161.12
785.334	18386.12
785.592	8584.12
785.851	5932.12
786.109	4392.12
786.368	3451.12
786.626	2774.12
786.884	2285.12
787.143	1968.12
787.401	1595.12
787.659	1453.12
787.917	1242.12
788.175	1143.12
788.433	965.12
788.691	875.12
788.949	808.12
789.207	761.12
789.465	675.12
789.723	656.12
789.98	597.12
790.238	616.12
790.496	589.12
790.753	565.12
791.011	611.12
791.268	542.12
791.526	525.12
791.783	538.12
792.041	523.12
792.298	445.12
792.556	500.12
792.813	465.12
793.07	456.12
793.327	442.12
793.584	510.12
793.841	440.12
794.099	458.12
794.356	510.12
794.613	432.12
794.869	449.12
795.126	424.12
795.383	392.12
795.64	423.12
795.897	369.12
796.153	437.12
796.41	411.12
796.667	384.12
796.923	408.12
797.18	403.12
797.436	425.12
797.693	399.12
797.949	447.12
798.206	485.12
798.462	390.12
798.718	451.12
798.974	408.12
799.231	450.12
799.487	440.12
799.743	442.12
799.999	458.12
800.255	483.12
800.511	447.12
800.767	484.12
801.023	454.12
801.279	491.12
801.534	524.12
801.79	556.12
802.046	556.12
802.302	651.12
802.557	733.12
802.813	865.12
803.068	1020.12
803.324	1367.12
803.579	1778.12
803.835	2430.12
804.09	3276.12
804.345	4206.12
804.601	5261.12
804.856	6348.12
805.111	7293.12
805.366	8050.12
805.621	8585.12
805.876	8933.12
806.131	9091.12
806.386	9241.12
806.641	9371.12
806.896	9574.12
807.151	9695.12
807.406	9900.12
807.661	10098.12
807.915	10237.12
808.17	10393.12
808.425	10523.12
808.679	10452.12
808.934	10705.12
809.188	10729.12
809.443	10931.12
809.697	10999.12
809.951	11044.12
810.206	11108.12
810.46	11218.12
810.714	11380.12
810.968	11436.12
811.223	11470.12
811.477	11607.12
811.731	11687.12
811.985	11657.12
812.239	11730.12
812.493	11840.12
812.747	11830.12
813	11883.12
813.254	11939.12
813.508	11961.12
813.762	12031.12
814.015	12041.12
814.269	12143.12
814.522	12253.12
814.776	12423.12
815.03	12525.12
815.283	12664.12
815.536	12869.12
815.79	13139.12
816.043	13278.12
816.296	13445.12
816.55	13540.12
816.803	13845.12
817.056	14017.12
817.309	14029.12
817.562	14186.12
817.815	14364.12
818.068	14384.12
818.321	14548.12
818.574	14688.12
818.827	14957.12
819.079	15083.12
819.332	15540.12
819.585	15586.12
819.838	15757.12
820.09	15790.12
820.343	15820.12
820.595	15840.12
820.848	16053.12
821.1	16126.12
821.353	16055.12
821.605	16072.12
821.857	16101.12
822.11	15964.12
822.362	15947.12
822.614	15871.12
822.866	15879.12
823.118	15846.12
823.37	16046.12
823.622	15982.12
823.874	16110.12
824.126	16173.12
824.378	16135.12
824.63	16123.12
824.882	16155.12
825.134	16225.12
825.385	16169.12
825.637	16146.12
825.888	16004.12
826.14	16068.12
826.392	15934.12
826.643	15800.12
826.895	15762.12
827.146	15785.12
827.397	15627.12
827.649	15733.12
827.9	15651.12
828.151	15583.12
828.402	15655.12
828.653	15660.12
828.905	15707.12
829.156	15870.12
829.407	15756.12
829.658	15799.12
829.909	15825.12
830.159	15857.12
830.41	15837.12
830.661	15630.12
830.912	15578.12
831.162	15476.12
831.413	15521.12
831.664	15404.12
831.914	15459.12
832.165	15414.12
832.415	15378.12
832.666	15342.12
832.916	15453.12
833.167	15471.12
833.417	15459.12
833.667	15410.12
833.917	15383.12
834.168	15363.12
834.418	15367.12
834.668	15236.12
834.918	15118.12
835.168	15104.12
835.418	15001.12
835.668	15024.12
835.918	14990.12
836.167	14974.12
836.417	14875.12
836.667	14817.12
836.917	14900.12
837.166	14758.12
837.416	14885.12
837.666	14838.12
837.915	14778.12
838.165	14769.12
838.414	14732.12
838.663	14646.12
838.913	14663.12
839.162	14660.12
839.411	14588.12
839.661	14502.12
839.91	14546.12
840.159	14524.12
840.408	14545.12
840.657	14563.12
840.906	14620.12
841.155	14525.12
841.404	14473.12
841.653	14671.12
841.902	14563.12
842.15	14631.12
842.399	14650.12
842.648	14522.12
842.897	14467.12
843.145	14333.12
843.394	14386.12
843.642	14193.12
843.891	14196.12
844.139	14102.12
844.388	14005.12
844.636	13887.12
844.884	13848.12
845.133	13861.12
845.381	13891.12
845.629	13906.12
845.877	13878.12
846.125	13842.12
846.373	13831.12
846.621	13747.12
846.869	13763.12
847.117	13652.12
847.365	13605.12
847.613	13507.12
847.861	13562.12
848.108	13497.12
848.356	13520.12
848.604	13522.12
848.851	13501.12
849.099	13506.12
849.346	13469.12
849.594	13604.12
849.841	13711.12
850.089	13735.12
850.336	13673.12
850.583	13760.12
850.831	13619.12
851.078	13581.12
851.325	13532.12
851.572	13586.12
851.819	13376.12
852.066	13129.12
852.313	12945.12
852.56	12841.12
852.807	12769.12
853.054	12694.12
853.301	12748.12
853.548	12768.12
853.794	12893.12
854.041	12840.12
854.288	12958.12
854.534	13112.12
854.781	13037.12
855.028	13017.12
855.274	12998.12
855.52	12816.12
855.767	12831.12
856.013	12946.12
856.26	13121.12
856.506	12728.12
856.752	12691.12
856.998	12672.12
857.244	12740.12
857.49	12808.12
857.736	12746.12
857.982	12791.12
858.228	12818.12
858.474	12582.12
858.72	12671.12
858.966	12480.12
859.212	12344.12
859.458	12222.12
859.703	12054.12
859.949	11907.12
860.195	11964.12
860.44	11852.12
860.686	11804.12
860.931	11898.12
861.177	11732.12
861.422	11678.12
861.667	11638.12
861.913	11536.12
862.158	11578.12
862.403	11615.12
862.648	11738.12
862.893	11644.12
863.138	11676.12
863.384	11643.12
863.629	11707.12
863.873	11686.12
864.118	11592.12
864.363	11427.12
864.608	11460.12
864.853	11426.12
865.098	11292.12
865.342	11382.12
865.587	11196.12
865.832	11308.12
866.076	11175.12
866.321	11225.12
866.565	11142.12
866.81	11048.12
867.054	11068.12
867.298	11059.12
867.543	11018.12
867.787	11010.12
868.031	10977.12
868.275	11059.12
868.519	10938.12
868.764	10978.12
869.008	10914.12
869.252	11019.12
869.496	10894.12
869.739	10893.12
869.983	10873.12
870.227	10858.12
870.471	10847.12
870.715	10905.12
870.958	10943.12
871.202	10961.12
871.446	10909.12
871.689	10982.12
871.933	10988.12
872.176	10949.12
872.42	10903.12
872.663	10866.12
872.906	10891.12
873.15	10873.12
873.393	10871.12
873.636	10944.12
873.879	10778.12
874.122	10646.12
874.366	10475.12
874.609	10366.12
874.852	10326.12
875.095	10241.12
875.337	10181.12
875.58	10075.12
875.823	10052.12
876.066	10037.12
876.309	10068.12
876.551	9951.12
876.794	9929.12
877.037	9961.12
877.279	9847.12
877.522	9845.12
877.764	9900.12
878.007	9846.12
878.249	9856.12
878.491	9801.12
878.734	9800.12
878.976	9685.12
879.218	9671.12
879.46	9628.12
879.702	9608.12
879.945	9495.12
880.187	9375.12
880.429	9354.12
880.671	9306.12
880.912	9295.12
881.154	9234.12
881.396	9196.12
881.638	9229.12
881.88	9098.12
882.121	9147.12
882.363	9115.12
882.605	9182.12
882.846	9128.12
883.088	9183.12
883.329	9116.12
883.571	9093.12
883.812	9292.12
884.053	9528.12
884.295	9670.12
884.536	9811.12
884.777	9747.12
885.018	9707.12
885.259	9579.12
885.5	9527.12
885.742	9784.12
885.982	9480.12
886.223	9373.12
886.464	9274.12
886.705	9210.12
886.946	9095.12
887.187	8915.12
887.428	8860.12
887.668	8653.12
887.909	8633.12
888.15	8454.12
888.39	8395.12
888.631	8319.12
888.871	8251.12
889.111	8278.12
889.352	8204.12
889.592	8138.12
889.833	8024.12
890.073	7993.12
890.313	8027.12
890.553	7782.12
890.793	7863.12
891.033	7797.12
891.273	7719.12
891.513	7760.12
891.753	7732.12
891.993	7708.12
892.233	7772.12
892.473	7795.12
892.713	7770.12
892.952	7675.12
893.192	7759.12
893.432	7746.12
893.671	7770.12
893.911	7642.12
894.15	7668.12
894.39	7524.12
894.629	7533.12
894.869	7481.12
895.108	7448.12
895.347	7435.12
895.587	7459.12
895.826	7368.12
896.065	7318.12
896.304	7372.12
896.543	7318.12
896.782	7271.12
897.021	7314.12
897.26	7324.12
897.499	7298.12
897.738	7257.12
897.977	7233.12
898.216	7127.12
898.454	7059.12
898.693	7050.12
898.932	7064.12
899.17	6984.12
899.409	7004.12
899.647	6985.12
899.886	6951.12
900.124	6960.12
900.363	6924.12
900.601	6951.12
900.839	6981.12
901.078	7054.12
901.316	7023.12
901.554	7067.12
901.792	7168.12
902.03	7083.12
902.268	7082.12
902.506	7119.12
902.744	7015.12
902.982	6994.12
903.22	6858.12
903.458	6741.12
903.695	6702.12
903.933	6631.12
904.171	6481.12
904.409	6386.12
904.646	6304.12
904.884	6229.12
905.121	6284.12
905.359	6153.12
905.596	6079.12
905.833	6031.12
906.071	5948.12
906.308	6063.12
906.545	5985.12
906.783	5923.12
907.02	5928.12
907.257	5845.12
907.494	5874.12
907.731	5938.12
907.968	5875.12
908.205	5803.12
908.442	5782.12
908.679	5765.12
908.915	5730.12
909.152	5711.12
909.389	5594.12
909.626	5574.12
909.862	5518.12
910.099	5490.12
910.335	5532.12
910.572	5430.12
910.808	5421.12
911.045	5462.12
911.281	5397.12
911.518	5444.12
911.754	5352.12
911.99	5376.12
912.226	5341.12
912.463	5227.12
912.699	5186.12
912.935	5174.12
913.171	5167.12
913.407	5061.12
913.643	5131.12
913.879	5061.12
914.114	4932.12
914.35	4953.12
914.586	4899.12
914.822	4825.12
915.057	4906.12
915.293	4732.12
915.529	4743.12
915.764	4831.12
916	4744.12
916.235	4748.12
916.471	4762.12
916.706	4711.12
916.941	4682.12
917.177	4726.12
917.412	4760.12
917.647	4742.12
917.882	4661.12
918.117	4721.12
918.352	4677.12
918.588	4652.12
918.823	4590.12
919.057	4584.12
919.292	4464.12
919.527	4582.12
919.762	4371.12
919.997	4437.12
920.232	4349.12
920.466	4392.12
920.701	4234.12
920.935	4251.12
921.17	4183.12
921.405	4180.12
921.639	4254.12
921.873	4169.12
922.108	4203.12
922.342	4214.12
922.576	4159.12
922.811	4101.12
923.045	4107.12
923.279	4156.12
923.513	4045.12
923.747	4071.12
923.981	4057.12
924.215	4030.12
924.449	3987.12
924.683	3955.12
924.917	3940.12
925.151	3929.12
925.385	3978.12
925.618	3907.12
925.852	3905.12
926.086	3850.12
926.319	3903.12
926.553	3906.12
926.786	3868.12
927.02	3858.12
927.253	3907.12
927.486	3886.12
927.72	3794.12
927.953	3860.12
928.186	3806.12
928.42	3844.12
928.653	3788.12
928.886	3769.12
929.119	3767.12
929.352	3778.12
929.585	3741.12
929.818	3650.12
930.051	3686.12
930.284	3652.12
930.516	3573.12
930.749	3552.12
930.982	3604.12
931.215	3556.12
931.447	3506.12
931.68	3471.12
931.912	3492.12
932.145	3501.12
932.377	3519.12
932.61	3641.12
932.842	3471.12
933.074	3532.12
933.307	3453.12
933.539	3584.12
933.771	3539.12
934.003	3463.12
934.236	3564.12
934.468	3594.12
934.7	3493.12
934.932	3554.12
935.164	3469.12
935.395	3438.12
935.627	3391.12
935.859	3445.12
936.091	3399.12
936.323	3418.12
936.554	3452.12
936.786	3420.12
937.017	3337.12
937.249	3347.12
937.481	3329.12
937.712	3370.12
937.943	3318.12
938.175	3344.12
938.406	3315.12
938.637	3407.12
938.869	3296.12
939.1	3357.12
939.331	3263.12
939.562	3327.12
939.793	3280.12
940.024	3338.12
940.255	3307.12
940.486	3259.12
940.717	3259.12
940.948	3208.12
941.179	3154.12
941.409	3189.12
941.64	3185.12
941.871	3242.12
942.102	3158.12
942.332	3200.12
942.563	3190.12
942.793	3189.12
943.024	3143.12
943.254	3146.12
943.484	3214.12
943.715	3186.12
943.945	3200.12
944.175	3097.12
944.405	3090.12
944.636	3100.12
944.866	3133.12
945.096	3153.12
945.326	3086.12
945.556	3144.12
945.786	3165.12
946.016	3093.12
946.245	3034.12
946.475	3050.12
946.705	3030.12
946.935	3023.12
947.164	3049.12
947.394	2980.12
947.624	3000.12
947.853	3005.12
948.083	2982.12
948.312	2954.12
948.542	2844.12
948.771	2866.12
949	2855.12
949.23	2885.12
949.459	2903.12
949.688	2957.12
949.917	2897.12
950.146	2902.12
950.375	2951.12
950.604	2855.12
950.833	2937.12
951.062	2923.12
951.291	2902.12
951.52	2882.12
951.749	2829.12
951.978	2840.12
952.206	2857.12
952.435	2842.12
952.664	2846.12
952.892	2872.12
953.121	2825.12
953.349	2831.12
953.578	2866.12
953.806	2802.12
954.035	2761.12
954.263	2777.12
954.491	2713.12
954.719	2814.12
954.948	2724.12
955.176	2674.12
955.404	2647.12
955.632	2720.12
955.86	2692.12
956.088	2674.12
956.316	2695.12
956.544	2697.12
956.772	2597.12
956.999	2613.12
957.227	2720.12
957.455	2616.12
957.683	2585.12
957.91	2557.12
958.138	2552.12
958.365	2520.12
958.593	2529.12
958.82	2478.12
959.048	2560.12
959.275	2523.12
959.502	2524.12
959.73	2476.12
959.957	2528.12
960.184	2567.12
960.411	2470.12
960.638	2535.12
960.865	2516.12
961.092	2524.12
961.319	2441.12
961.546	2531.12
961.773	2527.12
962	2492.12
962.227	2548.12
962.454	2508.12
962.68	2442.12
962.907	2508.12
963.134	2420.12
963.36	2439.12
963.587	2455.12
963.813	2380.12
964.04	2379.12
964.266	2363.12
964.493	2445.12
964.719	2372.12
964.945	2445.12
965.171	2303.12
965.398	2368.12
965.624	2355.12
965.85	2305.12
966.076	2304.12
966.302	2324.12
966.528	2336.12
966.754	2310.12
966.98	2296.12
967.206	2275.12
967.431	2227.12
967.657	2313.12
967.883	2294.12
968.109	2282.12
968.334	2241.12
968.56	2189.12
968.785	2236.12
969.011	2200.12
969.236	2259.12
969.462	2192.12
969.687	2218.12
969.912	2238.12
970.138	2235.12
970.363	2140.12
970.588	2205.12
970.813	2152.12
971.038	2135.12
971.263	2168.12
971.488	2153.12
971.713	2210.12
971.938	2173.12
972.163	2094.12
972.388	2109.12
972.613	2119.12
972.838	2117.12
973.062	2094.12
973.287	2084.12
973.512	2024.12
973.736	2074.12
973.961	2079.12
974.185	2014.12
974.41	2091.12
974.634	1981.12
974.858	1974.12
975.083	2007.12
975.307	2029.12
975.531	1945.12
975.755	1915.12
975.98	1937.12
976.204	1891.12
976.428	1876.12
976.652	1896.12
976.876	1861.12
977.1	1916.12
977.324	1866.12
977.547	1919.12
977.771	1906.12
977.995	1880.12
978.219	1810.12
978.442	1939.12
978.666	1867.12
978.89	1866.12
979.113	1857.12
979.337	1870.12
979.56	1818.12
979.783	1919.12
980.007	1783.12
980.23	1804.12
980.453	1769.12
980.677	1822.12
980.9	1793.12
981.123	1748.12
981.346	1831.12
981.569	1823.12
981.792	1822.12
982.015	1775.12
982.238	1708.12
982.461	1766.12
982.684	1703.12
982.907	1727.12
983.129	1694.12
983.352	1753.12
983.575	1730.12
983.797	1745.12
984.02	1658.12
984.242	1685.12
984.465	1703.12
984.687	1729.12
984.91	1750.12
985.132	1717.12
985.354	1720.12
985.577	1686.12
985.799	1684.12
986.021	1641.12
986.243	1601.12
986.465	1658.12
986.687	1699.12
986.909	1738.12
987.131	1677.12
987.353	1640.12
987.575	1654.12
987.797	1636.12
988.019	1565.12
988.241	1616.12
988.462	1593.12
988.684	1663.12
988.906	1669.12
989.127	1665.12
989.349	1588.12
989.57	1629.12
989.792	1658.12
990.013	1640.12
990.234	1661.12
990.456	1652.12
990.677	1662.12
990.898	1593.12
991.119	1611.12
991.341	1622.12
991.562	1566.12
991.783	1588.12
992.004	1541.12
992.225	1498.12
992.446	1582.12
992.667	1477.12
992.887	1570.12
993.108	1439.12
993.329	1562.12
993.55	1532.12
993.77	1475.12
993.991	1461.12
994.212	1528.12
994.432	1523.12
994.653	1497.12
994.873	1519.12
995.093	1387.12
995.314	1415.12
995.534	1519.12
995.754	1513.12
995.975	1527.12
996.195	1446.12
996.415	1483.12
996.635	1486.12
996.855	1466.12
997.075	1449.12
997.295	1472.12
997.515	1417.12
997.735	1495.12
997.955	1448.12
998.174	1441.12
998.394	1413.12
998.614	1477.12
998.834	1413.12
999.053	1490.12
999.273	1482.12
999.492	1483.12
999.712	1432.12
999.931	1401.12
1000.151	1440.12
1000.37	1433.12
1000.589	1476.12
1000.809	1385.12
1001.028	1505.12
1001.247	1453.12
1001.466	1321.12
1001.685	1474.12
1001.904	1423.12
1002.123	1391.12
1002.342	1408.12
1002.561	1374.12
1002.78	1395.12
1002.999	1441.12
1003.218	1405.12
1003.436	1349.12
1003.655	1433.12
1003.874	1342.12
1004.092	1380.12
1004.311	1428.12
1004.53	1369.12
1004.748	1434.12
1004.966	1392.12
1005.185	1419.12
1005.403	1449.12
1005.622	1415.12
1005.84	1456.12
1006.058	1360.12
1006.276	1385.12
1006.494	1884.12
1006.712	1394.12
1006.931	1452.12
1007.149	1395.12
1007.367	1370.12
1007.584	1415.12
1007.802	1451.12
1008.02	1396.12
1008.238	1488.12
1008.456	1503.12
1008.673	1352.12
1008.891	1465.12
1009.109	1411.12
1009.326	1467.12
1009.544	1543.12
1009.761	1478.12
1009.979	1577.12
1010.196	1551.12
1010.413	1659.12
1010.631	1690.12
1010.848	1736.12
1011.065	1745.12
1011.282	1717.12
1011.5	1619.12
1011.717	1746.12
1011.934	1665.12
1012.151	1709.12
1012.368	1683.12
1012.585	1642.12
1012.801	1673.12
1013.018	1666.12
1013.235	1652.12
1013.452	1652.12
1013.669	1653.12
1013.885	1656.12
1014.102	1687.12
1014.318	1665.12
1014.535	1612.12
1014.751	1682.12
1014.968	1675.12
1015.184	1671.12
1015.401	1607.12
1015.617	1595.12
1015.833	1530.12
1016.049	1553.12
1016.266	1526.12
1016.482	1535.12
1016.698	1456.12
1016.914	1519.12
1017.13	1465.12
1017.346	1448.12
1017.562	1513.12
1017.778	1449.12
1017.993	1412.12
1018.209	1501.12
1018.425	1463.12
1018.641	1419.12
1018.856	1393.12
1019.072	1429.12
1019.288	1463.12
1019.503	1413.12
1019.719	1321.12
1019.934	1350.12
1020.149	1430.12
1020.365	1374.12
1020.58	1306.12
1020.795	1347.12
1021.011	1291.12
1021.226	1302.12
1021.441	1283.12
1021.656	1215.12
1021.871	1146.12
1022.086	1163.12
1022.301	1135.12
1022.516	1136.12
1022.731	1194.12
1022.946	1098.12
1023.16	1086.12
1023.375	1026.12
1023.59	1020.12
1023.804	996.12
1024.019	1080.12
1024.234	968.12
1024.448	985.12
1024.663	920.12
1024.877	945.12
1025.092	960.12
1025.306	978.12
1025.52	867.12
1025.734	955.12
1025.949	855.12
1026.163	847.12
1026.377	789.12
1026.591	853.12
1026.805	769.12
1027.019	764.12
1027.233	732.12
1027.447	676.12
1027.661	798.12
1027.875	707.12
1028.088	727.12
1028.302	657.12
1028.516	649.12
1028.73	646.12
1028.943	646.12
1029.157	615.12
1029.37	556.12
1029.584	-1.88
1029.797	-2.88
1030.011	0.12
1030.224	-2.88
