Data from QEP037381__183__10-45-14-537.txt Node

Date: Wed Dec 21 10:45:14 EST 2022
User: dcclab
Spectrometer: QEP03738
Trigger mode: 4
Integration Time (sec): 1.000000E1
Scans to average: 1
Electric dark correction enabled: true
Nonlinearity correction enabled: false
Boxcar width: 0
XAxis mode: Wavelengths
Number of Pixels in Spectrum: 1044
>>>>>Begin Spectral Data<<<<<
784.041	10.38
784.3	-1.62
784.558	-1.62
784.817	-3.62
785.075	113967.38
785.334	19421.38
785.592	9023.38
785.851	6141.38
786.109	4653.38
786.368	3657.38
786.626	2943.38
786.884	2435.38
787.143	2025.38
787.401	1683.38
787.659	1509.38
787.917	1290.38
788.175	1188.38
788.433	1038.38
788.691	930.38
788.949	848.38
789.207	821.38
789.465	699.38
789.723	666.38
789.98	622.38
790.238	650.38
790.496	619.38
790.753	579.38
791.011	616.38
791.268	557.38
791.526	539.38
791.783	553.38
792.041	522.38
792.298	444.38
792.556	506.38
792.813	487.38
793.07	483.38
793.327	469.38
793.584	519.38
793.841	471.38
794.099	472.38
794.356	532.38
794.613	432.38
794.869	476.38
795.126	434.38
795.383	422.38
795.64	426.38
795.897	393.38
796.153	436.38
796.41	423.38
796.667	414.38
796.923	410.38
797.18	418.38
797.436	452.38
797.693	399.38
797.949	465.38
798.206	505.38
798.462	393.38
798.718	462.38
798.974	428.38
799.231	481.38
799.487	452.38
799.743	485.38
799.999	511.38
800.255	489.38
800.511	468.38
800.767	512.38
801.023	506.38
801.279	529.38
801.534	571.38
801.79	632.38
802.046	626.38
802.302	754.38
802.557	848.38
802.813	1044.38
803.068	1253.38
803.324	1739.38
803.579	2324.38
803.835	3187.38
804.09	4405.38
804.345	5756.38
804.601	7250.38
804.856	8781.38
805.111	10111.38
805.366	11208.38
805.621	11986.38
805.876	12381.38
806.131	12711.38
806.386	12968.38
806.641	13152.38
806.896	13394.38
807.151	13696.38
807.406	13779.38
807.661	14059.38
807.915	14253.38
808.17	14589.38
808.425	14674.38
808.679	14794.38
808.934	15054.38
809.188	15164.38
809.443	15227.38
809.697	15361.38
809.951	15405.38
810.206	15583.38
810.46	15741.38
810.714	15840.38
810.968	16035.38
811.223	16029.38
811.477	16275.38
811.731	16253.38
811.985	16412.38
812.239	16515.38
812.493	16611.38
812.747	16667.38
813	16672.38
813.254	16690.38
813.508	16874.38
813.762	16779.38
814.015	16947.38
814.269	17019.38
814.522	17203.38
814.776	17367.38
815.03	17626.38
815.283	17795.38
815.536	18172.38
815.79	18394.38
816.043	18626.38
816.296	18953.38
816.55	19098.38
816.803	19345.38
817.056	19548.38
817.309	19714.38
817.562	19760.38
817.815	20133.38
818.068	20309.38
818.321	20504.38
818.574	20609.38
818.827	20900.38
819.079	21099.38
819.332	21578.38
819.585	21800.38
819.838	22088.38
820.09	22221.38
820.343	22256.38
820.595	22299.38
820.848	22630.38
821.1	22707.38
821.353	22588.38
821.605	22535.38
821.857	22560.38
822.11	22502.38
822.362	22445.38
822.614	22313.38
822.866	22430.38
823.118	22455.38
823.37	22536.38
823.622	22390.38
823.874	22597.38
824.126	22638.38
824.378	22659.38
824.63	22717.38
824.882	22768.38
825.134	22639.38
825.385	22760.38
825.637	22596.38
825.888	22582.38
826.14	22554.38
826.392	22525.38
826.643	22186.38
826.895	22224.38
827.146	22126.38
827.397	22029.38
827.649	22030.38
827.9	22019.38
828.151	22058.38
828.402	22098.38
828.653	22092.38
828.905	22150.38
829.156	22284.38
829.407	22214.38
829.658	22158.38
829.909	22295.38
830.159	22208.38
830.41	22223.38
830.661	21962.38
830.912	21772.38
831.162	21748.38
831.413	21665.38
831.664	21757.38
831.914	21662.38
832.165	21655.38
832.415	21625.38
832.666	21705.38
832.916	21629.38
833.167	21575.38
833.417	21638.38
833.667	21460.38
833.917	21571.38
834.168	21496.38
834.418	21286.38
834.668	21228.38
834.918	21156.38
835.168	21075.38
835.418	20848.38
835.668	21039.38
835.918	20964.38
836.167	20885.38
836.417	20698.38
836.667	20827.38
836.917	20708.38
837.166	20680.38
837.416	20686.38
837.666	20742.38
837.915	20651.38
838.165	20594.38
838.414	20514.38
838.663	20432.38
838.913	20445.38
839.162	20273.38
839.411	20406.38
839.661	20169.38
839.91	20166.38
840.159	20039.38
840.408	20236.38
840.657	20089.38
840.906	20177.38
841.155	20133.38
841.404	20190.38
841.653	20116.38
841.902	20171.38
842.15	20194.38
842.399	20226.38
842.648	20192.38
842.897	20136.38
843.145	19928.38
843.394	19824.38
843.642	19595.38
843.891	19636.38
844.139	19461.38
844.388	19505.38
844.636	19219.38
844.884	19324.38
845.133	19266.38
845.381	19221.38
845.629	19227.38
845.877	19169.38
846.125	19193.38
846.373	19104.38
846.621	18955.38
846.869	18945.38
847.117	18857.38
847.365	18839.38
847.613	18816.38
847.861	18754.38
848.108	18713.38
848.356	18619.38
848.604	18597.38
848.851	18564.38
849.099	18580.38
849.346	18737.38
849.594	18702.38
849.841	18778.38
850.089	18789.38
850.336	18878.38
850.583	18960.38
850.831	18789.38
851.078	18581.38
851.325	18621.38
851.572	18534.38
851.819	18397.38
852.066	18016.38
852.313	17708.38
852.56	17664.38
852.807	17628.38
853.054	17580.38
853.301	17532.38
853.548	17498.38
853.794	17706.38
854.041	17755.38
854.288	17909.38
854.534	17979.38
854.781	17930.38
855.028	17858.38
855.274	17866.38
855.52	17648.38
855.767	17536.38
856.013	17616.38
856.26	17848.38
856.506	17435.38
856.752	17488.38
856.998	17336.38
857.244	17445.38
857.49	17522.38
857.736	17524.38
857.982	17525.38
858.228	17526.38
858.474	17366.38
858.72	17240.38
858.966	17115.38
859.212	16935.38
859.458	16671.38
859.703	16629.38
859.949	16367.38
860.195	16272.38
860.44	16192.38
860.686	16149.38
860.931	16183.38
861.177	16088.38
861.422	15912.38
861.667	15997.38
861.913	15913.38
862.158	15974.38
862.403	15914.38
862.648	15991.38
862.893	16056.38
863.138	16015.38
863.384	15915.38
863.629	15858.38
863.873	15931.38
864.118	15825.38
864.363	15825.38
864.608	15738.38
864.853	15607.38
865.098	15522.38
865.342	15504.38
865.587	15411.38
865.832	15467.38
866.076	15403.38
866.321	15351.38
866.565	15175.38
866.81	15153.38
867.054	15149.38
867.298	15125.38
867.543	15036.38
867.787	15141.38
868.031	14979.38
868.275	15060.38
868.519	15041.38
868.764	14929.38
869.008	14844.38
869.252	14863.38
869.496	14764.38
869.739	14846.38
869.983	14771.38
870.227	14751.38
870.471	14703.38
870.715	14780.38
870.958	14854.38
871.202	14726.38
871.446	14835.38
871.689	14797.38
871.933	14824.38
872.176	14768.38
872.42	14827.38
872.663	14738.38
872.906	14647.38
873.15	14696.38
873.393	14625.38
873.636	14542.38
873.879	14491.38
874.122	14287.38
874.366	14089.38
874.609	13944.38
874.852	13825.38
875.095	13841.38
875.337	13718.38
875.58	13582.38
875.823	13608.38
876.066	13559.38
876.309	13493.38
876.551	13317.38
876.794	13312.38
877.037	13391.38
877.279	13227.38
877.522	13337.38
877.764	13306.38
878.007	13241.38
878.249	13318.38
878.491	13284.38
878.734	13280.38
878.976	13215.38
879.218	13101.38
879.46	12993.38
879.702	12936.38
879.945	12860.38
880.187	12747.38
880.429	12702.38
880.671	12588.38
880.912	12555.38
881.154	12527.38
881.396	12461.38
881.638	12409.38
881.88	12471.38
882.121	12400.38
882.363	12422.38
882.605	12410.38
882.846	12312.38
883.088	12387.38
883.329	12228.38
883.571	12351.38
883.812	12336.38
884.053	12576.38
884.295	12801.38
884.536	12908.38
884.777	12852.38
885.018	12697.38
885.259	12738.38
885.5	12568.38
885.742	12819.38
885.982	12540.38
886.223	12430.38
886.464	12349.38
886.705	12195.38
886.946	12195.38
887.187	11990.38
887.428	11851.38
887.668	11717.38
887.909	11568.38
888.15	11412.38
888.39	11447.38
888.631	11366.38
888.871	11219.38
889.111	11138.38
889.352	11044.38
889.592	10994.38
889.833	10863.38
890.073	10694.38
890.313	10797.38
890.553	10647.38
890.793	10597.38
891.033	10530.38
891.273	10505.38
891.513	10499.38
891.753	10524.38
891.993	10446.38
892.233	10399.38
892.473	10565.38
892.713	10448.38
892.952	10402.38
893.192	10467.38
893.432	10437.38
893.671	10439.38
893.911	10313.38
894.15	10311.38
894.39	10155.38
894.629	10161.38
894.869	10198.38
895.108	10076.38
895.347	9930.38
895.587	9970.38
895.826	9943.38
896.065	9871.38
896.304	9863.38
896.543	9917.38
896.782	9790.38
897.021	9737.38
897.26	9801.38
897.499	9752.38
897.738	9751.38
897.977	9604.38
898.216	9585.38
898.454	9493.38
898.693	9399.38
898.932	9439.38
899.17	9351.38
899.409	9288.38
899.647	9258.38
899.886	9233.38
900.124	9321.38
900.363	9250.38
900.601	9298.38
900.839	9263.38
901.078	9333.38
901.316	9339.38
901.554	9391.38
901.792	9423.38
902.03	9309.38
902.268	9303.38
902.506	9337.38
902.744	9311.38
902.982	9223.38
903.22	9099.38
903.458	8987.38
903.695	8939.38
903.933	8807.38
904.171	8618.38
904.409	8571.38
904.646	8442.38
904.884	8387.38
905.121	8305.38
905.359	8167.38
905.596	8149.38
905.833	8011.38
906.071	8014.38
906.308	8019.38
906.545	8032.38
906.783	7933.38
907.02	7981.38
907.257	7869.38
907.494	7925.38
907.731	7875.38
907.968	7814.38
908.205	7706.38
908.442	7714.38
908.679	7704.38
908.915	7622.38
909.152	7613.38
909.389	7462.38
909.626	7408.38
909.862	7389.38
910.099	7374.38
910.335	7344.38
910.572	7229.38
910.808	7288.38
911.045	7223.38
911.281	7210.38
911.518	7249.38
911.754	7144.38
911.99	7156.38
912.226	7068.38
912.463	6988.38
912.699	6938.38
912.935	6925.38
913.171	6899.38
913.407	6833.38
913.643	6812.38
913.879	6715.38
914.114	6585.38
914.35	6574.38
914.586	6492.38
914.822	6449.38
915.057	6468.38
915.293	6351.38
915.529	6317.38
915.764	6435.38
916	6334.38
916.235	6321.38
916.471	6296.38
916.706	6266.38
916.941	6281.38
917.177	6227.38
917.412	6282.38
917.647	6294.38
917.882	6191.38
918.117	6249.38
918.352	6174.38
918.588	6227.38
918.823	6135.38
919.057	6083.38
919.292	5943.38
919.527	5999.38
919.762	5902.38
919.997	5900.38
920.232	5795.38
920.466	5845.38
920.701	5612.38
920.935	5646.38
921.17	5596.38
921.405	5582.38
921.639	5569.38
921.873	5534.38
922.108	5555.38
922.342	5554.38
922.576	5459.38
922.811	5463.38
923.045	5467.38
923.279	5451.38
923.513	5335.38
923.747	5442.38
923.981	5335.38
924.215	5270.38
924.449	5260.38
924.683	5184.38
924.917	5196.38
925.151	5146.38
925.385	5182.38
925.618	5165.38
925.852	5132.38
926.086	5065.38
926.319	5061.38
926.553	5107.38
926.786	5114.38
927.02	5079.38
927.253	5099.38
927.486	5098.38
927.72	5070.38
927.953	5085.38
928.186	5022.38
928.42	5078.38
928.653	4985.38
928.886	4985.38
929.119	4935.38
929.352	4947.38
929.585	4952.38
929.818	4784.38
930.051	4827.38
930.284	4734.38
930.516	4738.38
930.749	4702.38
930.982	4720.38
931.215	4692.38
931.447	4589.38
931.68	4678.38
931.912	4617.38
932.145	4630.38
932.377	4630.38
932.61	4717.38
932.842	4552.38
933.074	4566.38
933.307	4604.38
933.539	4655.38
933.771	4640.38
934.003	4629.38
934.236	4711.38
934.468	4779.38
934.7	4682.38
934.932	4720.38
935.164	4611.38
935.395	4585.38
935.627	4580.38
935.859	4506.38
936.091	4423.38
936.323	4508.38
936.554	4465.38
936.786	4419.38
937.017	4324.38
937.249	4411.38
937.481	4315.38
937.712	4395.38
937.943	4370.38
938.175	4348.38
938.406	4394.38
938.637	4399.38
938.869	4324.38
939.1	4420.38
939.331	4321.38
939.562	4460.38
939.793	4512.38
940.024	4807.38
940.255	5341.38
940.486	5716.38
940.717	5669.38
940.948	5314.38
941.179	4998.38
941.409	4689.38
941.64	4426.38
941.871	4321.38
942.102	4197.38
942.332	4197.38
942.563	4241.38
942.793	4177.38
943.024	4136.38
943.254	4169.38
943.484	4200.38
943.715	4148.38
943.945	4119.38
944.175	4111.38
944.405	4023.38
944.636	4069.38
944.866	4086.38
945.096	4099.38
945.326	3991.38
945.556	4082.38
945.786	4064.38
946.016	4016.38
946.245	3957.38
946.475	3906.38
946.705	3967.38
946.935	3899.38
947.164	3951.38
947.394	3871.38
947.624	3842.38
947.853	3876.38
948.083	3823.38
948.312	3814.38
948.542	3777.38
948.771	3709.38
949	3741.38
949.23	3735.38
949.459	3750.38
949.688	3822.38
949.917	3756.38
950.146	3765.38
950.375	3796.38
950.604	3680.38
950.833	3751.38
951.062	3775.38
951.291	3695.38
951.52	3675.38
951.749	3702.38
951.978	3635.38
952.206	3629.38
952.435	3642.38
952.664	3680.38
952.892	3671.38
953.121	3647.38
953.349	3649.38
953.578	3682.38
953.806	3637.38
954.035	3490.38
954.263	3566.38
954.491	3494.38
954.719	3536.38
954.948	3509.38
955.176	3505.38
955.404	3397.38
955.632	3443.38
955.86	3472.38
956.088	3422.38
956.316	3465.38
956.544	3481.38
956.772	3375.38
956.999	3394.38
957.227	3449.38
957.455	3333.38
957.683	3292.38
957.91	3285.38
958.138	3267.38
958.365	3250.38
958.593	3259.38
958.82	3196.38
959.048	3297.38
959.275	3286.38
959.502	3238.38
959.73	3205.38
959.957	3214.38
960.184	3272.38
960.411	3162.38
960.638	3213.38
960.865	3200.38
961.092	3217.38
961.319	3108.38
961.546	3228.38
961.773	3219.38
962	3149.38
962.227	3196.38
962.454	3163.38
962.68	3153.38
962.907	3170.38
963.134	3119.38
963.36	3105.38
963.587	3097.38
963.813	3067.38
964.04	3063.38
964.266	2999.38
964.493	3034.38
964.719	3037.38
964.945	3047.38
965.171	2916.38
965.398	2945.38
965.624	2992.38
965.85	2869.38
966.076	2920.38
966.302	2918.38
966.528	2883.38
966.754	2929.38
966.98	2918.38
967.206	2882.38
967.431	2838.38
967.657	2883.38
967.883	2884.38
968.109	2862.38
968.334	2832.38
968.56	2776.38
968.785	2790.38
969.011	2769.38
969.236	2819.38
969.462	2767.38
969.687	2801.38
969.912	2774.38
970.138	2838.38
970.363	2742.38
970.588	2761.38
970.813	2724.38
971.038	2670.38
971.263	2737.38
971.488	2707.38
971.713	2730.38
971.938	2755.38
972.163	2653.38
972.388	2653.38
972.613	2646.38
972.838	2630.38
973.062	2665.38
973.287	2623.38
973.512	2546.38
973.736	2581.38
973.961	2537.38
974.185	2555.38
974.41	2565.38
974.634	2484.38
974.858	2479.38
975.083	2515.38
975.307	2508.38
975.531	2440.38
975.755	2422.38
975.98	2410.38
976.204	2336.38
976.428	2378.38
976.652	2373.38
976.876	2356.38
977.1	2383.38
977.324	2358.38
977.547	2396.38
977.771	2410.38
977.995	2344.38
978.219	2281.38
978.442	2418.38
978.666	2311.38
978.89	2313.38
979.113	2347.38
979.337	2331.38
979.56	2279.38
979.783	2354.38
980.007	2235.38
980.23	2303.38
980.453	2245.38
980.677	2270.38
980.9	2255.38
981.123	2157.38
981.346	2268.38
981.569	2231.38
981.792	2238.38
982.015	2209.38
982.238	2155.38
982.461	2188.38
982.684	2169.38
982.907	2132.38
983.129	2105.38
983.352	2166.38
983.575	2150.38
983.797	2151.38
984.02	2096.38
984.242	2105.38
984.465	2116.38
984.687	2147.38
984.91	2126.38
985.132	2099.38
985.354	2116.38
985.577	2061.38
985.799	2047.38
986.021	1962.38
986.243	2029.38
986.465	2016.38
986.687	2091.38
986.909	2088.38
987.131	2028.38
987.353	1948.38
987.575	2037.38
987.797	1973.38
988.019	1925.38
988.241	1988.38
988.462	1901.38
988.684	2003.38
988.906	2033.38
989.127	2052.38
989.349	1926.38
989.57	1934.38
989.792	1983.38
990.013	2000.38
990.234	1964.38
990.456	2029.38
990.677	2003.38
990.898	1946.38
991.119	1939.38
991.341	1948.38
991.562	1891.38
991.783	1939.38
992.004	1845.38
992.225	1846.38
992.446	1908.38
992.667	1788.38
992.887	1868.38
993.108	1775.38
993.329	1882.38
993.55	1838.38
993.77	1767.38
993.991	1760.38
994.212	1825.38
994.432	1795.38
994.653	1817.38
994.873	1789.38
995.093	1677.38
995.314	1733.38
995.534	1783.38
995.754	1810.38
995.975	1825.38
996.195	1711.38
996.415	1779.38
996.635	1727.38
996.855	1764.38
997.075	1704.38
997.295	1732.38
997.515	1698.38
997.735	1748.38
997.955	1712.38
998.174	1702.38
998.394	1683.38
998.614	1740.38
998.834	1664.38
999.053	1752.38
999.273	1716.38
999.492	1758.38
999.712	1698.38
999.931	1668.38
1000.151	1713.38
1000.37	1679.38
1000.589	1724.38
1000.809	1655.38
1001.028	1766.38
1001.247	1674.38
1001.466	1593.38
1001.685	1705.38
1001.904	1671.38
1002.123	1644.38
1002.342	1649.38
1002.561	1608.38
1002.78	1619.38
1002.999	1650.38
1003.218	1618.38
1003.436	1567.38
1003.655	1627.38
1003.874	1581.38
1004.092	1621.38
1004.311	1617.38
1004.53	1591.38
1004.748	1678.38
1004.966	1587.38
1005.185	1644.38
1005.403	1635.38
1005.622	1610.38
1005.84	1694.38
1006.058	1566.38
1006.276	1598.38
1006.494	2089.38
1006.712	1595.38
1006.931	1653.38
1007.149	1560.38
1007.367	1573.38
1007.584	1584.38
1007.802	1649.38
1008.02	1587.38
1008.238	1673.38
1008.456	1660.38
1008.673	1532.38
1008.891	1644.38
1009.109	1592.38
1009.326	1662.38
1009.544	1726.38
1009.761	1642.38
1009.979	1729.38
1010.196	1720.38
1010.413	1867.38
1010.631	1896.38
1010.848	1958.38
1011.065	1934.38
1011.282	1890.38
1011.5	1805.38
1011.717	1951.38
1011.934	1847.38
1012.151	1905.38
1012.368	1846.38
1012.585	1818.38
1012.801	1853.38
1013.018	1866.38
1013.235	1796.38
1013.452	1806.38
1013.669	1795.38
1013.885	1820.38
1014.102	1862.38
1014.318	1809.38
1014.535	1774.38
1014.751	1793.38
1014.968	1834.38
1015.184	1786.38
1015.401	1722.38
1015.617	1732.38
1015.833	1671.38
1016.049	1693.38
1016.266	1694.38
1016.482	1685.38
1016.698	1608.38
1016.914	1651.38
1017.13	1597.38
1017.346	1591.38
1017.562	1664.38
1017.778	1588.38
1017.993	1550.38
1018.209	1601.38
1018.425	1575.38
1018.641	1554.38
1018.856	1522.38
1019.072	1581.38
1019.288	1571.38
1019.503	1541.38
1019.719	1462.38
1019.934	1464.38
1020.149	1576.38
1020.365	1513.38
1020.58	1433.38
1020.795	1463.38
1021.011	1395.38
1021.226	1384.38
1021.441	1384.38
1021.656	1308.38
1021.871	1263.38
1022.086	1268.38
1022.301	1261.38
1022.516	1225.38
1022.731	1289.38
1022.946	1199.38
1023.16	1159.38
1023.375	1158.38
1023.59	1121.38
1023.804	1089.38
1024.019	1191.38
1024.234	1051.38
1024.448	1076.38
1024.663	1018.38
1024.877	1042.38
1025.092	1046.38
1025.306	1067.38
1025.52	950.38
1025.734	1044.38
1025.949	963.38
1026.163	932.38
1026.377	846.38
1026.591	925.38
1026.805	850.38
1027.019	831.38
1027.233	797.38
1027.447	731.38
1027.661	866.38
1027.875	783.38
1028.088	803.38
1028.302	707.38
1028.516	714.38
1028.73	714.38
1028.943	699.38
1029.157	627.38
1029.37	615.38
1029.584	0.38
1029.797	-1.62
1030.011	-0.62
1030.224	-1.62
