Data from QEP037381__170__10-43-04-538.txt Node

Date: Wed Dec 21 10:43:04 EST 2022
User: dcclab
Spectrometer: QEP03738
Trigger mode: 4
Integration Time (sec): 1.000000E1
Scans to average: 1
Electric dark correction enabled: true
Nonlinearity correction enabled: false
Boxcar width: 0
XAxis mode: Wavelengths
Number of Pixels in Spectrum: 1044
>>>>>Begin Spectral Data<<<<<
784.041	13.62
784.3	-0.38
784.558	-3.38
784.817	-4.38
785.075	112850.62
785.334	19470.62
785.592	9138.62
785.851	6265.62
786.109	4698.62
786.368	3698.62
786.626	2957.62
786.884	2421.62
787.143	2029.62
787.401	1656.62
787.659	1497.62
787.917	1238.62
788.175	1171.62
788.433	1004.62
788.691	906.62
788.949	841.62
789.207	785.62
789.465	702.62
789.723	673.62
789.98	609.62
790.238	660.62
790.496	617.62
790.753	590.62
791.011	620.62
791.268	555.62
791.526	528.62
791.783	558.62
792.041	532.62
792.298	447.62
792.556	503.62
792.813	508.62
793.07	475.62
793.327	455.62
793.584	519.62
793.841	461.62
794.099	466.62
794.356	530.62
794.613	420.62
794.869	475.62
795.126	417.62
795.383	426.62
795.64	430.62
795.897	386.62
796.153	452.62
796.41	427.62
796.667	406.62
796.923	417.62
797.18	424.62
797.436	442.62
797.693	410.62
797.949	464.62
798.206	471.62
798.462	419.62
798.718	477.62
798.974	445.62
799.231	475.62
799.487	472.62
799.743	459.62
799.999	506.62
800.255	498.62
800.511	473.62
800.767	515.62
801.023	501.62
801.279	529.62
801.534	569.62
801.79	609.62
802.046	634.62
802.302	780.62
802.557	856.62
802.813	1061.62
803.068	1263.62
803.324	1735.62
803.579	2316.62
803.835	3181.62
804.09	4334.62
804.345	5688.62
804.601	7121.62
804.856	8711.62
805.111	9995.62
805.366	10964.62
805.621	11624.62
805.876	12191.62
806.131	12525.62
806.386	12777.62
806.641	12875.62
806.896	13090.62
807.151	13513.62
807.406	13564.62
807.661	13850.62
807.915	14081.62
808.17	14232.62
808.425	14385.62
808.679	14514.62
808.934	14743.62
809.188	14807.62
809.443	15035.62
809.697	15109.62
809.951	15101.62
810.206	15340.62
810.46	15416.62
810.714	15537.62
810.968	15653.62
811.223	15778.62
811.477	15932.62
811.731	16021.62
811.985	16000.62
812.239	16103.62
812.493	16204.62
812.747	16288.62
813	16248.62
813.254	16379.62
813.508	16430.62
813.762	16471.62
814.015	16454.62
814.269	16690.62
814.522	16824.62
814.776	17027.62
815.03	17124.62
815.283	17312.62
815.536	17696.62
815.79	17931.62
816.043	18192.62
816.296	18339.62
816.55	18578.62
816.803	18714.62
817.056	19094.62
817.309	19165.62
817.562	19271.62
817.815	19505.62
818.068	19676.62
818.321	19770.62
818.574	20043.62
818.827	20349.62
819.079	20600.62
819.332	21032.62
819.585	21089.62
819.838	21389.62
820.09	21373.62
820.343	21613.62
820.595	21672.62
820.848	21881.62
821.1	21989.62
821.353	21917.62
821.605	21905.62
821.857	22005.62
822.11	21896.62
822.362	21696.62
822.614	21616.62
822.866	21794.62
823.118	21618.62
823.37	21773.62
823.622	21821.62
823.874	21815.62
824.126	21940.62
824.378	21939.62
824.63	22088.62
824.882	22110.62
825.134	21988.62
825.385	22021.62
825.637	21921.62
825.888	21937.62
826.14	21837.62
826.392	21632.62
826.643	21626.62
826.895	21542.62
827.146	21422.62
827.397	21382.62
827.649	21380.62
827.9	21290.62
828.151	21387.62
828.402	21368.62
828.653	21402.62
828.905	21564.62
829.156	21613.62
829.407	21521.62
829.658	21533.62
829.909	21650.62
830.159	21646.62
830.41	21435.62
830.661	21482.62
830.912	21210.62
831.162	21112.62
831.413	21069.62
831.664	21123.62
831.914	21019.62
832.165	21144.62
832.415	21024.62
832.666	20969.62
832.916	21042.62
833.167	20951.62
833.417	20978.62
833.667	20906.62
833.917	20792.62
834.168	20852.62
834.418	20715.62
834.668	20620.62
834.918	20533.62
835.168	20476.62
835.418	20353.62
835.668	20366.62
835.918	20312.62
836.167	20326.62
836.417	20204.62
836.667	20247.62
836.917	20122.62
837.166	20136.62
837.416	20160.62
837.666	20068.62
837.915	19986.62
838.165	19933.62
838.414	19911.62
838.663	19824.62
838.913	19880.62
839.162	19793.62
839.411	19824.62
839.661	19745.62
839.91	19659.62
840.159	19648.62
840.408	19685.62
840.657	19737.62
840.906	19648.62
841.155	19784.62
841.404	19676.62
841.653	19698.62
841.902	19711.62
842.15	19705.62
842.399	19777.62
842.648	19784.62
842.897	19654.62
843.145	19514.62
843.394	19395.62
843.642	19268.62
843.891	19213.62
844.139	19025.62
844.388	18971.62
844.636	18847.62
844.884	18826.62
845.133	18774.62
845.381	18784.62
845.629	18902.62
845.877	18810.62
846.125	18730.62
846.373	18695.62
846.621	18570.62
846.869	18570.62
847.117	18501.62
847.365	18375.62
847.613	18228.62
847.861	18241.62
848.108	18318.62
848.356	18210.62
848.604	18171.62
848.851	18155.62
849.099	18252.62
849.346	18247.62
849.594	18388.62
849.841	18392.62
850.089	18362.62
850.336	18438.62
850.583	18479.62
850.831	18317.62
851.078	18209.62
851.325	18130.62
851.572	18144.62
851.819	17985.62
852.066	17656.62
852.313	17489.62
852.56	17388.62
852.807	17332.62
853.054	17215.62
853.301	17141.62
853.548	17197.62
853.794	17361.62
854.041	17377.62
854.288	17408.62
854.534	17649.62
854.781	17552.62
855.028	17520.62
855.274	17439.62
855.52	17452.62
855.767	17275.62
856.013	17388.62
856.26	17568.62
856.506	17160.62
856.752	17151.62
856.998	17055.62
857.244	17103.62
857.49	17221.62
857.736	17208.62
857.982	17229.62
858.228	17189.62
858.474	17021.62
858.72	16958.62
858.966	16811.62
859.212	16669.62
859.458	16513.62
859.703	16276.62
859.949	16172.62
860.195	16024.62
860.44	15907.62
860.686	15903.62
860.931	15878.62
861.177	15798.62
861.422	15708.62
861.667	15605.62
861.913	15648.62
862.158	15700.62
862.403	15732.62
862.648	15701.62
862.893	15772.62
863.138	15703.62
863.384	15629.62
863.629	15635.62
863.873	15603.62
864.118	15552.62
864.363	15452.62
864.608	15438.62
864.853	15345.62
865.098	15312.62
865.342	15263.62
865.587	15124.62
865.832	15137.62
866.076	15050.62
866.321	14997.62
866.565	15036.62
866.81	14884.62
867.054	14931.62
867.298	14880.62
867.543	14765.62
867.787	14797.62
868.031	14818.62
868.275	14753.62
868.519	14677.62
868.764	14671.62
869.008	14604.62
869.252	14630.62
869.496	14544.62
869.739	14523.62
869.983	14616.62
870.227	14497.62
870.471	14489.62
870.715	14610.62
870.958	14629.62
871.202	14593.62
871.446	14701.62
871.689	14717.62
871.933	14677.62
872.176	14658.62
872.42	14628.62
872.663	14661.62
872.906	14550.62
873.15	14594.62
873.393	14446.62
873.636	14532.62
873.879	14319.62
874.122	14217.62
874.366	13946.62
874.609	13824.62
874.852	13639.62
875.095	13678.62
875.337	13626.62
875.58	13493.62
875.823	13371.62
876.066	13458.62
876.309	13426.62
876.551	13301.62
876.794	13160.62
877.037	13239.62
877.279	13230.62
877.522	13130.62
877.764	13191.62
878.007	13141.62
878.249	13133.62
878.491	13112.62
878.734	13087.62
878.976	13014.62
879.218	12902.62
879.46	12927.62
879.702	12778.62
879.945	12725.62
880.187	12544.62
880.429	12520.62
880.671	12449.62
880.912	12387.62
881.154	12384.62
881.396	12293.62
881.638	12268.62
881.88	12296.62
882.121	12264.62
882.363	12186.62
882.605	12257.62
882.846	12120.62
883.088	12226.62
883.329	12208.62
883.571	12192.62
883.812	12319.62
884.053	12597.62
884.295	12825.62
884.536	13060.62
884.777	12920.62
885.018	12813.62
885.259	12754.62
885.5	12580.62
885.742	12902.62
885.982	12594.62
886.223	12501.62
886.464	12371.62
886.705	12182.62
886.946	12101.62
887.187	11931.62
887.428	11854.62
887.668	11604.62
887.909	11447.62
888.15	11247.62
888.39	11255.62
888.631	11308.62
888.871	11116.62
889.111	11042.62
889.352	10999.62
889.592	10813.62
889.833	10709.62
890.073	10668.62
890.313	10668.62
890.553	10442.62
890.793	10544.62
891.033	10399.62
891.273	10407.62
891.513	10290.62
891.753	10447.62
891.993	10290.62
892.233	10349.62
892.473	10388.62
892.713	10376.62
892.952	10290.62
893.192	10368.62
893.432	10303.62
893.671	10342.62
893.911	10258.62
894.15	10161.62
894.39	10035.62
894.629	10038.62
894.869	9959.62
895.108	9954.62
895.347	9849.62
895.587	9817.62
895.826	9739.62
896.065	9745.62
896.304	9706.62
896.543	9816.62
896.782	9667.62
897.021	9704.62
897.26	9653.62
897.499	9661.62
897.738	9652.62
897.977	9533.62
898.216	9503.62
898.454	9395.62
898.693	9370.62
898.932	9317.62
899.17	9244.62
899.409	9288.62
899.647	9200.62
899.886	9126.62
900.124	9232.62
900.363	9149.62
900.601	9174.62
900.839	9201.62
901.078	9245.62
901.316	9310.62
901.554	9281.62
901.792	9342.62
902.03	9355.62
902.268	9337.62
902.506	9302.62
902.744	9231.62
902.982	9164.62
903.22	9060.62
903.458	8919.62
903.695	8859.62
903.933	8640.62
904.171	8588.62
904.409	8414.62
904.646	8351.62
904.884	8231.62
905.121	8204.62
905.359	8069.62
905.596	8076.62
905.833	7962.62
906.071	7914.62
906.308	7933.62
906.545	7943.62
906.783	7855.62
907.02	7922.62
907.257	7804.62
907.494	7830.62
907.731	7851.62
907.968	7767.62
908.205	7688.62
908.442	7695.62
908.679	7587.62
908.915	7558.62
909.152	7566.62
909.389	7315.62
909.626	7402.62
909.862	7300.62
910.099	7298.62
910.335	7291.62
910.572	7210.62
910.808	7298.62
911.045	7230.62
911.281	7148.62
911.518	7162.62
911.754	7056.62
911.99	6997.62
912.226	7066.62
912.463	6962.62
912.699	6898.62
912.935	6879.62
913.171	6797.62
913.407	6716.62
913.643	6739.62
913.879	6716.62
914.114	6561.62
914.35	6518.62
914.586	6479.62
914.822	6405.62
915.057	6456.62
915.293	6313.62
915.529	6291.62
915.764	6320.62
916	6307.62
916.235	6263.62
916.471	6284.62
916.706	6161.62
916.941	6193.62
917.177	6193.62
917.412	6225.62
917.647	6181.62
917.882	6161.62
918.117	6220.62
918.352	6142.62
918.588	6174.62
918.823	6036.62
919.057	6036.62
919.292	5883.62
919.527	6009.62
919.762	5819.62
919.997	5861.62
920.232	5741.62
920.466	5744.62
920.701	5598.62
920.935	5625.62
921.17	5561.62
921.405	5576.62
921.639	5552.62
921.873	5468.62
922.108	5526.62
922.342	5479.62
922.576	5458.62
922.811	5450.62
923.045	5452.62
923.279	5465.62
923.513	5285.62
923.747	5341.62
923.981	5346.62
924.215	5279.62
924.449	5235.62
924.683	5157.62
924.917	5184.62
925.151	5092.62
925.385	5177.62
925.618	5134.62
925.852	5090.62
926.086	5040.62
926.319	5075.62
926.553	5086.62
926.786	5085.62
927.02	5044.62
927.253	5094.62
927.486	5090.62
927.72	5047.62
927.953	5063.62
928.186	4981.62
928.42	5017.62
928.653	4911.62
928.886	4926.62
929.119	4929.62
929.352	4922.62
929.585	4863.62
929.818	4758.62
930.051	4810.62
930.284	4783.62
930.516	4671.62
930.749	4656.62
930.982	4704.62
931.215	4680.62
931.447	4576.62
931.68	4589.62
931.912	4580.62
932.145	4603.62
932.377	4599.62
932.61	4722.62
932.842	4549.62
933.074	4613.62
933.307	4523.62
933.539	4642.62
933.771	4554.62
934.003	4518.62
934.236	4600.62
934.468	4614.62
934.7	4502.62
934.932	4514.62
935.164	4459.62
935.395	4445.62
935.627	4501.62
935.859	4461.62
936.091	4468.62
936.323	4479.62
936.554	4424.62
936.786	4365.62
937.017	4295.62
937.249	4428.62
937.481	4313.62
937.712	4378.62
937.943	4365.62
938.175	4333.62
938.406	4253.62
938.637	4350.62
938.869	4257.62
939.1	4296.62
939.331	4272.62
939.562	4267.62
939.793	4262.62
940.024	4266.62
940.255	4216.62
940.486	4199.62
940.717	4185.62
940.948	4198.62
941.179	4102.62
941.409	4148.62
941.64	4105.62
941.871	4110.62
942.102	4122.62
942.332	4113.62
942.563	4092.62
942.793	4139.62
943.024	4050.62
943.254	4121.62
943.484	4108.62
943.715	4189.62
943.945	4115.62
944.175	4082.62
944.405	4019.62
944.636	3953.62
944.866	4093.62
945.096	4045.62
945.326	3995.62
945.556	4036.62
945.786	4060.62
946.016	3983.62
946.245	3917.62
946.475	3904.62
946.705	3919.62
946.935	3930.62
947.164	3871.62
947.394	3812.62
947.624	3862.62
947.853	3852.62
948.083	3807.62
948.312	3795.62
948.542	3737.62
948.771	3687.62
949	3707.62
949.23	3687.62
949.459	3722.62
949.688	3774.62
949.917	3750.62
950.146	3764.62
950.375	3782.62
950.604	3676.62
950.833	3792.62
951.062	3766.62
951.291	3684.62
951.52	3689.62
951.749	3666.62
951.978	3603.62
952.206	3653.62
952.435	3606.62
952.664	3647.62
952.892	3598.62
953.121	3582.62
953.349	3606.62
953.578	3617.62
953.806	3595.62
954.035	3462.62
954.263	3560.62
954.491	3495.62
954.719	3531.62
954.948	3426.62
955.176	3427.62
955.404	3392.62
955.632	3512.62
955.86	3423.62
956.088	3413.62
956.316	3431.62
956.544	3429.62
956.772	3372.62
956.999	3378.62
957.227	3433.62
957.455	3298.62
957.683	3284.62
957.91	3247.62
958.138	3264.62
958.365	3248.62
958.593	3255.62
958.82	3233.62
959.048	3221.62
959.275	3208.62
959.502	3211.62
959.73	3159.62
959.957	3185.62
960.184	3189.62
960.411	3163.62
960.638	3208.62
960.865	3164.62
961.092	3228.62
961.319	3082.62
961.546	3192.62
961.773	3197.62
962	3095.62
962.227	3192.62
962.454	3141.62
962.68	3149.62
962.907	3140.62
963.134	3061.62
963.36	3104.62
963.587	3096.62
963.813	3035.62
964.04	3082.62
964.266	3005.62
964.493	3046.62
964.719	3019.62
964.945	3012.62
965.171	2884.62
965.398	2985.62
965.624	2936.62
965.85	2893.62
966.076	2895.62
966.302	2911.62
966.528	2853.62
966.754	2896.62
966.98	2871.62
967.206	2840.62
967.431	2829.62
967.657	2843.62
967.883	2866.62
968.109	2797.62
968.334	2792.62
968.56	2766.62
968.785	2831.62
969.011	2766.62
969.236	2807.62
969.462	2722.62
969.687	2739.62
969.912	2796.62
970.138	2820.62
970.363	2713.62
970.588	2737.62
970.813	2695.62
971.038	2665.62
971.263	2703.62
971.488	2697.62
971.713	2727.62
971.938	2737.62
972.163	2637.62
972.388	2657.62
972.613	2630.62
972.838	2656.62
973.062	2624.62
973.287	2592.62
973.512	2538.62
973.736	2590.62
973.961	2556.62
974.185	2543.62
974.41	2568.62
974.634	2485.62
974.858	2469.62
975.083	2489.62
975.307	2544.62
975.531	2468.62
975.755	2403.62
975.98	2409.62
976.204	2370.62
976.428	2375.62
976.652	2365.62
976.876	2315.62
977.1	2365.62
977.324	2297.62
977.547	2390.62
977.771	2380.62
977.995	2350.62
978.219	2272.62
978.442	2415.62
978.666	2331.62
978.89	2317.62
979.113	2319.62
979.337	2277.62
979.56	2287.62
979.783	2357.62
980.007	2260.62
980.23	2293.62
980.453	2264.62
980.677	2256.62
980.9	2239.62
981.123	2147.62
981.346	2222.62
981.569	2207.62
981.792	2246.62
982.015	2184.62
982.238	2148.62
982.461	2191.62
982.684	2151.62
982.907	2100.62
983.129	2076.62
983.352	2149.62
983.575	2110.62
983.797	2109.62
984.02	2044.62
984.242	2108.62
984.465	2085.62
984.687	2118.62
984.91	2131.62
985.132	2049.62
985.354	2119.62
985.577	2065.62
985.799	2066.62
986.021	1978.62
986.243	1984.62
986.465	2002.62
986.687	2060.62
986.909	2092.62
987.131	2041.62
987.353	1975.62
987.575	2034.62
987.797	1965.62
988.019	1930.62
988.241	1972.62
988.462	1931.62
988.684	2016.62
988.906	2010.62
989.127	2038.62
989.349	1893.62
989.57	1922.62
989.792	1985.62
990.013	1999.62
990.234	1991.62
990.456	2015.62
990.677	1974.62
990.898	1916.62
991.119	1906.62
991.341	1944.62
991.562	1845.62
991.783	1893.62
992.004	1851.62
992.225	1841.62
992.446	1871.62
992.667	1783.62
992.887	1864.62
993.108	1753.62
993.329	1884.62
993.55	1829.62
993.77	1779.62
993.991	1794.62
994.212	1815.62
994.432	1798.62
994.653	1825.62
994.873	1789.62
995.093	1677.62
995.314	1751.62
995.534	1802.62
995.754	1780.62
995.975	1829.62
996.195	1715.62
996.415	1755.62
996.635	1763.62
996.855	1760.62
997.075	1708.62
997.295	1706.62
997.515	1692.62
997.735	1748.62
997.955	1742.62
998.174	1747.62
998.394	1669.62
998.614	1732.62
998.834	1684.62
999.053	1741.62
999.273	1722.62
999.492	1761.62
999.712	1693.62
999.931	1661.62
1000.151	1689.62
1000.37	1687.62
1000.589	1735.62
1000.809	1660.62
1001.028	1743.62
1001.247	1680.62
1001.466	1590.62
1001.685	1723.62
1001.904	1668.62
1002.123	1657.62
1002.342	1644.62
1002.561	1608.62
1002.78	1629.62
1002.999	1703.62
1003.218	1629.62
1003.436	1597.62
1003.655	1642.62
1003.874	1571.62
1004.092	1608.62
1004.311	1651.62
1004.53	1618.62
1004.748	1670.62
1004.966	1608.62
1005.185	1629.62
1005.403	1629.62
1005.622	1608.62
1005.84	1673.62
1006.058	1559.62
1006.276	1630.62
1006.494	2083.62
1006.712	1581.62
1006.931	1648.62
1007.149	1570.62
1007.367	1583.62
1007.584	1621.62
1007.802	1643.62
1008.02	1593.62
1008.238	1687.62
1008.456	1688.62
1008.673	1572.62
1008.891	1650.62
1009.109	1628.62
1009.326	1683.62
1009.544	1792.62
1009.761	1705.62
1009.979	1799.62
1010.196	1810.62
1010.413	1894.62
1010.631	1983.62
1010.848	2030.62
1011.065	2021.62
1011.282	1964.62
1011.5	1922.62
1011.717	2011.62
1011.934	1932.62
1012.151	1979.62
1012.368	1928.62
1012.585	1898.62
1012.801	1938.62
1013.018	1925.62
1013.235	1885.62
1013.452	1895.62
1013.669	1930.62
1013.885	1896.62
1014.102	1920.62
1014.318	1911.62
1014.535	1873.62
1014.751	1880.62
1014.968	1907.62
1015.184	1893.62
1015.401	1838.62
1015.617	1844.62
1015.833	1763.62
1016.049	1784.62
1016.266	1780.62
1016.482	1779.62
1016.698	1717.62
1016.914	1718.62
1017.13	1679.62
1017.346	1658.62
1017.562	1706.62
1017.778	1654.62
1017.993	1638.62
1018.209	1664.62
1018.425	1649.62
1018.641	1589.62
1018.856	1600.62
1019.072	1590.62
1019.288	1637.62
1019.503	1607.62
1019.719	1536.62
1019.934	1517.62
1020.149	1609.62
1020.365	1523.62
1020.58	1471.62
1020.795	1538.62
1021.011	1446.62
1021.226	1419.62
1021.441	1435.62
1021.656	1364.62
1021.871	1291.62
1022.086	1314.62
1022.301	1281.62
1022.516	1280.62
1022.731	1307.62
1022.946	1219.62
1023.16	1221.62
1023.375	1168.62
1023.59	1140.62
1023.804	1108.62
1024.019	1220.62
1024.234	1094.62
1024.448	1119.62
1024.663	1032.62
1024.877	1047.62
1025.092	1052.62
1025.306	1050.62
1025.52	956.62
1025.734	1047.62
1025.949	971.62
1026.163	926.62
1026.377	884.62
1026.591	950.62
1026.805	861.62
1027.019	852.62
1027.233	806.62
1027.447	759.62
1027.661	865.62
1027.875	799.62
1028.088	807.62
1028.302	741.62
1028.516	729.62
1028.73	715.62
1028.943	706.62
1029.157	653.62
1029.37	611.62
1029.584	-6.38
1029.797	2.62
1030.011	-2.38
1030.224	0.62
