Data from QEP037381__209__10-49-34-539.txt Node

Date: Wed Dec 21 10:49:34 EST 2022
User: dcclab
Spectrometer: QEP03738
Trigger mode: 4
Integration Time (sec): 1.000000E1
Scans to average: 1
Electric dark correction enabled: true
Nonlinearity correction enabled: false
Boxcar width: 0
XAxis mode: Wavelengths
Number of Pixels in Spectrum: 1044
>>>>>Begin Spectral Data<<<<<
784.041	13.88
784.3	0.88
784.558	-6.12
784.817	-4.12
785.075	111676.88
785.334	19257.88
785.592	8947.88
785.851	6210.88
786.109	4720.88
786.368	3640.88
786.626	2913.88
786.884	2471.88
787.143	2031.88
787.401	1671.88
787.659	1504.88
787.917	1295.88
788.175	1188.88
788.433	1032.88
788.691	913.88
788.949	843.88
789.207	785.88
789.465	687.88
789.723	652.88
789.98	611.88
790.238	625.88
790.496	602.88
790.753	596.88
791.011	634.88
791.268	541.88
791.526	533.88
791.783	538.88
792.041	507.88
792.298	435.88
792.556	498.88
792.813	492.88
793.07	456.88
793.327	450.88
793.584	525.88
793.841	446.88
794.099	467.88
794.356	511.88
794.613	417.88
794.869	463.88
795.126	410.88
795.383	401.88
795.64	415.88
795.897	375.88
796.153	446.88
796.41	405.88
796.667	386.88
796.923	392.88
797.18	397.88
797.436	424.88
797.693	383.88
797.949	438.88
798.206	473.88
798.462	395.88
798.718	421.88
798.974	405.88
799.231	446.88
799.487	426.88
799.743	439.88
799.999	447.88
800.255	451.88
800.511	435.88
800.767	466.88
801.023	442.88
801.279	471.88
801.534	497.88
801.79	531.88
802.046	519.88
802.302	634.88
802.557	655.88
802.813	777.88
803.068	873.88
803.324	1194.88
803.579	1541.88
803.835	2057.88
804.09	2809.88
804.345	3567.88
804.601	4459.88
804.856	5378.88
805.111	6178.88
805.366	6717.88
805.621	7153.88
805.876	7519.88
806.131	7672.88
806.386	7785.88
806.641	7902.88
806.896	7986.88
807.151	8201.88
807.406	8234.88
807.661	8373.88
807.915	8553.88
808.17	8660.88
808.425	8799.88
808.679	8822.88
808.934	8996.88
809.188	8960.88
809.443	9035.88
809.697	9200.88
809.951	9258.88
810.206	9292.88
810.46	9367.88
810.714	9461.88
810.968	9532.88
811.223	9569.88
811.477	9723.88
811.731	9775.88
811.985	9803.88
812.239	9769.88
812.493	9862.88
812.747	9886.88
813	9924.88
813.254	9915.88
813.508	10059.88
813.762	10001.88
814.015	10011.88
814.269	10132.88
814.522	10290.88
814.776	10382.88
815.03	10456.88
815.283	10592.88
815.536	10724.88
815.79	10997.88
816.043	11055.88
816.296	11140.88
816.55	11349.88
816.803	11419.88
817.056	11604.88
817.309	11644.88
817.562	11845.88
817.815	11988.88
818.068	12002.88
818.321	12091.88
818.574	12173.88
818.827	12403.88
819.079	12545.88
819.332	12759.88
819.585	12911.88
819.838	13038.88
820.09	13100.88
820.343	13303.88
820.595	13267.88
820.848	13279.88
821.1	13410.88
821.353	13401.88
821.605	13406.88
821.857	13379.88
822.11	13307.88
822.362	13264.88
822.614	13192.88
822.866	13328.88
823.118	13279.88
823.37	13339.88
823.622	13387.88
823.874	13332.88
824.126	13444.88
824.378	13418.88
824.63	13442.88
824.882	13559.88
825.134	13425.88
825.385	13577.88
825.637	13424.88
825.888	13393.88
826.14	13333.88
826.392	13313.88
826.643	13113.88
826.895	13185.88
827.146	13101.88
827.397	13088.88
827.649	13082.88
827.9	13131.88
828.151	13097.88
828.402	13053.88
828.653	13095.88
828.905	13145.88
829.156	13246.88
829.407	13094.88
829.658	13180.88
829.909	13182.88
830.159	13252.88
830.41	13195.88
830.661	13098.88
830.912	12966.88
831.162	12900.88
831.413	12854.88
831.664	12906.88
831.914	12977.88
832.165	12974.88
832.415	12871.88
832.666	12898.88
832.916	12981.88
833.167	12870.88
833.417	12903.88
833.667	12867.88
833.917	12843.88
834.168	12744.88
834.418	12842.88
834.668	12704.88
834.918	12676.88
835.168	12709.88
835.418	12465.88
835.668	12507.88
835.918	12534.88
836.167	12495.88
836.417	12432.88
836.667	12436.88
836.917	12481.88
837.166	12447.88
837.416	12423.88
837.666	12477.88
837.915	12458.88
838.165	12336.88
838.414	12283.88
838.663	12160.88
838.913	12284.88
839.162	12279.88
839.411	12262.88
839.661	12221.88
839.91	12151.88
840.159	12161.88
840.408	12247.88
840.657	12159.88
840.906	12224.88
841.155	12154.88
841.404	12145.88
841.653	12097.88
841.902	12201.88
842.15	12221.88
842.399	12249.88
842.648	12204.88
842.897	12164.88
843.145	12049.88
843.394	11973.88
843.642	11936.88
843.891	11887.88
844.139	11814.88
844.388	11747.88
844.636	11645.88
844.884	11684.88
845.133	11618.88
845.381	11641.88
845.629	11664.88
845.877	11669.88
846.125	11617.88
846.373	11628.88
846.621	11594.88
846.869	11472.88
847.117	11555.88
847.365	11441.88
847.613	11304.88
847.861	11362.88
848.108	11399.88
848.356	11284.88
848.604	11255.88
848.851	11298.88
849.099	11362.88
849.346	11305.88
849.594	11425.88
849.841	11458.88
850.089	11478.88
850.336	11520.88
850.583	11452.88
850.831	11452.88
851.078	11340.88
851.325	11326.88
851.572	11379.88
851.819	11221.88
852.066	11016.88
852.313	10911.88
852.56	10843.88
852.807	10742.88
853.054	10738.88
853.301	10722.88
853.548	10700.88
853.794	10893.88
854.041	10853.88
854.288	10884.88
854.534	11029.88
854.781	10990.88
855.028	10941.88
855.274	10967.88
855.52	10856.88
855.767	10804.88
856.013	10857.88
856.26	11064.88
856.506	10741.88
856.752	10711.88
856.998	10692.88
857.244	10761.88
857.49	10797.88
857.736	10772.88
857.982	10807.88
858.228	10850.88
858.474	10716.88
858.72	10624.88
858.966	10515.88
859.212	10438.88
859.458	10356.88
859.703	10210.88
859.949	10043.88
860.195	10061.88
860.44	10039.88
860.686	9948.88
860.931	10002.88
861.177	9930.88
861.422	9913.88
861.667	9848.88
861.913	9793.88
862.158	9894.88
862.403	9851.88
862.648	9904.88
862.893	9889.88
863.138	9847.88
863.384	9830.88
863.629	9821.88
863.873	9789.88
864.118	9769.88
864.363	9692.88
864.608	9698.88
864.853	9642.88
865.098	9633.88
865.342	9586.88
865.587	9588.88
865.832	9566.88
866.076	9487.88
866.321	9472.88
866.565	9467.88
866.81	9316.88
867.054	9367.88
867.298	9380.88
867.543	9387.88
867.787	9328.88
868.031	9300.88
868.275	9349.88
868.519	9340.88
868.764	9281.88
869.008	9242.88
869.252	9202.88
869.496	9165.88
869.739	9285.88
869.983	9230.88
870.227	9207.88
870.471	9173.88
870.715	9270.88
870.958	9256.88
871.202	9275.88
871.446	9346.88
871.689	9218.88
871.933	9266.88
872.176	9278.88
872.42	9229.88
872.663	9224.88
872.906	9259.88
873.15	9219.88
873.393	9208.88
873.636	9232.88
873.879	9115.88
874.122	9048.88
874.366	8879.88
874.609	8846.88
874.852	8708.88
875.095	8782.88
875.337	8645.88
875.58	8562.88
875.823	8637.88
876.066	8573.88
876.309	8565.88
876.551	8459.88
876.794	8453.88
877.037	8462.88
877.279	8354.88
877.522	8407.88
877.764	8418.88
878.007	8303.88
878.249	8320.88
878.491	8299.88
878.734	8411.88
878.976	8329.88
879.218	8198.88
879.46	8265.88
879.702	8161.88
879.945	8128.88
880.187	7995.88
880.429	7964.88
880.671	7939.88
880.912	7932.88
881.154	7913.88
881.396	7768.88
881.638	7801.88
881.88	7782.88
882.121	7697.88
882.363	7769.88
882.605	7829.88
882.846	7799.88
883.088	7813.88
883.329	7795.88
883.571	7783.88
883.812	7898.88
884.053	8055.88
884.295	8242.88
884.536	8410.88
884.777	8311.88
885.018	8277.88
885.259	8235.88
885.5	8055.88
885.742	8355.88
885.982	8071.88
886.223	7937.88
886.464	7968.88
886.705	7872.88
886.946	7802.88
887.187	7616.88
887.428	7577.88
887.668	7441.88
887.909	7351.88
888.15	7167.88
888.39	7221.88
888.631	7212.88
888.871	7138.88
889.111	7040.88
889.352	7026.88
889.592	6897.88
889.833	6889.88
890.073	6816.88
890.313	6850.88
890.553	6700.88
890.793	6685.88
891.033	6653.88
891.273	6666.88
891.513	6686.88
891.753	6717.88
891.993	6605.88
892.233	6686.88
892.473	6700.88
892.713	6629.88
892.952	6624.88
893.192	6667.88
893.432	6595.88
893.671	6631.88
893.911	6536.88
894.15	6518.88
894.39	6511.88
894.629	6461.88
894.869	6473.88
895.108	6332.88
895.347	6393.88
895.587	6350.88
895.826	6317.88
896.065	6291.88
896.304	6288.88
896.543	6362.88
896.782	6144.88
897.021	6240.88
897.26	6223.88
897.499	6315.88
897.738	6279.88
897.977	6150.88
898.216	6076.88
898.454	6036.88
898.693	5975.88
898.932	6047.88
899.17	5966.88
899.409	5962.88
899.647	5943.88
899.886	5975.88
900.124	5956.88
900.363	5941.88
900.601	6001.88
900.839	5979.88
901.078	6000.88
901.316	6052.88
901.554	6013.88
901.792	6081.88
902.03	6066.88
902.268	6019.88
902.506	6058.88
902.744	6060.88
902.982	5992.88
903.22	5868.88
903.458	5824.88
903.695	5751.88
903.933	5683.88
904.171	5550.88
904.409	5500.88
904.646	5438.88
904.884	5333.88
905.121	5336.88
905.359	5275.88
905.596	5196.88
905.833	5102.88
906.071	5132.88
906.308	5241.88
906.545	5158.88
906.783	5044.88
907.02	5077.88
907.257	5058.88
907.494	5073.88
907.731	5081.88
907.968	5100.88
908.205	4973.88
908.442	5005.88
908.679	4962.88
908.915	4941.88
909.152	4911.88
909.389	4792.88
909.626	4802.88
909.862	4710.88
910.099	4759.88
910.335	4785.88
910.572	4713.88
910.808	4740.88
911.045	4669.88
911.281	4663.88
911.518	4710.88
911.754	4649.88
911.99	4660.88
912.226	4595.88
912.463	4535.88
912.699	4502.88
912.935	4487.88
913.171	4445.88
913.407	4392.88
913.643	4428.88
913.879	4338.88
914.114	4330.88
914.35	4275.88
914.586	4248.88
914.822	4196.88
915.057	4231.88
915.293	4094.88
915.529	4114.88
915.764	4186.88
916	4134.88
916.235	4142.88
916.471	4139.88
916.706	4039.88
916.941	4106.88
917.177	4083.88
917.412	4105.88
917.647	4112.88
917.882	4004.88
918.117	4076.88
918.352	4094.88
918.588	4080.88
918.823	3961.88
919.057	3993.88
919.292	3850.88
919.527	3935.88
919.762	3860.88
919.997	3844.88
920.232	3763.88
920.466	3748.88
920.701	3696.88
920.935	3728.88
921.17	3656.88
921.405	3631.88
921.639	3678.88
921.873	3613.88
922.108	3646.88
922.342	3660.88
922.576	3595.88
922.811	3512.88
923.045	3622.88
923.279	3616.88
923.513	3498.88
923.747	3609.88
923.981	3509.88
924.215	3477.88
924.449	3464.88
924.683	3399.88
924.917	3411.88
925.151	3422.88
925.385	3434.88
925.618	3396.88
925.852	3401.88
926.086	3344.88
926.319	3352.88
926.553	3381.88
926.786	3370.88
927.02	3312.88
927.253	3400.88
927.486	3399.88
927.72	3306.88
927.953	3362.88
928.186	3359.88
928.42	3365.88
928.653	3294.88
928.886	3298.88
929.119	3328.88
929.352	3284.88
929.585	3275.88
929.818	3214.88
930.051	3252.88
930.284	3201.88
930.516	3128.88
930.749	3067.88
930.982	3171.88
931.215	3129.88
931.447	3044.88
931.68	3097.88
931.912	3065.88
932.145	3035.88
932.377	3101.88
932.61	3167.88
932.842	2999.88
933.074	3077.88
933.307	3017.88
933.539	3130.88
933.771	3099.88
934.003	3060.88
934.236	3088.88
934.468	3119.88
934.7	3045.88
934.932	3065.88
935.164	3011.88
935.395	3004.88
935.627	3045.88
935.859	3046.88
936.091	2933.88
936.323	3008.88
936.554	2997.88
936.786	2955.88
937.017	2921.88
937.249	2949.88
937.481	2896.88
937.712	2942.88
937.943	2927.88
938.175	2889.88
938.406	2913.88
938.637	2943.88
938.869	2825.88
939.1	2947.88
939.331	2891.88
939.562	2903.88
939.793	2909.88
940.024	2898.88
940.255	2900.88
940.486	2830.88
940.717	2861.88
940.948	2835.88
941.179	2770.88
941.409	2793.88
941.64	2782.88
941.871	2769.88
942.102	2787.88
942.332	2784.88
942.563	2818.88
942.793	2803.88
943.024	2725.88
943.254	2769.88
943.484	2809.88
943.715	2826.88
943.945	2811.88
944.175	2701.88
944.405	2707.88
944.636	2710.88
944.866	2798.88
945.096	2787.88
945.326	2699.88
945.556	2727.88
945.786	2782.88
946.016	2700.88
946.245	2677.88
946.475	2656.88
946.705	2676.88
946.935	2685.88
947.164	2636.88
947.394	2562.88
947.624	2653.88
947.853	2640.88
948.083	2608.88
948.312	2607.88
948.542	2543.88
948.771	2508.88
949	2526.88
949.23	2536.88
949.459	2588.88
949.688	2578.88
949.917	2522.88
950.146	2526.88
950.375	2623.88
950.604	2480.88
950.833	2596.88
951.062	2591.88
951.291	2566.88
951.52	2521.88
951.749	2496.88
951.978	2467.88
952.206	2469.88
952.435	2462.88
952.664	2512.88
952.892	2534.88
953.121	2511.88
953.349	2510.88
953.578	2500.88
953.806	2462.88
954.035	2415.88
954.263	2461.88
954.491	2382.88
954.719	2422.88
954.948	2385.88
955.176	2382.88
955.404	2336.88
955.632	2395.88
955.86	2375.88
956.088	2376.88
956.316	2364.88
956.544	2391.88
956.772	2341.88
956.999	2301.88
957.227	2383.88
957.455	2277.88
957.683	2313.88
957.91	2261.88
958.138	2296.88
958.365	2236.88
958.593	2261.88
958.82	2188.88
959.048	2275.88
959.275	2238.88
959.502	2233.88
959.73	2185.88
959.957	2227.88
960.184	2239.88
960.411	2203.88
960.638	2244.88
960.865	2208.88
961.092	2268.88
961.319	2170.88
961.546	2226.88
961.773	2237.88
962	2220.88
962.227	2233.88
962.454	2196.88
962.68	2202.88
962.907	2187.88
963.134	2155.88
963.36	2160.88
963.587	2224.88
963.813	2085.88
964.04	2166.88
964.266	2110.88
964.493	2164.88
964.719	2158.88
964.945	2160.88
965.171	2046.88
965.398	2107.88
965.624	2145.88
965.85	2052.88
966.076	2016.88
966.302	2071.88
966.528	2046.88
966.754	2062.88
966.98	2044.88
967.206	2019.88
967.431	1992.88
967.657	2063.88
967.883	2053.88
968.109	2029.88
968.334	1961.88
968.56	1966.88
968.785	1955.88
969.011	1947.88
969.236	2025.88
969.462	1953.88
969.687	1966.88
969.912	1999.88
970.138	2020.88
970.363	1936.88
970.588	1967.88
970.813	1903.88
971.038	1901.88
971.263	1988.88
971.488	1958.88
971.713	1947.88
971.938	1960.88
972.163	1877.88
972.388	1911.88
972.613	1861.88
972.838	1900.88
973.062	1873.88
973.287	1876.88
973.512	1782.88
973.736	1836.88
973.961	1825.88
974.185	1802.88
974.41	1819.88
974.634	1756.88
974.858	1766.88
975.083	1795.88
975.307	1842.88
975.531	1784.88
975.755	1704.88
975.98	1739.88
976.204	1676.88
976.428	1695.88
976.652	1679.88
976.876	1712.88
977.1	1708.88
977.324	1685.88
977.547	1726.88
977.771	1731.88
977.995	1687.88
978.219	1619.88
978.442	1754.88
978.666	1690.88
978.89	1688.88
979.113	1685.88
979.337	1667.88
979.56	1645.88
979.783	1736.88
980.007	1620.88
980.23	1665.88
980.453	1628.88
980.677	1662.88
980.9	1652.88
981.123	1550.88
981.346	1632.88
981.569	1628.88
981.792	1657.88
982.015	1630.88
982.238	1553.88
982.461	1566.88
982.684	1550.88
982.907	1540.88
983.129	1547.88
983.352	1574.88
983.575	1572.88
983.797	1568.88
984.02	1523.88
984.242	1543.88
984.465	1564.88
984.687	1559.88
984.91	1595.88
985.132	1551.88
985.354	1561.88
985.577	1532.88
985.799	1520.88
986.021	1459.88
986.243	1479.88
986.465	1514.88
986.687	1544.88
986.909	1570.88
987.131	1487.88
987.353	1480.88
987.575	1499.88
987.797	1471.88
988.019	1406.88
988.241	1486.88
988.462	1422.88
988.684	1501.88
988.906	1532.88
989.127	1547.88
989.349	1431.88
989.57	1467.88
989.792	1488.88
990.013	1502.88
990.234	1514.88
990.456	1523.88
990.677	1526.88
990.898	1441.88
991.119	1424.88
991.341	1486.88
991.562	1423.88
991.783	1469.88
992.004	1409.88
992.225	1372.88
992.446	1435.88
992.667	1348.88
992.887	1424.88
993.108	1336.88
993.329	1437.88
993.55	1411.88
993.77	1338.88
993.991	1339.88
994.212	1416.88
994.432	1392.88
994.653	1389.88
994.873	1360.88
995.093	1249.88
995.314	1322.88
995.534	1398.88
995.754	1414.88
995.975	1416.88
996.195	1279.88
996.415	1366.88
996.635	1342.88
996.855	1361.88
997.075	1341.88
997.295	1320.88
997.515	1293.88
997.735	1357.88
997.955	1315.88
998.174	1339.88
998.394	1301.88
998.614	1351.88
998.834	1300.88
999.053	1366.88
999.273	1342.88
999.492	1395.88
999.712	1326.88
999.931	1305.88
1000.151	1335.88
1000.37	1315.88
1000.589	1364.88
1000.809	1304.88
1001.028	1390.88
1001.247	1347.88
1001.466	1237.88
1001.685	1380.88
1001.904	1331.88
1002.123	1320.88
1002.342	1312.88
1002.561	1271.88
1002.78	1281.88
1002.999	1372.88
1003.218	1308.88
1003.436	1277.88
1003.655	1328.88
1003.874	1267.88
1004.092	1289.88
1004.311	1330.88
1004.53	1294.88
1004.748	1361.88
1004.966	1270.88
1005.185	1335.88
1005.403	1329.88
1005.622	1307.88
1005.84	1363.88
1006.058	1302.88
1006.276	1285.88
1006.494	1825.88
1006.712	1294.88
1006.931	1351.88
1007.149	1254.88
1007.367	1287.88
1007.584	1322.88
1007.802	1322.88
1008.02	1277.88
1008.238	1369.88
1008.456	1371.88
1008.673	1233.88
1008.891	1377.88
1009.109	1316.88
1009.326	1345.88
1009.544	1436.88
1009.761	1352.88
1009.979	1429.88
1010.196	1475.88
1010.413	1536.88
1010.631	1580.88
1010.848	1616.88
1011.065	1593.88
1011.282	1551.88
1011.5	1512.88
1011.717	1632.88
1011.934	1554.88
1012.151	1602.88
1012.368	1556.88
1012.585	1490.88
1012.801	1563.88
1013.018	1534.88
1013.235	1480.88
1013.452	1512.88
1013.669	1535.88
1013.885	1535.88
1014.102	1548.88
1014.318	1510.88
1014.535	1480.88
1014.751	1522.88
1014.968	1515.88
1015.184	1550.88
1015.401	1465.88
1015.617	1481.88
1015.833	1410.88
1016.049	1441.88
1016.266	1403.88
1016.482	1435.88
1016.698	1349.88
1016.914	1406.88
1017.13	1366.88
1017.346	1342.88
1017.562	1415.88
1017.778	1324.88
1017.993	1295.88
1018.209	1334.88
1018.425	1337.88
1018.641	1278.88
1018.856	1282.88
1019.072	1299.88
1019.288	1328.88
1019.503	1302.88
1019.719	1199.88
1019.934	1248.88
1020.149	1309.88
1020.365	1252.88
1020.58	1177.88
1020.795	1224.88
1021.011	1170.88
1021.226	1151.88
1021.441	1187.88
1021.656	1125.88
1021.871	1030.88
1022.086	1058.88
1022.301	1048.88
1022.516	1039.88
1022.731	1102.88
1022.946	1015.88
1023.16	991.88
1023.375	970.88
1023.59	954.88
1023.804	921.88
1024.019	1006.88
1024.234	892.88
1024.448	920.88
1024.663	857.88
1024.877	856.88
1025.092	889.88
1025.306	905.88
1025.52	799.88
1025.734	894.88
1025.949	787.88
1026.163	787.88
1026.377	727.88
1026.591	765.88
1026.805	690.88
1027.019	706.88
1027.233	683.88
1027.447	616.88
1027.661	720.88
1027.875	656.88
1028.088	679.88
1028.302	614.88
1028.516	596.88
1028.73	605.88
1028.943	597.88
1029.157	565.88
1029.37	535.88
1029.584	-0.12
1029.797	-0.12
1030.011	-2.12
1030.224	-2.12
