Data from QEP037381__164__10-42-04-538.txt Node

Date: Wed Dec 21 10:42:04 EST 2022
User: dcclab
Spectrometer: QEP03738
Trigger mode: 4
Integration Time (sec): 1.000000E1
Scans to average: 1
Electric dark correction enabled: true
Nonlinearity correction enabled: false
Boxcar width: 0
XAxis mode: Wavelengths
Number of Pixels in Spectrum: 1044
>>>>>Begin Spectral Data<<<<<
784.041	13.38
784.3	-0.62
784.558	-6.62
784.817	-2.62
785.075	111741.38
785.334	19146.38
785.592	8943.38
785.851	6166.38
786.109	4612.38
786.368	3600.38
786.626	2913.38
786.884	2454.38
787.143	2012.38
787.401	1632.38
787.659	1486.38
787.917	1272.38
788.175	1167.38
788.433	1004.38
788.691	933.38
788.949	867.38
789.207	831.38
789.465	691.38
789.723	671.38
789.98	623.38
790.238	657.38
790.496	633.38
790.753	590.38
791.011	660.38
791.268	586.38
791.526	552.38
791.783	561.38
792.041	556.38
792.298	475.38
792.556	529.38
792.813	499.38
793.07	476.38
793.327	480.38
793.584	550.38
793.841	480.38
794.099	476.38
794.356	528.38
794.613	441.38
794.869	481.38
795.126	442.38
795.383	437.38
795.64	450.38
795.897	395.38
796.153	449.38
796.41	433.38
796.667	429.38
796.923	461.38
797.18	420.38
797.436	462.38
797.693	423.38
797.949	490.38
798.206	495.38
798.462	420.38
798.718	484.38
798.974	466.38
799.231	491.38
799.487	496.38
799.743	495.38
799.999	523.38
800.255	540.38
800.511	521.38
800.767	566.38
801.023	545.38
801.279	581.38
801.534	620.38
801.79	672.38
802.046	718.38
802.302	877.38
802.557	966.38
802.813	1240.38
803.068	1515.38
803.324	2100.38
803.579	2866.38
803.835	3942.38
804.09	5452.38
804.345	7090.38
804.601	8928.38
804.856	10705.38
805.111	12368.38
805.366	13665.38
805.621	14599.38
805.876	15198.38
806.131	15587.38
806.386	15910.38
806.641	16158.38
806.896	16447.38
807.151	16671.38
807.406	16991.38
807.661	17264.38
807.915	17597.38
808.17	17961.38
808.425	18033.38
808.679	18029.38
808.934	18370.38
809.188	18443.38
809.443	18686.38
809.697	18807.38
809.951	18971.38
810.206	19130.38
810.46	19381.38
810.714	19363.38
810.968	19686.38
811.223	19766.38
811.477	19929.38
811.731	20089.38
811.985	20161.38
812.239	20244.38
812.493	20321.38
812.747	20384.38
813	20401.38
813.254	20408.38
813.508	20628.38
813.762	20692.38
814.015	20740.38
814.269	20895.38
814.522	21056.38
814.776	21327.38
815.03	21600.38
815.283	21854.38
815.536	22230.38
815.79	22502.38
816.043	22878.38
816.296	23130.38
816.55	23341.38
816.803	23518.38
817.056	23994.38
817.309	24097.38
817.562	24357.38
817.815	24530.38
818.068	24695.38
818.321	25006.38
818.574	25202.38
818.827	25540.38
819.079	25831.38
819.332	26365.38
819.585	26561.38
819.838	26977.38
820.09	27079.38
820.343	27325.38
820.595	27278.38
820.848	27557.38
821.1	27645.38
821.353	27646.38
821.605	27520.38
821.857	27572.38
822.11	27412.38
822.362	27431.38
822.614	27364.38
822.866	27391.38
823.118	27354.38
823.37	27457.38
823.622	27654.38
823.874	27602.38
824.126	27749.38
824.378	27787.38
824.63	27851.38
824.882	27877.38
825.134	27957.38
825.385	27751.38
825.637	27769.38
825.888	27549.38
826.14	27631.38
826.392	27444.38
826.643	27264.38
826.895	27154.38
827.146	27163.38
827.397	27140.38
827.649	27061.38
827.9	27080.38
828.151	27197.38
828.402	27144.38
828.653	27147.38
828.905	27248.38
829.156	27365.38
829.407	27129.38
829.658	27257.38
829.909	27382.38
830.159	27325.38
830.41	27298.38
830.661	27077.38
830.912	26793.38
831.162	26764.38
831.413	26666.38
831.664	26799.38
831.914	26628.38
832.165	26609.38
832.415	26621.38
832.666	26708.38
832.916	26582.38
833.167	26556.38
833.417	26649.38
833.667	26568.38
833.917	26486.38
834.168	26331.38
834.418	26310.38
834.668	26192.38
834.918	26150.38
835.168	25969.38
835.418	25947.38
835.668	25809.38
835.918	25797.38
836.167	25772.38
836.417	25523.38
836.667	25638.38
836.917	25658.38
837.166	25497.38
837.416	25674.38
837.666	25605.38
837.915	25419.38
838.165	25476.38
838.414	25317.38
838.663	25342.38
838.913	25257.38
839.162	25196.38
839.411	25311.38
839.661	25158.38
839.91	24962.38
840.159	25079.38
840.408	25027.38
840.657	25081.38
840.906	24981.38
841.155	24981.38
841.404	24996.38
841.653	25006.38
841.902	24938.38
842.15	25079.38
842.399	25052.38
842.648	24926.38
842.897	24845.38
843.145	24750.38
843.394	24663.38
843.642	24421.38
843.891	24386.38
844.139	24301.38
844.388	24010.38
844.636	24004.38
844.884	23918.38
845.133	23911.38
845.381	23969.38
845.629	23910.38
845.877	23889.38
846.125	23796.38
846.373	23804.38
846.621	23704.38
846.869	23699.38
847.117	23497.38
847.365	23350.38
847.613	23314.38
847.861	23307.38
848.108	23199.38
848.356	23242.38
848.604	23081.38
848.851	23141.38
849.099	23107.38
849.346	23244.38
849.594	23370.38
849.841	23465.38
850.089	23477.38
850.336	23570.38
850.583	23465.38
850.831	23386.38
851.078	23198.38
851.325	23092.38
851.572	23099.38
851.819	22847.38
852.066	22473.38
852.313	22277.38
852.56	21987.38
852.807	21933.38
853.054	21973.38
853.301	21904.38
853.548	21888.38
853.794	22053.38
854.041	22134.38
854.288	22170.38
854.534	22405.38
854.781	22462.38
855.028	22279.38
855.274	22222.38
855.52	22126.38
855.767	22059.38
856.013	22162.38
856.26	22280.38
856.506	21737.38
856.752	21757.38
856.998	21885.38
857.244	21828.38
857.49	21955.38
857.736	21929.38
857.982	22001.38
858.228	21861.38
858.474	21697.38
858.72	21555.38
858.966	21349.38
859.212	21202.38
859.458	20917.38
859.703	20827.38
859.949	20571.38
860.195	20399.38
860.44	20414.38
860.686	20351.38
860.931	20223.38
861.177	20097.38
861.422	20039.38
861.667	19971.38
861.913	19889.38
862.158	19879.38
862.403	20036.38
862.648	20084.38
862.893	20161.38
863.138	20082.38
863.384	20065.38
863.629	19950.38
863.873	20031.38
864.118	19936.38
864.363	19808.38
864.608	19671.38
864.853	19700.38
865.098	19540.38
865.342	19461.38
865.587	19267.38
865.832	19350.38
866.076	19132.38
866.321	19204.38
866.565	19247.38
866.81	19009.38
867.054	18977.38
867.298	18973.38
867.543	18941.38
867.787	18886.38
868.031	18936.38
868.275	18830.38
868.519	18717.38
868.764	18722.38
869.008	18696.38
869.252	18674.38
869.496	18604.38
869.739	18593.38
869.983	18559.38
870.227	18640.38
870.471	18456.38
870.715	18579.38
870.958	18698.38
871.202	18600.38
871.446	18650.38
871.689	18582.38
871.933	18629.38
872.176	18735.38
872.42	18585.38
872.663	18472.38
872.906	18564.38
873.15	18511.38
873.393	18436.38
873.636	18488.38
873.879	18252.38
874.122	18075.38
874.366	17774.38
874.609	17606.38
874.852	17496.38
875.095	17399.38
875.337	17392.38
875.58	17239.38
875.823	17232.38
876.066	17073.38
876.309	17025.38
876.551	16936.38
876.794	16804.38
877.037	16858.38
877.279	16845.38
877.522	16801.38
877.764	17001.38
878.007	16799.38
878.249	16785.38
878.491	16681.38
878.734	16734.38
878.976	16623.38
879.218	16542.38
879.46	16478.38
879.702	16426.38
879.945	16296.38
880.187	16126.38
880.429	15938.38
880.671	15909.38
880.912	15856.38
881.154	15746.38
881.396	15764.38
881.638	15679.38
881.88	15771.38
882.121	15735.38
882.363	15594.38
882.605	15714.38
882.846	15586.38
883.088	15560.38
883.329	15548.38
883.571	15540.38
883.812	15755.38
884.053	15924.38
884.295	16205.38
884.536	16502.38
884.777	16237.38
885.018	16195.38
885.259	16083.38
885.5	15891.38
885.742	16273.38
885.982	15939.38
886.223	15838.38
886.464	15740.38
886.705	15561.38
886.946	15439.38
887.187	15170.38
887.428	15020.38
887.668	14766.38
887.909	14623.38
888.15	14489.38
888.39	14503.38
888.631	14456.38
888.871	14229.38
889.111	14023.38
889.352	14034.38
889.592	13894.38
889.833	13757.38
890.073	13724.38
890.313	13661.38
890.553	13512.38
890.793	13483.38
891.033	13380.38
891.273	13297.38
891.513	13260.38
891.753	13205.38
891.993	13238.38
892.233	13209.38
892.473	13304.38
892.713	13243.38
892.952	13152.38
893.192	13229.38
893.432	13143.38
893.671	13212.38
893.911	13174.38
894.15	13110.38
894.39	12939.38
894.629	12852.38
894.869	12862.38
895.108	12651.38
895.347	12678.38
895.587	12626.38
895.826	12526.38
896.065	12560.38
896.304	12559.38
896.543	12514.38
896.782	12406.38
897.021	12418.38
897.26	12332.38
897.499	12400.38
897.738	12301.38
897.977	12163.38
898.216	12119.38
898.454	11968.38
898.693	11895.38
898.932	11873.38
899.17	11827.38
899.409	11813.38
899.647	11813.38
899.886	11778.38
900.124	11758.38
900.363	11748.38
900.601	11843.38
900.839	11712.38
901.078	11758.38
901.316	11885.38
901.554	11840.38
901.792	11918.38
902.03	11884.38
902.268	11845.38
902.506	11757.38
902.744	11742.38
902.982	11698.38
903.22	11505.38
903.458	11440.38
903.695	11274.38
903.933	11155.38
904.171	10958.38
904.409	10839.38
904.646	10648.38
904.884	10567.38
905.121	10507.38
905.359	10409.38
905.596	10276.38
905.833	10190.38
906.071	10093.38
906.308	10187.38
906.545	10105.38
906.783	10070.38
907.02	10003.38
907.257	10047.38
907.494	10050.38
907.731	9985.38
907.968	9937.38
908.205	9871.38
908.442	9798.38
908.679	9753.38
908.915	9690.38
909.152	9677.38
909.389	9489.38
909.626	9459.38
909.862	9351.38
910.099	9379.38
910.335	9391.38
910.572	9262.38
910.808	9254.38
911.045	9165.38
911.281	9219.38
911.518	9190.38
911.754	9075.38
911.99	9085.38
912.226	9011.38
912.463	8904.38
912.699	8897.38
912.935	8797.38
913.171	8690.38
913.407	8613.38
913.643	8650.38
913.879	8517.38
914.114	8458.38
914.35	8351.38
914.586	8310.38
914.822	8239.38
915.057	8226.38
915.293	8070.38
915.529	8061.38
915.764	8153.38
916	8044.38
916.235	8019.38
916.471	8061.38
916.706	7936.38
916.941	7959.38
917.177	7976.38
917.412	7976.38
917.647	7920.38
917.882	7925.38
918.117	7928.38
918.352	7866.38
918.588	7861.38
918.823	7800.38
919.057	7679.38
919.292	7531.38
919.527	7607.38
919.762	7524.38
919.997	7498.38
920.232	7312.38
920.466	7324.38
920.701	7129.38
920.935	7167.38
921.17	7133.38
921.405	7077.38
921.639	7094.38
921.873	7042.38
922.108	7033.38
922.342	7020.38
922.576	6948.38
922.811	6898.38
923.045	6973.38
923.279	6900.38
923.513	6808.38
923.747	6855.38
923.981	6813.38
924.215	6750.38
924.449	6728.38
924.683	6615.38
924.917	6584.38
925.151	6550.38
925.385	6563.38
925.618	6543.38
925.852	6537.38
926.086	6436.38
926.319	6492.38
926.553	6519.38
926.786	6527.38
927.02	6492.38
927.253	6464.38
927.486	6458.38
927.72	6345.38
927.953	6496.38
928.186	6345.38
928.42	6429.38
928.653	6239.38
928.886	6280.38
929.119	6264.38
929.352	6214.38
929.585	6211.38
929.818	6156.38
930.051	6158.38
930.284	6108.38
930.516	5977.38
930.749	5888.38
930.982	5966.38
931.215	5906.38
931.447	5863.38
931.68	5817.38
931.912	5838.38
932.145	5823.38
932.377	5854.38
932.61	5965.38
932.842	5802.38
933.074	5903.38
933.307	5804.38
933.539	5868.38
933.771	5886.38
934.003	5759.38
934.236	5869.38
934.468	5852.38
934.7	5701.38
934.932	5782.38
935.164	5745.38
935.395	5723.38
935.627	5677.38
935.859	5690.38
936.091	5589.38
936.323	5627.38
936.554	5638.38
936.786	5576.38
937.017	5542.38
937.249	5561.38
937.481	5454.38
937.712	5603.38
937.943	5535.38
938.175	5518.38
938.406	5438.38
938.637	5522.38
938.869	5463.38
939.1	5461.38
939.331	5373.38
939.562	5419.38
939.793	5397.38
940.024	5424.38
940.255	5372.38
940.486	5326.38
940.717	5318.38
940.948	5254.38
941.179	5204.38
941.409	5248.38
941.64	5218.38
941.871	5223.38
942.102	5185.38
942.332	5253.38
942.563	5261.38
942.793	5191.38
943.024	5170.38
943.254	5219.38
943.484	5259.38
943.715	5233.38
943.945	5190.38
944.175	5113.38
944.405	5111.38
944.636	5123.38
944.866	5111.38
945.096	5149.38
945.326	5071.38
945.556	5158.38
945.786	5102.38
946.016	5065.38
946.245	4945.38
946.475	4928.38
946.705	4989.38
946.935	4963.38
947.164	4921.38
947.394	4814.38
947.624	4875.38
947.853	4894.38
948.083	4839.38
948.312	4792.38
948.542	4701.38
948.771	4713.38
949	4758.38
949.23	4698.38
949.459	4787.38
949.688	4805.38
949.917	4730.38
950.146	4675.38
950.375	4743.38
950.604	4669.38
950.833	4701.38
951.062	4735.38
951.291	4673.38
951.52	4622.38
951.749	4646.38
951.978	4587.38
952.206	4574.38
952.435	4550.38
952.664	4606.38
952.892	4576.38
953.121	4546.38
953.349	4563.38
953.578	4587.38
953.806	4522.38
954.035	4417.38
954.263	4488.38
954.491	4414.38
954.719	4447.38
954.948	4408.38
955.176	4365.38
955.404	4306.38
955.632	4374.38
955.86	4291.38
956.088	4292.38
956.316	4300.38
956.544	4338.38
956.772	4227.38
956.999	4213.38
957.227	4288.38
957.455	4164.38
957.683	4184.38
957.91	4115.38
958.138	4147.38
958.365	4078.38
958.593	4078.38
958.82	4038.38
959.048	4080.38
959.275	4021.38
959.502	4011.38
959.73	3952.38
959.957	4032.38
960.184	4057.38
960.411	4001.38
960.638	4079.38
960.865	3968.38
961.092	4004.38
961.319	3895.38
961.546	4046.38
961.773	4024.38
962	3981.38
962.227	3982.38
962.454	3911.38
962.68	3932.38
962.907	3940.38
963.134	3881.38
963.36	3856.38
963.587	3858.38
963.813	3786.38
964.04	3797.38
964.266	3727.38
964.493	3801.38
964.719	3774.38
964.945	3721.38
965.171	3673.38
965.398	3694.38
965.624	3701.38
965.85	3625.38
966.076	3595.38
966.302	3622.38
966.528	3581.38
966.754	3623.38
966.98	3596.38
967.206	3591.38
967.431	3516.38
967.657	3579.38
967.883	3559.38
968.109	3563.38
968.334	3460.38
968.56	3487.38
968.785	3477.38
969.011	3392.38
969.236	3493.38
969.462	3467.38
969.687	3435.38
969.912	3483.38
970.138	3455.38
970.363	3390.38
970.588	3419.38
970.813	3348.38
971.038	3364.38
971.263	3362.38
971.488	3373.38
971.713	3371.38
971.938	3324.38
972.163	3243.38
972.388	3320.38
972.613	3272.38
972.838	3258.38
973.062	3243.38
973.287	3225.38
973.512	3178.38
973.736	3194.38
973.961	3200.38
974.185	3150.38
974.41	3167.38
974.634	3101.38
974.858	3113.38
975.083	3102.38
975.307	3114.38
975.531	3045.38
975.755	2987.38
975.98	2992.38
976.204	2943.38
976.428	2931.38
976.652	2933.38
976.876	2885.38
977.1	2901.38
977.324	2850.38
977.547	2953.38
977.771	2955.38
977.995	2868.38
978.219	2828.38
978.442	2977.38
978.666	2872.38
978.89	2893.38
979.113	2852.38
979.337	2836.38
979.56	2815.38
979.783	2890.38
980.007	2771.38
980.23	2803.38
980.453	2751.38
980.677	2826.38
980.9	2798.38
981.123	2646.38
981.346	2730.38
981.569	2741.38
981.792	2733.38
982.015	2695.38
982.238	2675.38
982.461	2653.38
982.684	2662.38
982.907	2587.38
983.129	2611.38
983.352	2638.38
983.575	2624.38
983.797	2633.38
984.02	2525.38
984.242	2512.38
984.465	2518.38
984.687	2579.38
984.91	2594.38
985.132	2541.38
985.354	2594.38
985.577	2518.38
985.799	2527.38
986.021	2416.38
986.243	2462.38
986.465	2442.38
986.687	2489.38
986.909	2506.38
987.131	2452.38
987.353	2441.38
987.575	2483.38
987.797	2390.38
988.019	2345.38
988.241	2394.38
988.462	2385.38
988.684	2424.38
988.906	2441.38
989.127	2464.38
989.349	2369.38
989.57	2369.38
989.792	2429.38
990.013	2425.38
990.234	2418.38
990.456	2432.38
990.677	2401.38
990.898	2303.38
991.119	2281.38
991.341	2339.38
991.562	2265.38
991.783	2323.38
992.004	2224.38
992.225	2198.38
992.446	2275.38
992.667	2141.38
992.887	2268.38
993.108	2138.38
993.329	2234.38
993.55	2238.38
993.77	2160.38
993.991	2127.38
994.212	2167.38
994.432	2153.38
994.653	2169.38
994.873	2130.38
995.093	2071.38
995.314	2075.38
995.534	2145.38
995.754	2159.38
995.975	2146.38
996.195	2062.38
996.415	2106.38
996.635	2059.38
996.855	2064.38
997.075	2022.38
997.295	2057.38
997.515	2015.38
997.735	2063.38
997.955	2077.38
998.174	2025.38
998.394	2013.38
998.614	2075.38
998.834	2003.38
999.053	2047.38
999.273	2051.38
999.492	2055.38
999.712	1984.38
999.931	1966.38
1000.151	2020.38
1000.37	1973.38
1000.589	2046.38
1000.809	1937.38
1001.028	2063.38
1001.247	1975.38
1001.466	1871.38
1001.685	1990.38
1001.904	1939.38
1002.123	1929.38
1002.342	1938.38
1002.561	1872.38
1002.78	1924.38
1002.999	1949.38
1003.218	1908.38
1003.436	1848.38
1003.655	1900.38
1003.874	1830.38
1004.092	1866.38
1004.311	1899.38
1004.53	1864.38
1004.748	1910.38
1004.966	1844.38
1005.185	1865.38
1005.403	1883.38
1005.622	1868.38
1005.84	1913.38
1006.058	1819.38
1006.276	1867.38
1006.494	2342.38
1006.712	1824.38
1006.931	1902.38
1007.149	1827.38
1007.367	1806.38
1007.584	1846.38
1007.802	1862.38
1008.02	1836.38
1008.238	1923.38
1008.456	1910.38
1008.673	1803.38
1008.891	1928.38
1009.109	1851.38
1009.326	1914.38
1009.544	2015.38
1009.761	1918.38
1009.979	2025.38
1010.196	2034.38
1010.413	2135.38
1010.631	2183.38
1010.848	2216.38
1011.065	2227.38
1011.282	2172.38
1011.5	2116.38
1011.717	2191.38
1011.934	2139.38
1012.151	2194.38
1012.368	2161.38
1012.585	2118.38
1012.801	2163.38
1013.018	2103.38
1013.235	2101.38
1013.452	2087.38
1013.669	2124.38
1013.885	2118.38
1014.102	2126.38
1014.318	2107.38
1014.535	2079.38
1014.751	2093.38
1014.968	2099.38
1015.184	2128.38
1015.401	1989.38
1015.617	2038.38
1015.833	1973.38
1016.049	1982.38
1016.266	1969.38
1016.482	1944.38
1016.698	1875.38
1016.914	1887.38
1017.13	1856.38
1017.346	1859.38
1017.562	1895.38
1017.778	1850.38
1017.993	1806.38
1018.209	1843.38
1018.425	1817.38
1018.641	1789.38
1018.856	1764.38
1019.072	1793.38
1019.288	1798.38
1019.503	1769.38
1019.719	1689.38
1019.934	1727.38
1020.149	1784.38
1020.365	1645.38
1020.58	1649.38
1020.795	1680.38
1021.011	1617.38
1021.226	1560.38
1021.441	1571.38
1021.656	1504.38
1021.871	1481.38
1022.086	1445.38
1022.301	1429.38
1022.516	1423.38
1022.731	1458.38
1022.946	1396.38
1023.16	1353.38
1023.375	1309.38
1023.59	1255.38
1023.804	1254.38
1024.019	1363.38
1024.234	1196.38
1024.448	1243.38
1024.663	1170.38
1024.877	1188.38
1025.092	1216.38
1025.306	1201.38
1025.52	1090.38
1025.734	1189.38
1025.949	1083.38
1026.163	1053.38
1026.377	988.38
1026.591	1056.38
1026.805	953.38
1027.019	960.38
1027.233	902.38
1027.447	865.38
1027.661	959.38
1027.875	911.38
1028.088	890.38
1028.302	815.38
1028.516	810.38
1028.73	803.38
1028.943	783.38
1029.157	740.38
1029.37	674.38
1029.584	-4.62
1029.797	-0.62
1030.011	0.38
1030.224	1.38
