Data from QEP037381__300__11-10-36-590.txt Node

Date: Wed Dec 21 11:10:36 EST 2022
User: dcclab
Spectrometer: QEP03738
Trigger mode: 4
Integration Time (sec): 1.000000E1
Scans to average: 1
Electric dark correction enabled: true
Nonlinearity correction enabled: false
Boxcar width: 0
XAxis mode: Wavelengths
Number of Pixels in Spectrum: 1044
>>>>>Begin Spectral Data<<<<<
784.041	14.5
784.3	-0.5
784.558	-1.5
784.817	-4.5
785.075	91332.5
785.334	16264.5
785.592	7735.5
785.851	5360.5
786.109	4038.5
786.368	3162.5
786.626	2566.5
786.884	2106.5
787.143	1779.5
787.401	1494.5
787.659	1332.5
787.917	1130.5
788.175	1029.5
788.433	891.5
788.691	799.5
788.949	739.5
789.207	709.5
789.465	616.5
789.723	584.5
789.98	542.5
790.238	580.5
790.496	542.5
790.753	516.5
791.011	571.5
791.268	504.5
791.526	484.5
791.783	500.5
792.041	476.5
792.298	403.5
792.556	472.5
792.813	447.5
793.07	415.5
793.327	409.5
793.584	476.5
793.841	409.5
794.099	423.5
794.356	476.5
794.613	379.5
794.869	427.5
795.126	393.5
795.383	367.5
795.64	383.5
795.897	341.5
796.153	403.5
796.41	379.5
796.667	357.5
796.923	371.5
797.18	371.5
797.436	391.5
797.693	358.5
797.949	409.5
798.206	428.5
798.462	335.5
798.718	403.5
798.974	368.5
799.231	412.5
799.487	393.5
799.743	393.5
799.999	391.5
800.255	413.5
800.511	372.5
800.767	406.5
801.023	386.5
801.279	399.5
801.534	412.5
801.79	427.5
802.046	396.5
802.302	479.5
802.557	463.5
802.813	514.5
803.068	511.5
803.324	664.5
803.579	743.5
803.835	918.5
804.09	1183.5
804.345	1432.5
804.601	1780.5
804.856	2164.5
805.111	2455.5
805.366	2625.5
805.621	2764.5
805.876	2886.5
806.131	2955.5
806.386	2969.5
806.641	3001.5
806.896	3092.5
807.151	3159.5
807.406	3124.5
807.661	3238.5
807.915	3281.5
808.17	3342.5
808.425	3364.5
808.679	3385.5
808.934	3504.5
809.188	3485.5
809.443	3538.5
809.697	3607.5
809.951	3588.5
810.206	3610.5
810.46	3702.5
810.714	3716.5
810.968	3824.5
811.223	3754.5
811.477	3805.5
811.731	3863.5
811.985	3796.5
812.239	3779.5
812.493	3881.5
812.747	3897.5
813	3864.5
813.254	3926.5
813.508	3988.5
813.762	3945.5
814.015	3943.5
814.269	4021.5
814.522	4063.5
814.776	4104.5
815.03	4179.5
815.283	4156.5
815.536	4240.5
815.79	4324.5
816.043	4427.5
816.296	4462.5
816.55	4479.5
816.803	4579.5
817.056	4685.5
817.309	4694.5
817.562	4710.5
817.815	4807.5
818.068	4789.5
818.321	4827.5
818.574	4922.5
818.827	5019.5
819.079	5078.5
819.332	5297.5
819.585	5266.5
819.838	5423.5
820.09	5356.5
820.343	5429.5
820.595	5316.5
820.848	5456.5
821.1	5465.5
821.353	5484.5
821.605	5405.5
821.857	5479.5
822.11	5362.5
822.362	5403.5
822.614	5364.5
822.866	5474.5
823.118	5443.5
823.37	5582.5
823.622	5527.5
823.874	5572.5
824.126	5630.5
824.378	5593.5
824.63	5600.5
824.882	5671.5
825.134	5609.5
825.385	5623.5
825.637	5546.5
825.888	5497.5
826.14	5501.5
826.392	5477.5
826.643	5380.5
826.895	5482.5
827.146	5416.5
827.397	5363.5
827.649	5451.5
827.9	5370.5
828.151	5291.5
828.402	5359.5
828.653	5413.5
828.905	5387.5
829.156	5450.5
829.407	5435.5
829.658	5502.5
829.909	5536.5
830.159	5491.5
830.41	5561.5
830.661	5468.5
830.912	5413.5
831.162	5414.5
831.413	5422.5
831.664	5471.5
831.914	5406.5
832.165	5423.5
832.415	5428.5
832.666	5434.5
832.916	5480.5
833.167	5427.5
833.417	5418.5
833.667	5397.5
833.917	5446.5
834.168	5480.5
834.418	5463.5
834.668	5426.5
834.918	5323.5
835.168	5336.5
835.418	5379.5
835.668	5353.5
835.918	5347.5
836.167	5309.5
836.417	5244.5
836.667	5323.5
836.917	5345.5
837.166	5303.5
837.416	5286.5
837.666	5302.5
837.915	5237.5
838.165	5262.5
838.414	5177.5
838.663	5160.5
838.913	5284.5
839.162	5270.5
839.411	5346.5
839.661	5273.5
839.91	5193.5
840.159	5267.5
840.408	5263.5
840.657	5259.5
840.906	5329.5
841.155	5313.5
841.404	5249.5
841.653	5267.5
841.902	5265.5
842.15	5332.5
842.399	5337.5
842.648	5286.5
842.897	5301.5
843.145	5202.5
843.394	5198.5
843.642	5159.5
843.891	5143.5
844.139	5078.5
844.388	5041.5
844.636	4954.5
844.884	5069.5
845.133	5033.5
845.381	5075.5
845.629	5085.5
845.877	5054.5
846.125	5089.5
846.373	5113.5
846.621	5041.5
846.869	5054.5
847.117	5008.5
847.365	4962.5
847.613	4964.5
847.861	5042.5
848.108	4998.5
848.356	4969.5
848.604	4973.5
848.851	5002.5
849.099	4998.5
849.346	5022.5
849.594	5060.5
849.841	5149.5
850.089	5132.5
850.336	5192.5
850.583	5216.5
850.831	5286.5
851.078	5286.5
851.325	5272.5
851.572	5363.5
851.819	5244.5
852.066	5021.5
852.313	4854.5
852.56	4820.5
852.807	4809.5
853.054	4740.5
853.301	4826.5
853.548	4849.5
853.794	4897.5
854.041	4953.5
854.288	4908.5
854.534	5039.5
854.781	4973.5
855.028	4918.5
855.274	5012.5
855.52	4890.5
855.767	4900.5
856.013	4959.5
856.26	5255.5
856.506	4844.5
856.752	4934.5
856.998	4862.5
857.244	4854.5
857.49	4928.5
857.736	4948.5
857.982	4934.5
858.228	4975.5
858.474	4832.5
858.72	4797.5
858.966	4763.5
859.212	4763.5
859.458	4673.5
859.703	4712.5
859.949	4567.5
860.195	4632.5
860.44	4548.5
860.686	4549.5
860.931	4623.5
861.177	4493.5
861.422	4502.5
861.667	4449.5
861.913	4496.5
862.158	4486.5
862.403	4531.5
862.648	4542.5
862.893	4538.5
863.138	4525.5
863.384	4476.5
863.629	4480.5
863.873	4454.5
864.118	4446.5
864.363	4437.5
864.608	4480.5
864.853	4490.5
865.098	4413.5
865.342	4412.5
865.587	4378.5
865.832	4450.5
866.076	4433.5
866.321	4357.5
866.565	4413.5
866.81	4357.5
867.054	4391.5
867.298	4349.5
867.543	4295.5
867.787	4414.5
868.031	4347.5
868.275	4319.5
868.519	4345.5
868.764	4372.5
869.008	4310.5
869.252	4402.5
869.496	4356.5
869.739	4376.5
869.983	4391.5
870.227	4475.5
870.471	4379.5
870.715	4465.5
870.958	4520.5
871.202	4465.5
871.446	4512.5
871.689	4464.5
871.933	4476.5
872.176	4465.5
872.42	4448.5
872.663	4470.5
872.906	4442.5
873.15	4401.5
873.393	4443.5
873.636	4492.5
873.879	4408.5
874.122	4423.5
874.366	4343.5
874.609	4291.5
874.852	4271.5
875.095	4243.5
875.337	4171.5
875.58	4119.5
875.823	4180.5
876.066	4196.5
876.309	4242.5
876.551	4062.5
876.794	4029.5
877.037	4161.5
877.279	3984.5
877.522	4048.5
877.764	4050.5
878.007	4038.5
878.249	4055.5
878.491	4012.5
878.734	4056.5
878.976	4072.5
879.218	3966.5
879.46	4020.5
879.702	3986.5
879.945	3882.5
880.187	3872.5
880.429	3901.5
880.671	3848.5
880.912	3840.5
881.154	3850.5
881.396	3711.5
881.638	3795.5
881.88	3844.5
882.121	3818.5
882.363	3770.5
882.605	3869.5
882.846	3809.5
883.088	3895.5
883.329	3850.5
883.571	3857.5
883.812	3949.5
884.053	4088.5
884.295	4267.5
884.536	4398.5
884.777	4337.5
885.018	4307.5
885.259	4350.5
885.5	4226.5
885.742	4419.5
885.982	4202.5
886.223	4106.5
886.464	4059.5
886.705	3988.5
886.946	3956.5
887.187	3838.5
887.428	3838.5
887.668	3691.5
887.909	3625.5
888.15	3567.5
888.39	3593.5
888.631	3613.5
888.871	3557.5
889.111	3491.5
889.352	3532.5
889.592	3437.5
889.833	3416.5
890.073	3377.5
890.313	3462.5
890.553	3332.5
890.793	3339.5
891.033	3319.5
891.273	3324.5
891.513	3350.5
891.753	3380.5
891.993	3350.5
892.233	3345.5
892.473	3418.5
892.713	3342.5
892.952	3332.5
893.192	3354.5
893.432	3357.5
893.671	3417.5
893.911	3362.5
894.15	3356.5
894.39	3258.5
894.629	3288.5
894.869	3306.5
895.108	3256.5
895.347	3256.5
895.587	3289.5
895.826	3234.5
896.065	3241.5
896.304	3318.5
896.543	3343.5
896.782	3212.5
897.021	3274.5
897.26	3262.5
897.499	3359.5
897.738	3383.5
897.977	3317.5
898.216	3255.5
898.454	3270.5
898.693	3224.5
898.932	3239.5
899.17	3187.5
899.409	3254.5
899.647	3232.5
899.886	3212.5
900.124	3235.5
900.363	3252.5
900.601	3297.5
900.839	3301.5
901.078	3348.5
901.316	3331.5
901.554	3417.5
901.792	3436.5
902.03	3419.5
902.268	3461.5
902.506	3481.5
902.744	3400.5
902.982	3368.5
903.22	3300.5
903.458	3228.5
903.695	3145.5
903.933	3098.5
904.171	3029.5
904.409	2947.5
904.646	2957.5
904.884	2896.5
905.121	2903.5
905.359	2813.5
905.596	2837.5
905.833	2725.5
906.071	2721.5
906.308	2789.5
906.545	2747.5
906.783	2686.5
907.02	2697.5
907.257	2684.5
907.494	2677.5
907.731	2716.5
907.968	2696.5
908.205	2606.5
908.442	2617.5
908.679	2605.5
908.915	2587.5
909.152	2612.5
909.389	2520.5
909.626	2519.5
909.862	2489.5
910.099	2516.5
910.335	2543.5
910.572	2438.5
910.808	2475.5
911.045	2438.5
911.281	2462.5
911.518	2533.5
911.754	2439.5
911.99	2458.5
912.226	2447.5
912.463	2367.5
912.699	2410.5
912.935	2364.5
913.171	2363.5
913.407	2330.5
913.643	2385.5
913.879	2302.5
914.114	2291.5
914.35	2272.5
914.586	2293.5
914.822	2229.5
915.057	2274.5
915.293	2191.5
915.529	2169.5
915.764	2268.5
916	2252.5
916.235	2223.5
916.471	2283.5
916.706	2166.5
916.941	2180.5
917.177	2218.5
917.412	2235.5
917.647	2216.5
917.882	2178.5
918.117	2227.5
918.352	2205.5
918.588	2255.5
918.823	2193.5
919.057	2152.5
919.292	2045.5
919.527	2156.5
919.762	2102.5
919.997	2133.5
920.232	2091.5
920.466	2107.5
920.701	1994.5
920.935	2046.5
921.17	2005.5
921.405	2017.5
921.639	2079.5
921.873	2022.5
922.108	2004.5
922.342	2048.5
922.576	1938.5
922.811	1954.5
923.045	2022.5
923.279	2035.5
923.513	1911.5
923.747	2009.5
923.981	1997.5
924.215	1920.5
924.449	1939.5
924.683	1911.5
924.917	1918.5
925.151	1877.5
925.385	1971.5
925.618	1928.5
925.852	1932.5
926.086	1868.5
926.319	1917.5
926.553	1898.5
926.786	1927.5
927.02	1915.5
927.253	1951.5
927.486	1958.5
927.72	1877.5
927.953	1936.5
928.186	1872.5
928.42	1912.5
928.653	1870.5
928.886	1847.5
929.119	1910.5
929.352	1880.5
929.585	1862.5
929.818	1803.5
930.051	1884.5
930.284	1851.5
930.516	1790.5
930.749	1810.5
930.982	1840.5
931.215	1823.5
931.447	1757.5
931.68	1787.5
931.912	1785.5
932.145	1781.5
932.377	1806.5
932.61	1883.5
932.842	1739.5
933.074	1824.5
933.307	1757.5
933.539	1829.5
933.771	1835.5
934.003	1784.5
934.236	1848.5
934.468	1887.5
934.7	1791.5
934.932	1836.5
935.164	1774.5
935.395	1753.5
935.627	1801.5
935.859	1798.5
936.091	1738.5
936.323	1789.5
936.554	1864.5
936.786	1783.5
937.017	1730.5
937.249	1799.5
937.481	1717.5
937.712	1762.5
937.943	1761.5
938.175	1737.5
938.406	1746.5
938.637	1807.5
938.869	1713.5
939.1	1774.5
939.331	1718.5
939.562	1774.5
939.793	1741.5
940.024	1789.5
940.255	1793.5
940.486	1740.5
940.717	1725.5
940.948	1732.5
941.179	1703.5
941.409	1719.5
941.64	1681.5
941.871	1720.5
942.102	1693.5
942.332	1684.5
942.563	1703.5
942.793	1721.5
943.024	1677.5
943.254	1736.5
943.484	1744.5
943.715	1751.5
943.945	1754.5
944.175	1650.5
944.405	1646.5
944.636	1668.5
944.866	1684.5
945.096	1729.5
945.326	1674.5
945.556	1698.5
945.786	1699.5
946.016	1671.5
946.245	1644.5
946.475	1646.5
946.705	1657.5
946.935	1662.5
947.164	1671.5
947.394	1601.5
947.624	1632.5
947.853	1642.5
948.083	1647.5
948.312	1612.5
948.542	1575.5
948.771	1556.5
949	1571.5
949.23	1562.5
949.459	1600.5
949.688	1665.5
949.917	1596.5
950.146	1608.5
950.375	1677.5
950.604	1576.5
950.833	1690.5
951.062	1657.5
951.291	1590.5
951.52	1557.5
951.749	1572.5
951.978	1553.5
952.206	1570.5
952.435	1549.5
952.664	1579.5
952.892	1594.5
953.121	1557.5
953.349	1605.5
953.578	1591.5
953.806	1558.5
954.035	1522.5
954.263	1576.5
954.491	1477.5
954.719	1589.5
954.948	1514.5
955.176	1515.5
955.404	1462.5
955.632	1531.5
955.86	1543.5
956.088	1534.5
956.316	1541.5
956.544	1556.5
956.772	1491.5
956.999	1480.5
957.227	1590.5
957.455	1493.5
957.683	1511.5
957.91	1445.5
958.138	1454.5
958.365	1457.5
958.593	1463.5
958.82	1431.5
959.048	1501.5
959.275	1451.5
959.502	1451.5
959.73	1423.5
959.957	1499.5
960.184	1524.5
960.411	1462.5
960.638	1543.5
960.865	1457.5
961.092	1481.5
961.319	1377.5
961.546	1497.5
961.773	1478.5
962	1443.5
962.227	1486.5
962.454	1442.5
962.68	1452.5
962.907	1492.5
963.134	1398.5
963.36	1423.5
963.587	1485.5
963.813	1404.5
964.04	1443.5
964.266	1388.5
964.493	1486.5
964.719	1440.5
964.945	1451.5
965.171	1353.5
965.398	1400.5
965.624	1461.5
965.85	1366.5
966.076	1396.5
966.302	1403.5
966.528	1373.5
966.754	1415.5
966.98	1400.5
967.206	1385.5
967.431	1331.5
967.657	1383.5
967.883	1394.5
968.109	1374.5
968.334	1345.5
968.56	1325.5
968.785	1325.5
969.011	1310.5
969.236	1376.5
969.462	1319.5
969.687	1358.5
969.912	1356.5
970.138	1407.5
970.363	1300.5
970.588	1343.5
970.813	1328.5
971.038	1291.5
971.263	1338.5
971.488	1364.5
971.713	1366.5
971.938	1367.5
972.163	1267.5
972.388	1316.5
972.613	1297.5
972.838	1318.5
973.062	1299.5
973.287	1281.5
973.512	1216.5
973.736	1293.5
973.961	1250.5
974.185	1274.5
974.41	1303.5
974.634	1201.5
974.858	1232.5
975.083	1272.5
975.307	1291.5
975.531	1225.5
975.755	1153.5
975.98	1217.5
976.204	1150.5
976.428	1170.5
976.652	1172.5
976.876	1156.5
977.1	1209.5
977.324	1168.5
977.547	1247.5
977.771	1224.5
977.995	1193.5
978.219	1153.5
978.442	1276.5
978.666	1192.5
978.89	1202.5
979.113	1194.5
979.337	1168.5
979.56	1151.5
979.783	1251.5
980.007	1133.5
980.23	1179.5
980.453	1128.5
980.677	1182.5
980.9	1181.5
981.123	1085.5
981.346	1191.5
981.569	1172.5
981.792	1201.5
982.015	1150.5
982.238	1129.5
982.461	1139.5
982.684	1129.5
982.907	1133.5
983.129	1104.5
983.352	1177.5
983.575	1134.5
983.797	1151.5
984.02	1100.5
984.242	1102.5
984.465	1136.5
984.687	1155.5
984.91	1190.5
985.132	1122.5
985.354	1153.5
985.577	1153.5
985.799	1143.5
986.021	1074.5
986.243	1091.5
986.465	1103.5
986.687	1153.5
986.909	1178.5
987.131	1120.5
987.353	1094.5
987.575	1140.5
987.797	1108.5
988.019	1048.5
988.241	1101.5
988.462	1075.5
988.684	1103.5
988.906	1169.5
989.127	1170.5
989.349	1064.5
989.57	1102.5
989.792	1138.5
990.013	1123.5
990.234	1152.5
990.456	1191.5
990.677	1167.5
990.898	1122.5
991.119	1127.5
991.341	1146.5
991.562	1069.5
991.783	1120.5
992.004	1064.5
992.225	1060.5
992.446	1114.5
992.667	1030.5
992.887	1102.5
993.108	999.5
993.329	1157.5
993.55	1090.5
993.77	1046.5
993.991	1049.5
994.212	1098.5
994.432	1076.5
994.653	1090.5
994.873	1073.5
995.093	980.5
995.314	1046.5
995.534	1099.5
995.754	1107.5
995.975	1129.5
996.195	1021.5
996.415	1118.5
996.635	1074.5
996.855	1090.5
997.075	1078.5
997.295	1054.5
997.515	1053.5
997.735	1121.5
997.955	1065.5
998.174	1062.5
998.394	1052.5
998.614	1079.5
998.834	1062.5
999.053	1130.5
999.273	1103.5
999.492	1177.5
999.712	1093.5
999.931	1037.5
1000.151	1107.5
1000.37	1086.5
1000.589	1139.5
1000.809	1061.5
1001.028	1197.5
1001.247	1128.5
1001.466	1013.5
1001.685	1181.5
1001.904	1098.5
1002.123	1102.5
1002.342	1123.5
1002.561	1060.5
1002.78	1118.5
1002.999	1152.5
1003.218	1106.5
1003.436	1076.5
1003.655	1133.5
1003.874	1048.5
1004.092	1120.5
1004.311	1136.5
1004.53	1109.5
1004.748	1174.5
1004.966	1104.5
1005.185	1167.5
1005.403	1166.5
1005.622	1104.5
1005.84	1198.5
1006.058	1096.5
1006.276	1155.5
1006.494	1641.5
1006.712	1141.5
1006.931	1192.5
1007.149	1107.5
1007.367	1146.5
1007.584	1192.5
1007.802	1192.5
1008.02	1136.5
1008.238	1268.5
1008.456	1258.5
1008.673	1124.5
1008.891	1244.5
1009.109	1197.5
1009.326	1282.5
1009.544	1357.5
1009.761	1249.5
1009.979	1364.5
1010.196	1394.5
1010.413	1488.5
1010.631	1549.5
1010.848	1566.5
1011.065	1599.5
1011.282	1561.5
1011.5	1503.5
1011.717	1600.5
1011.934	1540.5
1012.151	1595.5
1012.368	1572.5
1012.585	1505.5
1012.801	1565.5
1013.018	1567.5
1013.235	1501.5
1013.452	1510.5
1013.669	1552.5
1013.885	1540.5
1014.102	1585.5
1014.318	1539.5
1014.535	1503.5
1014.751	1533.5
1014.968	1573.5
1015.184	1612.5
1015.401	1473.5
1015.617	1546.5
1015.833	1471.5
1016.049	1487.5
1016.266	1483.5
1016.482	1485.5
1016.698	1398.5
1016.914	1480.5
1017.13	1411.5
1017.346	1424.5
1017.562	1493.5
1017.778	1421.5
1017.993	1392.5
1018.209	1465.5
1018.425	1425.5
1018.641	1408.5
1018.856	1370.5
1019.072	1444.5
1019.288	1449.5
1019.503	1420.5
1019.719	1341.5
1019.934	1337.5
1020.149	1423.5
1020.365	1346.5
1020.58	1319.5
1020.795	1344.5
1021.011	1285.5
1021.226	1262.5
1021.441	1291.5
1021.656	1192.5
1021.871	1136.5
1022.086	1146.5
1022.301	1118.5
1022.516	1109.5
1022.731	1182.5
1022.946	1092.5
1023.16	1061.5
1023.375	1049.5
1023.59	1024.5
1023.804	976.5
1024.019	1071.5
1024.234	946.5
1024.448	1003.5
1024.663	917.5
1024.877	927.5
1025.092	942.5
1025.306	973.5
1025.52	858.5
1025.734	940.5
1025.949	867.5
1026.163	841.5
1026.377	785.5
1026.591	829.5
1026.805	763.5
1027.019	781.5
1027.233	735.5
1027.447	673.5
1027.661	790.5
1027.875	729.5
1028.088	731.5
1028.302	664.5
1028.516	661.5
1028.73	669.5
1028.943	655.5
1029.157	614.5
1029.37	594.5
1029.584	-2.5
1029.797	-2.5
1030.011	-0.5
1030.224	-2.5
