Data from QEP037381__316__11-13-16-591.txt Node

Date: Wed Dec 21 11:13:16 EST 2022
User: dcclab
Spectrometer: QEP03738
Trigger mode: 4
Integration Time (sec): 1.000000E1
Scans to average: 1
Electric dark correction enabled: true
Nonlinearity correction enabled: false
Boxcar width: 0
XAxis mode: Wavelengths
Number of Pixels in Spectrum: 1044
>>>>>Begin Spectral Data<<<<<
784.041	14.25
784.3	-1.75
784.558	-2.75
784.817	-1.75
785.075	89675.25
785.334	15711.25
785.592	7431.25
785.851	5143.25
786.109	3866.25
786.368	3065.25
786.626	2454.25
786.884	2036.25
787.143	1708.25
787.401	1392.25
787.659	1270.25
787.917	1088.25
788.175	987.25
788.433	865.25
788.691	784.25
788.949	717.25
789.207	699.25
789.465	611.25
789.723	561.25
789.98	542.25
790.238	567.25
790.496	539.25
790.753	491.25
791.011	560.25
791.268	488.25
791.526	482.25
791.783	503.25
792.041	488.25
792.298	405.25
792.556	450.25
792.813	438.25
793.07	418.25
793.327	419.25
793.584	485.25
793.841	403.25
794.099	423.25
794.356	467.25
794.613	401.25
794.869	416.25
795.126	386.25
795.383	359.25
795.64	390.25
795.897	338.25
796.153	400.25
796.41	392.25
796.667	367.25
796.923	378.25
797.18	373.25
797.436	393.25
797.693	360.25
797.949	413.25
798.206	423.25
798.462	349.25
798.718	397.25
798.974	367.25
799.231	418.25
799.487	404.25
799.743	392.25
799.999	419.25
800.255	396.25
800.511	393.25
800.767	422.25
801.023	402.25
801.279	422.25
801.534	420.25
801.79	451.25
802.046	413.25
802.302	481.25
802.557	479.25
802.813	556.25
803.068	557.25
803.324	695.25
803.579	841.25
803.835	1048.25
804.09	1397.25
804.345	1711.25
804.601	2155.25
804.856	2618.25
805.111	2992.25
805.366	3241.25
805.621	3429.25
805.876	3565.25
806.131	3623.25
806.386	3675.25
806.641	3722.25
806.896	3721.25
807.151	3872.25
807.406	3864.25
807.661	3959.25
807.915	4051.25
808.17	4061.25
808.425	4197.25
808.679	4177.25
808.934	4334.25
809.188	4257.25
809.443	4349.25
809.697	4383.25
809.951	4419.25
810.206	4452.25
810.46	4540.25
810.714	4604.25
810.968	4662.25
811.223	4598.25
811.477	4684.25
811.731	4796.25
811.985	4694.25
812.239	4692.25
812.493	4797.25
812.747	4818.25
813	4755.25
813.254	4823.25
813.508	4911.25
813.762	4897.25
814.015	4858.25
814.269	4926.25
814.522	5043.25
814.776	5068.25
815.03	5121.25
815.283	5189.25
815.536	5250.25
815.79	5388.25
816.043	5427.25
816.296	5508.25
816.55	5616.25
816.803	5668.25
817.056	5762.25
817.309	5849.25
817.562	5880.25
817.815	5928.25
818.068	5932.25
818.321	6005.25
818.574	6148.25
818.827	6210.25
819.079	6277.25
819.332	6453.25
819.585	6516.25
819.838	6618.25
820.09	6606.25
820.343	6705.25
820.595	6668.25
820.848	6759.25
821.1	6834.25
821.353	6767.25
821.605	6755.25
821.857	6855.25
822.11	6686.25
822.362	6688.25
822.614	6695.25
822.866	6735.25
823.118	6743.25
823.37	6864.25
823.622	6838.25
823.874	6808.25
824.126	6909.25
824.378	6932.25
824.63	6926.25
824.882	6933.25
825.134	6908.25
825.385	6948.25
825.637	6844.25
825.888	6839.25
826.14	6897.25
826.392	6798.25
826.643	6695.25
826.895	6790.25
827.146	6659.25
827.397	6678.25
827.649	6756.25
827.9	6644.25
828.151	6626.25
828.402	6721.25
828.653	6695.25
828.905	6774.25
829.156	6829.25
829.407	6786.25
829.658	6779.25
829.909	6847.25
830.159	6815.25
830.41	6865.25
830.661	6737.25
830.912	6707.25
831.162	6727.25
831.413	6742.25
831.664	6789.25
831.914	6759.25
832.165	6771.25
832.415	6717.25
832.666	6753.25
832.916	6803.25
833.167	6761.25
833.417	6798.25
833.667	6743.25
833.917	6675.25
834.168	6734.25
834.418	6748.25
834.668	6720.25
834.918	6694.25
835.168	6665.25
835.418	6564.25
835.668	6647.25
835.918	6580.25
836.167	6619.25
836.417	6560.25
836.667	6634.25
836.917	6620.25
837.166	6558.25
837.416	6589.25
837.666	6636.25
837.915	6530.25
838.165	6583.25
838.414	6523.25
838.663	6451.25
838.913	6574.25
839.162	6471.25
839.411	6585.25
839.661	6512.25
839.91	6529.25
840.159	6520.25
840.408	6509.25
840.657	6573.25
840.906	6562.25
841.155	6619.25
841.404	6555.25
841.653	6568.25
841.902	6580.25
842.15	6597.25
842.399	6600.25
842.648	6581.25
842.897	6655.25
843.145	6523.25
843.394	6459.25
843.642	6407.25
843.891	6403.25
844.139	6399.25
844.388	6314.25
844.636	6284.25
844.884	6266.25
845.133	6303.25
845.381	6327.25
845.629	6331.25
845.877	6297.25
846.125	6275.25
846.373	6332.25
846.621	6276.25
846.869	6267.25
847.117	6273.25
847.365	6244.25
847.613	6257.25
847.861	6212.25
848.108	6290.25
848.356	6257.25
848.604	6218.25
848.851	6194.25
849.099	6210.25
849.346	6292.25
849.594	6344.25
849.841	6418.25
850.089	6362.25
850.336	6379.25
850.583	6522.25
850.831	6527.25
851.078	6541.25
851.325	6475.25
851.572	6604.25
851.819	6487.25
852.066	6234.25
852.313	6098.25
852.56	5976.25
852.807	5984.25
853.054	5926.25
853.301	5993.25
853.548	6052.25
853.794	6190.25
854.041	6116.25
854.288	6142.25
854.534	6269.25
854.781	6224.25
855.028	6157.25
855.274	6172.25
855.52	6129.25
855.767	6113.25
856.013	6183.25
856.26	6436.25
856.506	6067.25
856.752	6052.25
856.998	6075.25
857.244	6026.25
857.49	6173.25
857.736	6181.25
857.982	6164.25
858.228	6159.25
858.474	6045.25
858.72	6002.25
858.966	6011.25
859.212	5967.25
859.458	5858.25
859.703	5775.25
859.949	5715.25
860.195	5745.25
860.44	5697.25
860.686	5705.25
860.931	5753.25
861.177	5639.25
861.422	5652.25
861.667	5612.25
861.913	5586.25
862.158	5599.25
862.403	5623.25
862.648	5706.25
862.893	5735.25
863.138	5663.25
863.384	5666.25
863.629	5682.25
863.873	5625.25
864.118	5615.25
864.363	5516.25
864.608	5587.25
864.853	5600.25
865.098	5551.25
865.342	5595.25
865.587	5490.25
865.832	5524.25
866.076	5507.25
866.321	5492.25
866.565	5564.25
866.81	5428.25
867.054	5474.25
867.298	5442.25
867.543	5454.25
867.787	5482.25
868.031	5449.25
868.275	5460.25
868.519	5446.25
868.764	5508.25
869.008	5477.25
869.252	5514.25
869.496	5443.25
869.739	5458.25
869.983	5508.25
870.227	5499.25
870.471	5473.25
870.715	5540.25
870.958	5534.25
871.202	5578.25
871.446	5571.25
871.689	5573.25
871.933	5591.25
872.176	5584.25
872.42	5537.25
872.663	5526.25
872.906	5605.25
873.15	5558.25
873.393	5519.25
873.636	5586.25
873.879	5549.25
874.122	5494.25
874.366	5369.25
874.609	5325.25
874.852	5345.25
875.095	5279.25
875.337	5188.25
875.58	5152.25
875.823	5171.25
876.066	5221.25
876.309	5263.25
876.551	5097.25
876.794	5127.25
877.037	5174.25
877.279	5060.25
877.522	5079.25
877.764	5089.25
878.007	5045.25
878.249	5067.25
878.491	5012.25
878.734	5114.25
878.976	5035.25
879.218	4956.25
879.46	5025.25
879.702	4967.25
879.945	4937.25
880.187	4860.25
880.429	4867.25
880.671	4808.25
880.912	4852.25
881.154	4775.25
881.396	4755.25
881.638	4844.25
881.88	4830.25
882.121	4767.25
882.363	4797.25
882.605	4856.25
882.846	4823.25
883.088	4865.25
883.329	4833.25
883.571	4834.25
883.812	4967.25
884.053	5086.25
884.295	5254.25
884.536	5401.25
884.777	5354.25
885.018	5303.25
885.259	5283.25
885.5	5234.25
885.742	5415.25
885.982	5231.25
886.223	5099.25
886.464	5044.25
886.705	4923.25
886.946	4931.25
887.187	4779.25
887.428	4765.25
887.668	4639.25
887.909	4510.25
888.15	4544.25
888.39	4532.25
888.631	4565.25
888.871	4490.25
889.111	4414.25
889.352	4374.25
889.592	4350.25
889.833	4312.25
890.073	4253.25
890.313	4299.25
890.553	4211.25
890.793	4236.25
891.033	4179.25
891.273	4194.25
891.513	4155.25
891.753	4259.25
891.993	4188.25
892.233	4209.25
892.473	4286.25
892.713	4255.25
892.952	4241.25
893.192	4248.25
893.432	4218.25
893.671	4285.25
893.911	4243.25
894.15	4258.25
894.39	4103.25
894.629	4100.25
894.869	4154.25
895.108	4115.25
895.347	4130.25
895.587	4173.25
895.826	4069.25
896.065	4055.25
896.304	4102.25
896.543	4168.25
896.782	4062.25
897.021	4069.25
897.26	4110.25
897.499	4193.25
897.738	4191.25
897.977	4126.25
898.216	4087.25
898.454	4084.25
898.693	4059.25
898.932	4064.25
899.17	4017.25
899.409	4016.25
899.647	4070.25
899.886	3982.25
900.124	4058.25
900.363	4031.25
900.601	4113.25
900.839	4094.25
901.078	4139.25
901.316	4184.25
901.554	4244.25
901.792	4260.25
902.03	4182.25
902.268	4242.25
902.506	4303.25
902.744	4184.25
902.982	4216.25
903.22	4076.25
903.458	4018.25
903.695	3985.25
903.933	3869.25
904.171	3771.25
904.409	3692.25
904.646	3725.25
904.884	3640.25
905.121	3638.25
905.359	3602.25
905.596	3533.25
905.833	3430.25
906.071	3477.25
906.308	3466.25
906.545	3423.25
906.783	3348.25
907.02	3414.25
907.257	3405.25
907.494	3381.25
907.731	3384.25
907.968	3389.25
908.205	3317.25
908.442	3333.25
908.679	3323.25
908.915	3266.25
909.152	3310.25
909.389	3210.25
909.626	3209.25
909.862	3187.25
910.099	3164.25
910.335	3209.25
910.572	3089.25
910.808	3147.25
911.045	3123.25
911.281	3087.25
911.518	3168.25
911.754	3097.25
911.99	3079.25
912.226	3052.25
912.463	3006.25
912.699	3019.25
912.935	2965.25
913.171	2970.25
913.407	2917.25
913.643	2974.25
913.879	2911.25
914.114	2908.25
914.35	2879.25
914.586	2873.25
914.822	2826.25
915.057	2894.25
915.293	2786.25
915.529	2758.25
915.764	2835.25
916	2834.25
916.235	2799.25
916.471	2845.25
916.706	2752.25
916.941	2735.25
917.177	2752.25
917.412	2834.25
917.647	2788.25
917.882	2736.25
918.117	2789.25
918.352	2819.25
918.588	2808.25
918.823	2741.25
919.057	2751.25
919.292	2655.25
919.527	2741.25
919.762	2646.25
919.997	2693.25
920.232	2623.25
920.466	2631.25
920.701	2521.25
920.935	2569.25
921.17	2538.25
921.405	2514.25
921.639	2573.25
921.873	2515.25
922.108	2594.25
922.342	2546.25
922.576	2503.25
922.811	2513.25
923.045	2511.25
923.279	2601.25
923.513	2396.25
923.747	2529.25
923.981	2487.25
924.215	2461.25
924.449	2428.25
924.683	2375.25
924.917	2416.25
925.151	2358.25
925.385	2447.25
925.618	2405.25
925.852	2409.25
926.086	2343.25
926.319	2402.25
926.553	2393.25
926.786	2406.25
927.02	2395.25
927.253	2434.25
927.486	2396.25
927.72	2367.25
927.953	2410.25
928.186	2416.25
928.42	2415.25
928.653	2351.25
928.886	2342.25
929.119	2362.25
929.352	2362.25
929.585	2356.25
929.818	2304.25
930.051	2315.25
930.284	2343.25
930.516	2254.25
930.749	2242.25
930.982	2318.25
931.215	2257.25
931.447	2196.25
931.68	2228.25
931.912	2208.25
932.145	2216.25
932.377	2249.25
932.61	2361.25
932.842	2176.25
933.074	2272.25
933.307	2191.25
933.539	2339.25
933.771	2309.25
934.003	2226.25
934.236	2283.25
934.468	2306.25
934.7	2231.25
934.932	2282.25
935.164	2236.25
935.395	2209.25
935.627	2243.25
935.859	2263.25
936.091	2160.25
936.323	2265.25
936.554	2265.25
936.786	2224.25
937.017	2178.25
937.249	2219.25
937.481	2136.25
937.712	2203.25
937.943	2145.25
938.175	2167.25
938.406	2163.25
938.637	2246.25
938.869	2174.25
939.1	2219.25
939.331	2121.25
939.562	2201.25
939.793	2195.25
940.024	2209.25
940.255	2242.25
940.486	2165.25
940.717	2137.25
940.948	2164.25
941.179	2110.25
941.409	2125.25
941.64	2114.25
941.871	2120.25
942.102	2096.25
942.332	2149.25
942.563	2139.25
942.793	2154.25
943.024	2093.25
943.254	2145.25
943.484	2184.25
943.715	2172.25
943.945	2166.25
944.175	2104.25
944.405	2033.25
944.636	2069.25
944.866	2148.25
945.096	2152.25
945.326	2070.25
945.556	2149.25
945.786	2122.25
946.016	2076.25
946.245	2045.25
946.475	2045.25
946.705	2063.25
946.935	2047.25
947.164	2056.25
947.394	1988.25
947.624	2047.25
947.853	2047.25
948.083	2024.25
948.312	1987.25
948.542	1960.25
948.771	1948.25
949	1970.25
949.23	1978.25
949.459	1972.25
949.688	2066.25
949.917	1979.25
950.146	1993.25
950.375	2074.25
950.604	1966.25
950.833	2030.25
951.062	2025.25
951.291	1976.25
951.52	1947.25
951.749	1983.25
951.978	1950.25
952.206	1942.25
952.435	1979.25
952.664	1993.25
952.892	1969.25
953.121	1975.25
953.349	2011.25
953.578	1982.25
953.806	1935.25
954.035	1887.25
954.263	1956.25
954.491	1895.25
954.719	1929.25
954.948	1913.25
955.176	1909.25
955.404	1797.25
955.632	1909.25
955.86	1906.25
956.088	1907.25
956.316	1889.25
956.544	1924.25
956.772	1862.25
956.999	1847.25
957.227	1939.25
957.455	1838.25
957.683	1847.25
957.91	1815.25
958.138	1818.25
958.365	1799.25
958.593	1816.25
958.82	1743.25
959.048	1802.25
959.275	1808.25
959.502	1813.25
959.73	1762.25
959.957	1817.25
960.184	1887.25
960.411	1821.25
960.638	1858.25
960.865	1804.25
961.092	1836.25
961.319	1706.25
961.546	1830.25
961.773	1817.25
962	1783.25
962.227	1813.25
962.454	1786.25
962.68	1766.25
962.907	1784.25
963.134	1752.25
963.36	1800.25
963.587	1793.25
963.813	1722.25
964.04	1746.25
964.266	1709.25
964.493	1762.25
964.719	1771.25
964.945	1740.25
965.171	1684.25
965.398	1733.25
965.624	1746.25
965.85	1704.25
966.076	1705.25
966.302	1710.25
966.528	1680.25
966.754	1713.25
966.98	1716.25
967.206	1678.25
967.431	1645.25
967.657	1719.25
967.883	1719.25
968.109	1706.25
968.334	1641.25
968.56	1637.25
968.785	1636.25
969.011	1619.25
969.236	1678.25
969.462	1622.25
969.687	1654.25
969.912	1680.25
970.138	1703.25
970.363	1599.25
970.588	1661.25
970.813	1609.25
971.038	1612.25
971.263	1640.25
971.488	1633.25
971.713	1674.25
971.938	1669.25
972.163	1568.25
972.388	1579.25
972.613	1562.25
972.838	1580.25
973.062	1580.25
973.287	1577.25
973.512	1531.25
973.736	1567.25
973.961	1532.25
974.185	1551.25
974.41	1566.25
974.634	1478.25
974.858	1504.25
975.083	1551.25
975.307	1580.25
975.531	1479.25
975.755	1441.25
975.98	1488.25
976.204	1404.25
976.428	1451.25
976.652	1434.25
976.876	1428.25
977.1	1453.25
977.324	1391.25
977.547	1469.25
977.771	1487.25
977.995	1444.25
978.219	1377.25
978.442	1499.25
978.666	1456.25
978.89	1443.25
979.113	1435.25
979.337	1456.25
979.56	1396.25
979.783	1505.25
980.007	1398.25
980.23	1432.25
980.453	1382.25
980.677	1431.25
980.9	1412.25
981.123	1321.25
981.346	1440.25
981.569	1385.25
981.792	1423.25
982.015	1389.25
982.238	1351.25
982.461	1403.25
982.684	1321.25
982.907	1337.25
983.129	1342.25
983.352	1415.25
983.575	1355.25
983.797	1389.25
984.02	1325.25
984.242	1317.25
984.465	1352.25
984.687	1372.25
984.91	1409.25
985.132	1357.25
985.354	1394.25
985.577	1385.25
985.799	1351.25
986.021	1275.25
986.243	1327.25
986.465	1330.25
986.687	1387.25
986.909	1391.25
987.131	1340.25
987.353	1313.25
987.575	1373.25
987.797	1315.25
988.019	1249.25
988.241	1315.25
988.462	1301.25
988.684	1351.25
988.906	1376.25
989.127	1399.25
989.349	1266.25
989.57	1312.25
989.792	1332.25
990.013	1339.25
990.234	1353.25
990.456	1380.25
990.677	1353.25
990.898	1311.25
991.119	1329.25
991.341	1367.25
991.562	1292.25
991.783	1340.25
992.004	1281.25
992.225	1226.25
992.446	1317.25
992.667	1217.25
992.887	1306.25
993.108	1220.25
993.329	1361.25
993.55	1278.25
993.77	1229.25
993.991	1224.25
994.212	1266.25
994.432	1261.25
994.653	1275.25
994.873	1261.25
995.093	1169.25
995.314	1199.25
995.534	1302.25
995.754	1330.25
995.975	1332.25
996.195	1221.25
996.415	1262.25
996.635	1259.25
996.855	1271.25
997.075	1245.25
997.295	1232.25
997.515	1229.25
997.735	1269.25
997.955	1275.25
998.174	1245.25
998.394	1212.25
998.614	1264.25
998.834	1214.25
999.053	1272.25
999.273	1258.25
999.492	1310.25
999.712	1266.25
999.931	1214.25
1000.151	1247.25
1000.37	1246.25
1000.589	1307.25
1000.809	1219.25
1001.028	1349.25
1001.247	1287.25
1001.466	1169.25
1001.685	1323.25
1001.904	1269.25
1002.123	1249.25
1002.342	1231.25
1002.561	1215.25
1002.78	1243.25
1002.999	1278.25
1003.218	1246.25
1003.436	1236.25
1003.655	1272.25
1003.874	1221.25
1004.092	1258.25
1004.311	1286.25
1004.53	1215.25
1004.748	1318.25
1004.966	1237.25
1005.185	1303.25
1005.403	1285.25
1005.622	1301.25
1005.84	1339.25
1006.058	1229.25
1006.276	1292.25
1006.494	1763.25
1006.712	1265.25
1006.931	1314.25
1007.149	1253.25
1007.367	1271.25
1007.584	1305.25
1007.802	1328.25
1008.02	1284.25
1008.238	1402.25
1008.456	1401.25
1008.673	1284.25
1008.891	1384.25
1009.109	1339.25
1009.326	1400.25
1009.544	1495.25
1009.761	1425.25
1009.979	1511.25
1010.196	1547.25
1010.413	1630.25
1010.631	1692.25
1010.848	1726.25
1011.065	1750.25
1011.282	1743.25
1011.5	1669.25
1011.717	1774.25
1011.934	1742.25
1012.151	1743.25
1012.368	1737.25
1012.585	1677.25
1012.801	1728.25
1013.018	1707.25
1013.235	1705.25
1013.452	1683.25
1013.669	1740.25
1013.885	1727.25
1014.102	1769.25
1014.318	1709.25
1014.535	1708.25
1014.751	1718.25
1014.968	1710.25
1015.184	1728.25
1015.401	1652.25
1015.617	1688.25
1015.833	1637.25
1016.049	1625.25
1016.266	1629.25
1016.482	1636.25
1016.698	1544.25
1016.914	1626.25
1017.13	1543.25
1017.346	1553.25
1017.562	1640.25
1017.778	1562.25
1017.993	1525.25
1018.209	1561.25
1018.425	1575.25
1018.641	1582.25
1018.856	1531.25
1019.072	1565.25
1019.288	1576.25
1019.503	1549.25
1019.719	1481.25
1019.934	1478.25
1020.149	1536.25
1020.365	1469.25
1020.58	1444.25
1020.795	1489.25
1021.011	1408.25
1021.226	1380.25
1021.441	1408.25
1021.656	1308.25
1021.871	1246.25
1022.086	1254.25
1022.301	1250.25
1022.516	1234.25
1022.731	1272.25
1022.946	1190.25
1023.16	1187.25
1023.375	1137.25
1023.59	1101.25
1023.804	1090.25
1024.019	1171.25
1024.234	1037.25
1024.448	1080.25
1024.663	989.25
1024.877	1012.25
1025.092	1058.25
1025.306	1070.25
1025.52	942.25
1025.734	1018.25
1025.949	946.25
1026.163	928.25
1026.377	856.25
1026.591	912.25
1026.805	831.25
1027.019	840.25
1027.233	794.25
1027.447	767.25
1027.661	844.25
1027.875	797.25
1028.088	788.25
1028.302	727.25
1028.516	725.25
1028.73	708.25
1028.943	711.25
1029.157	665.25
1029.37	640.25
1029.584	-0.75
1029.797	-1.75
1030.011	-2.75
1030.224	-2.75
