Data from QEP037381__266__11-04-56-588.txt Node

Date: Wed Dec 21 11:04:56 EST 2022
User: dcclab
Spectrometer: QEP03738
Trigger mode: 4
Integration Time (sec): 1.000000E1
Scans to average: 1
Electric dark correction enabled: true
Nonlinearity correction enabled: false
Boxcar width: 0
XAxis mode: Wavelengths
Number of Pixels in Spectrum: 1044
>>>>>Begin Spectral Data<<<<<
784.041	9.62
784.3	1.62
784.558	-0.38
784.817	-5.38
785.075	94327.62
785.334	16131.62
785.592	7484.62
785.851	5085.62
786.109	3923.62
786.368	3037.62
786.626	2456.62
786.884	1997.62
787.143	1729.62
787.401	1415.62
787.659	1293.62
787.917	1117.62
788.175	1009.62
788.433	881.62
788.691	795.62
788.949	760.62
789.207	718.62
789.465	618.62
789.723	605.62
789.98	530.62
790.238	578.62
790.496	547.62
790.753	534.62
791.011	564.62
791.268	502.62
791.526	495.62
791.783	517.62
792.041	498.62
792.298	405.62
792.556	470.62
792.813	440.62
793.07	422.62
793.327	407.62
793.584	488.62
793.841	411.62
794.099	425.62
794.356	472.62
794.613	385.62
794.869	434.62
795.126	380.62
795.383	366.62
795.64	391.62
795.897	340.62
796.153	390.62
796.41	374.62
796.667	359.62
796.923	359.62
797.18	375.62
797.436	397.62
797.693	349.62
797.949	417.62
798.206	448.62
798.462	336.62
798.718	398.62
798.974	375.62
799.231	414.62
799.487	393.62
799.743	388.62
799.999	413.62
800.255	393.62
800.511	371.62
800.767	421.62
801.023	381.62
801.279	398.62
801.534	399.62
801.79	429.62
802.046	386.62
802.302	463.62
802.557	470.62
802.813	504.62
803.068	491.62
803.324	614.62
803.579	683.62
803.835	847.62
804.09	1127.62
804.345	1321.62
804.601	1645.62
804.856	2001.62
805.111	2350.62
805.366	2451.62
805.621	2615.62
805.876	2736.62
806.131	2753.62
806.386	2807.62
806.641	2819.62
806.896	2856.62
807.151	2993.62
807.406	2963.62
807.661	3079.62
807.915	3064.62
808.17	3136.62
808.425	3158.62
808.679	3127.62
808.934	3301.62
809.188	3244.62
809.443	3312.62
809.697	3402.62
809.951	3339.62
810.206	3379.62
810.46	3462.62
810.714	3505.62
810.968	3542.62
811.223	3491.62
811.477	3568.62
811.731	3586.62
811.985	3544.62
812.239	3551.62
812.493	3573.62
812.747	3640.62
813	3617.62
813.254	3672.62
813.508	3686.62
813.762	3696.62
814.015	3708.62
814.269	3770.62
814.522	3821.62
814.776	3840.62
815.03	3911.62
815.283	3923.62
815.536	4013.62
815.79	4049.62
816.043	4128.62
816.296	4220.62
816.55	4224.62
816.803	4261.62
817.056	4356.62
817.309	4379.62
817.562	4394.62
817.815	4526.62
818.068	4422.62
818.321	4554.62
818.574	4566.62
818.827	4666.62
819.079	4707.62
819.332	4906.62
819.585	4910.62
819.838	5036.62
820.09	4963.62
820.343	5035.62
820.595	5008.62
820.848	5099.62
821.1	5107.62
821.353	5104.62
821.605	5060.62
821.857	5135.62
822.11	5045.62
822.362	5053.62
822.614	5043.62
822.866	5118.62
823.118	5047.62
823.37	5225.62
823.622	5084.62
823.874	5190.62
824.126	5280.62
824.378	5217.62
824.63	5194.62
824.882	5260.62
825.134	5199.62
825.385	5195.62
825.637	5176.62
825.888	5155.62
826.14	5110.62
826.392	5049.62
826.643	5006.62
826.895	5085.62
827.146	4971.62
827.397	4949.62
827.649	5044.62
827.9	5001.62
828.151	5007.62
828.402	4967.62
828.653	5040.62
828.905	5037.62
829.156	5108.62
829.407	5017.62
829.658	5022.62
829.909	5111.62
830.159	5059.62
830.41	5127.62
830.661	5091.62
830.912	5047.62
831.162	4990.62
831.413	4994.62
831.664	5081.62
831.914	4998.62
832.165	5047.62
832.415	5026.62
832.666	5041.62
832.916	5053.62
833.167	4977.62
833.417	5076.62
833.667	4959.62
833.917	4981.62
834.168	5050.62
834.418	5078.62
834.668	5016.62
834.918	4971.62
835.168	5006.62
835.418	4890.62
835.668	4960.62
835.918	4977.62
836.167	4952.62
836.417	4855.62
836.667	4903.62
836.917	4893.62
837.166	4884.62
837.416	4931.62
837.666	4899.62
837.915	4828.62
838.165	4877.62
838.414	4777.62
838.663	4763.62
838.913	4758.62
839.162	4849.62
839.411	4829.62
839.661	4800.62
839.91	4829.62
840.159	4837.62
840.408	4831.62
840.657	4868.62
840.906	4909.62
841.155	4888.62
841.404	4885.62
841.653	4842.62
841.902	4857.62
842.15	4818.62
842.399	4867.62
842.648	4871.62
842.897	4890.62
843.145	4825.62
843.394	4759.62
843.642	4720.62
843.891	4783.62
844.139	4708.62
844.388	4607.62
844.636	4621.62
844.884	4643.62
845.133	4598.62
845.381	4652.62
845.629	4697.62
845.877	4663.62
846.125	4650.62
846.373	4659.62
846.621	4624.62
846.869	4649.62
847.117	4596.62
847.365	4552.62
847.613	4560.62
847.861	4595.62
848.108	4578.62
848.356	4547.62
848.604	4561.62
848.851	4589.62
849.099	4577.62
849.346	4628.62
849.594	4686.62
849.841	4754.62
850.089	4736.62
850.336	4776.62
850.583	4827.62
850.831	4821.62
851.078	4842.62
851.325	4849.62
851.572	4968.62
851.819	4874.62
852.066	4629.62
852.313	4479.62
852.56	4383.62
852.807	4379.62
853.054	4393.62
853.301	4400.62
853.548	4444.62
853.794	4531.62
854.041	4536.62
854.288	4483.62
854.534	4662.62
854.781	4571.62
855.028	4503.62
855.274	4605.62
855.52	4498.62
855.767	4468.62
856.013	4502.62
856.26	4738.62
856.506	4409.62
856.752	4462.62
856.998	4478.62
857.244	4443.62
857.49	4509.62
857.736	4522.62
857.982	4517.62
858.228	4492.62
858.474	4376.62
858.72	4437.62
858.966	4353.62
859.212	4301.62
859.458	4270.62
859.703	4233.62
859.949	4172.62
860.195	4186.62
860.44	4173.62
860.686	4120.62
860.931	4215.62
861.177	4111.62
861.422	4142.62
861.667	4010.62
861.913	4047.62
862.158	4104.62
862.403	4141.62
862.648	4169.62
862.893	4165.62
863.138	4093.62
863.384	4079.62
863.629	4124.62
863.873	4123.62
864.118	4067.62
864.363	4037.62
864.608	4103.62
864.853	4127.62
865.098	4037.62
865.342	4094.62
865.587	4029.62
865.832	4011.62
866.076	4002.62
866.321	4002.62
866.565	3978.62
866.81	3968.62
867.054	3982.62
867.298	3960.62
867.543	3923.62
867.787	4002.62
868.031	3971.62
868.275	3976.62
868.519	3921.62
868.764	3974.62
869.008	3993.62
869.252	3975.62
869.496	3976.62
869.739	3990.62
869.983	4086.62
870.227	4054.62
870.471	4037.62
870.715	4084.62
870.958	4055.62
871.202	4082.62
871.446	4025.62
871.689	4044.62
871.933	4019.62
872.176	4046.62
872.42	4080.62
872.663	4020.62
872.906	4046.62
873.15	3997.62
873.393	4000.62
873.636	4077.62
873.879	4024.62
874.122	4023.62
874.366	3911.62
874.609	3886.62
874.852	3828.62
875.095	3791.62
875.337	3770.62
875.58	3706.62
875.823	3793.62
876.066	3800.62
876.309	3786.62
876.551	3732.62
876.794	3676.62
877.037	3750.62
877.279	3690.62
877.522	3728.62
877.764	3721.62
878.007	3660.62
878.249	3699.62
878.491	3669.62
878.734	3697.62
878.976	3661.62
879.218	3601.62
879.46	3677.62
879.702	3638.62
879.945	3522.62
880.187	3516.62
880.429	3520.62
880.671	3546.62
880.912	3491.62
881.154	3469.62
881.396	3405.62
881.638	3481.62
881.88	3421.62
882.121	3405.62
882.363	3466.62
882.605	3500.62
882.846	3504.62
883.088	3528.62
883.329	3510.62
883.571	3456.62
883.812	3553.62
884.053	3654.62
884.295	3830.62
884.536	3941.62
884.777	3878.62
885.018	3847.62
885.259	3855.62
885.5	3739.62
885.742	3974.62
885.982	3763.62
886.223	3681.62
886.464	3657.62
886.705	3535.62
886.946	3507.62
887.187	3446.62
887.428	3476.62
887.668	3334.62
887.909	3269.62
888.15	3233.62
888.39	3269.62
888.631	3275.62
888.871	3239.62
889.111	3201.62
889.352	3138.62
889.592	3157.62
889.833	3103.62
890.073	3097.62
890.313	3090.62
890.553	3031.62
890.793	3037.62
891.033	3021.62
891.273	3030.62
891.513	3074.62
891.753	3093.62
891.993	2999.62
892.233	3041.62
892.473	3124.62
892.713	3051.62
892.952	3038.62
893.192	3053.62
893.432	3076.62
893.671	3092.62
893.911	3063.62
894.15	3065.62
894.39	2967.62
894.629	3015.62
894.869	3051.62
895.108	3018.62
895.347	2949.62
895.587	3005.62
895.826	2960.62
896.065	2935.62
896.304	2986.62
896.543	3033.62
896.782	2914.62
897.021	2989.62
897.26	3030.62
897.499	3097.62
897.738	3078.62
897.977	3029.62
898.216	3001.62
898.454	2999.62
898.693	2934.62
898.932	3001.62
899.17	2950.62
899.409	2966.62
899.647	2943.62
899.886	2948.62
900.124	2979.62
900.363	2972.62
900.601	3014.62
900.839	3025.62
901.078	3024.62
901.316	3028.62
901.554	3076.62
901.792	3135.62
902.03	3119.62
902.268	3107.62
902.506	3151.62
902.744	3064.62
902.982	3093.62
903.22	2913.62
903.458	2892.62
903.695	2879.62
903.933	2838.62
904.171	2767.62
904.409	2680.62
904.646	2683.62
904.884	2608.62
905.121	2633.62
905.359	2592.62
905.596	2560.62
905.833	2480.62
906.071	2492.62
906.308	2534.62
906.545	2473.62
906.783	2478.62
907.02	2509.62
907.257	2411.62
907.494	2414.62
907.731	2472.62
907.968	2465.62
908.205	2427.62
908.442	2375.62
908.679	2386.62
908.915	2387.62
909.152	2387.62
909.389	2286.62
909.626	2320.62
909.862	2279.62
910.099	2316.62
910.335	2323.62
910.572	2250.62
910.808	2283.62
911.045	2239.62
911.281	2233.62
911.518	2292.62
911.754	2239.62
911.99	2252.62
912.226	2214.62
912.463	2173.62
912.699	2175.62
912.935	2179.62
913.171	2173.62
913.407	2101.62
913.643	2165.62
913.879	2108.62
914.114	2099.62
914.35	2073.62
914.586	2075.62
914.822	2047.62
915.057	2104.62
915.293	1999.62
915.529	1972.62
915.764	2082.62
916	2059.62
916.235	2028.62
916.471	2056.62
916.706	1975.62
916.941	1985.62
917.177	1982.62
917.412	2023.62
917.647	2045.62
917.882	1967.62
918.117	2026.62
918.352	2012.62
918.588	2054.62
918.823	1958.62
919.057	1957.62
919.292	1883.62
919.527	2000.62
919.762	1923.62
919.997	1943.62
920.232	1910.62
920.466	1910.62
920.701	1821.62
920.935	1889.62
921.17	1834.62
921.405	1808.62
921.639	1846.62
921.873	1824.62
922.108	1856.62
922.342	1830.62
922.576	1793.62
922.811	1766.62
923.045	1852.62
923.279	1856.62
923.513	1735.62
923.747	1838.62
923.981	1815.62
924.215	1767.62
924.449	1765.62
924.683	1732.62
924.917	1742.62
925.151	1795.62
925.385	1797.62
925.618	1770.62
925.852	1776.62
926.086	1698.62
926.319	1765.62
926.553	1730.62
926.786	1734.62
927.02	1734.62
927.253	1784.62
927.486	1773.62
927.72	1688.62
927.953	1762.62
928.186	1703.62
928.42	1755.62
928.653	1709.62
928.886	1675.62
929.119	1730.62
929.352	1707.62
929.585	1716.62
929.818	1682.62
930.051	1690.62
930.284	1721.62
930.516	1642.62
930.749	1615.62
930.982	1686.62
931.215	1674.62
931.447	1617.62
931.68	1642.62
931.912	1612.62
932.145	1631.62
932.377	1627.62
932.61	1779.62
932.842	1590.62
933.074	1659.62
933.307	1634.62
933.539	1714.62
933.771	1693.62
934.003	1631.62
934.236	1709.62
934.468	1742.62
934.7	1646.62
934.932	1688.62
935.164	1614.62
935.395	1621.62
935.627	1675.62
935.859	1651.62
936.091	1587.62
936.323	1635.62
936.554	1686.62
936.786	1614.62
937.017	1569.62
937.249	1629.62
937.481	1550.62
937.712	1642.62
937.943	1577.62
938.175	1570.62
938.406	1559.62
938.637	1692.62
938.869	1567.62
939.1	1620.62
939.331	1572.62
939.562	1628.62
939.793	1595.62
940.024	1659.62
940.255	1627.62
940.486	1583.62
940.717	1594.62
940.948	1595.62
941.179	1532.62
941.409	1565.62
941.64	1547.62
941.871	1568.62
942.102	1551.62
942.332	1539.62
942.563	1598.62
942.793	1573.62
943.024	1518.62
943.254	1520.62
943.484	1592.62
943.715	1614.62
943.945	1580.62
944.175	1529.62
944.405	1509.62
944.636	1506.62
944.866	1597.62
945.096	1568.62
945.326	1503.62
945.556	1588.62
945.786	1573.62
946.016	1538.62
946.245	1497.62
946.475	1521.62
946.705	1525.62
946.935	1492.62
947.164	1539.62
947.394	1495.62
947.624	1458.62
947.853	1551.62
948.083	1497.62
948.312	1462.62
948.542	1415.62
948.771	1417.62
949	1456.62
949.23	1482.62
949.459	1456.62
949.688	1498.62
949.917	1463.62
950.146	1488.62
950.375	1510.62
950.604	1437.62
950.833	1546.62
951.062	1503.62
951.291	1476.62
951.52	1404.62
951.749	1469.62
951.978	1412.62
952.206	1426.62
952.435	1435.62
952.664	1464.62
952.892	1498.62
953.121	1448.62
953.349	1482.62
953.578	1481.62
953.806	1473.62
954.035	1398.62
954.263	1431.62
954.491	1373.62
954.719	1448.62
954.948	1399.62
955.176	1408.62
955.404	1344.62
955.632	1394.62
955.86	1407.62
956.088	1408.62
956.316	1431.62
956.544	1415.62
956.772	1402.62
956.999	1334.62
957.227	1464.62
957.455	1376.62
957.683	1380.62
957.91	1332.62
958.138	1342.62
958.365	1341.62
958.593	1362.62
958.82	1290.62
959.048	1384.62
959.275	1353.62
959.502	1321.62
959.73	1301.62
959.957	1340.62
960.184	1399.62
960.411	1352.62
960.638	1404.62
960.865	1341.62
961.092	1389.62
961.319	1270.62
961.546	1371.62
961.773	1350.62
962	1324.62
962.227	1400.62
962.454	1320.62
962.68	1318.62
962.907	1351.62
963.134	1280.62
963.36	1325.62
963.587	1343.62
963.813	1290.62
964.04	1318.62
964.266	1266.62
964.493	1362.62
964.719	1333.62
964.945	1333.62
965.171	1260.62
965.398	1310.62
965.624	1318.62
965.85	1268.62
966.076	1238.62
966.302	1296.62
966.528	1264.62
966.754	1315.62
966.98	1304.62
967.206	1278.62
967.431	1221.62
967.657	1330.62
967.883	1297.62
968.109	1277.62
968.334	1222.62
968.56	1244.62
968.785	1237.62
969.011	1207.62
969.236	1252.62
969.462	1241.62
969.687	1237.62
969.912	1284.62
970.138	1315.62
970.363	1230.62
970.588	1273.62
970.813	1231.62
971.038	1206.62
971.263	1275.62
971.488	1254.62
971.713	1276.62
971.938	1272.62
972.163	1187.62
972.388	1199.62
972.613	1177.62
972.838	1222.62
973.062	1221.62
973.287	1206.62
973.512	1176.62
973.736	1174.62
973.961	1171.62
974.185	1165.62
974.41	1204.62
974.634	1116.62
974.858	1172.62
975.083	1187.62
975.307	1211.62
975.531	1144.62
975.755	1097.62
975.98	1129.62
976.204	1074.62
976.428	1070.62
976.652	1086.62
976.876	1076.62
977.1	1109.62
977.324	1077.62
977.547	1144.62
977.771	1164.62
977.995	1117.62
978.219	1047.62
978.442	1178.62
978.666	1126.62
978.89	1098.62
979.113	1121.62
979.337	1111.62
979.56	1069.62
979.783	1141.62
980.007	1072.62
980.23	1108.62
980.453	1070.62
980.677	1070.62
980.9	1067.62
981.123	985.62
981.346	1116.62
981.569	1090.62
981.792	1117.62
982.015	1084.62
982.238	1076.62
982.461	1057.62
982.684	1040.62
982.907	1046.62
983.129	1008.62
983.352	1097.62
983.575	1058.62
983.797	1070.62
984.02	1039.62
984.242	1042.62
984.465	1064.62
984.687	1085.62
984.91	1106.62
985.132	1079.62
985.354	1092.62
985.577	1056.62
985.799	1061.62
986.021	989.62
986.243	1008.62
986.465	1037.62
986.687	1096.62
986.909	1093.62
987.131	1054.62
987.353	1017.62
987.575	1072.62
987.797	1034.62
988.019	975.62
988.241	1047.62
988.462	1005.62
988.684	1046.62
988.906	1078.62
989.127	1122.62
989.349	982.62
989.57	1030.62
989.792	1084.62
990.013	1098.62
990.234	1088.62
990.456	1114.62
990.677	1101.62
990.898	1037.62
991.119	1050.62
991.341	1062.62
991.562	1003.62
991.783	1066.62
992.004	1003.62
992.225	999.62
992.446	1028.62
992.667	971.62
992.887	1065.62
993.108	965.62
993.329	1067.62
993.55	1044.62
993.77	988.62
993.991	983.62
994.212	1018.62
994.432	1014.62
994.653	1029.62
994.873	1034.62
995.093	915.62
995.314	975.62
995.534	1066.62
995.754	1051.62
995.975	1080.62
996.195	975.62
996.415	1006.62
996.635	982.62
996.855	1018.62
997.075	1007.62
997.295	995.62
997.515	970.62
997.735	1036.62
997.955	1020.62
998.174	996.62
998.394	980.62
998.614	1029.62
998.834	998.62
999.053	1050.62
999.273	1023.62
999.492	1105.62
999.712	1042.62
999.931	989.62
1000.151	1064.62
1000.37	1012.62
1000.589	1082.62
1000.809	1000.62
1001.028	1121.62
1001.247	1072.62
1001.466	970.62
1001.685	1101.62
1001.904	1053.62
1002.123	1024.62
1002.342	1044.62
1002.561	1015.62
1002.78	1044.62
1002.999	1100.62
1003.218	1046.62
1003.436	1046.62
1003.655	1073.62
1003.874	1028.62
1004.092	1050.62
1004.311	1110.62
1004.53	1082.62
1004.748	1111.62
1004.966	1061.62
1005.185	1096.62
1005.403	1106.62
1005.622	1090.62
1005.84	1146.62
1006.058	1068.62
1006.276	1121.62
1006.494	1578.62
1006.712	1086.62
1006.931	1162.62
1007.149	1050.62
1007.367	1096.62
1007.584	1105.62
1007.802	1107.62
1008.02	1100.62
1008.238	1206.62
1008.456	1169.62
1008.673	1029.62
1008.891	1172.62
1009.109	1103.62
1009.326	1142.62
1009.544	1268.62
1009.761	1149.62
1009.979	1234.62
1010.196	1236.62
1010.413	1311.62
1010.631	1364.62
1010.848	1377.62
1011.065	1407.62
1011.282	1361.62
1011.5	1317.62
1011.717	1401.62
1011.934	1367.62
1012.151	1407.62
1012.368	1360.62
1012.585	1328.62
1012.801	1372.62
1013.018	1344.62
1013.235	1313.62
1013.452	1359.62
1013.669	1339.62
1013.885	1323.62
1014.102	1367.62
1014.318	1341.62
1014.535	1298.62
1014.751	1335.62
1014.968	1351.62
1015.184	1389.62
1015.401	1282.62
1015.617	1338.62
1015.833	1296.62
1016.049	1299.62
1016.266	1301.62
1016.482	1296.62
1016.698	1243.62
1016.914	1296.62
1017.13	1243.62
1017.346	1227.62
1017.562	1322.62
1017.778	1233.62
1017.993	1200.62
1018.209	1288.62
1018.425	1249.62
1018.641	1236.62
1018.856	1222.62
1019.072	1245.62
1019.288	1304.62
1019.503	1251.62
1019.719	1161.62
1019.934	1197.62
1020.149	1272.62
1020.365	1225.62
1020.58	1154.62
1020.795	1190.62
1021.011	1148.62
1021.226	1135.62
1021.441	1158.62
1021.656	1080.62
1021.871	1016.62
1022.086	1013.62
1022.301	989.62
1022.516	1006.62
1022.731	1087.62
1022.946	958.62
1023.16	971.62
1023.375	950.62
1023.59	929.62
1023.804	904.62
1024.019	1017.62
1024.234	886.62
1024.448	930.62
1024.663	841.62
1024.877	854.62
1025.092	881.62
1025.306	911.62
1025.52	805.62
1025.734	900.62
1025.949	813.62
1026.163	792.62
1026.377	736.62
1026.591	795.62
1026.805	725.62
1027.019	732.62
1027.233	694.62
1027.447	655.62
1027.661	752.62
1027.875	687.62
1028.088	701.62
1028.302	651.62
1028.516	626.62
1028.73	616.62
1028.943	610.62
1029.157	588.62
1029.37	545.62
1029.584	-1.38
1029.797	-3.38
1030.011	-0.38
1030.224	-0.38
