Data from QEP037381__257__11-03-26-589.txt Node

Date: Wed Dec 21 11:03:26 EST 2022
User: dcclab
Spectrometer: QEP03738
Trigger mode: 4
Integration Time (sec): 1.000000E1
Scans to average: 1
Electric dark correction enabled: true
Nonlinearity correction enabled: false
Boxcar width: 0
XAxis mode: Wavelengths
Number of Pixels in Spectrum: 1044
>>>>>Begin Spectral Data<<<<<
784.041	16.25
784.3	-2.75
784.558	-0.75
784.817	-5.75
785.075	96583.25
785.334	16505.25
785.592	7638.25
785.851	5219.25
786.109	3941.25
786.368	3068.25
786.626	2512.25
786.884	2036.25
787.143	1721.25
787.401	1386.25
787.659	1262.25
787.917	1086.25
788.175	1006.25
788.433	889.25
788.691	794.25
788.949	719.25
789.207	712.25
789.465	606.25
789.723	599.25
789.98	540.25
790.238	573.25
790.496	523.25
790.753	503.25
791.011	555.25
791.268	498.25
791.526	471.25
791.783	507.25
792.041	481.25
792.298	392.25
792.556	451.25
792.813	447.25
793.07	419.25
793.327	402.25
793.584	471.25
793.841	407.25
794.099	429.25
794.356	465.25
794.613	380.25
794.869	427.25
795.126	373.25
795.383	365.25
795.64	382.25
795.897	338.25
796.153	389.25
796.41	375.25
796.667	364.25
796.923	376.25
797.18	362.25
797.436	396.25
797.693	358.25
797.949	417.25
798.206	423.25
798.462	325.25
798.718	395.25
798.974	369.25
799.231	415.25
799.487	387.25
799.743	395.25
799.999	404.25
800.255	406.25
800.511	372.25
800.767	407.25
801.023	378.25
801.279	403.25
801.534	411.25
801.79	417.25
802.046	401.25
802.302	443.25
802.557	456.25
802.813	504.25
803.068	500.25
803.324	590.25
803.579	692.25
803.835	846.25
804.09	1144.25
804.345	1347.25
804.601	1660.25
804.856	1993.25
805.111	2290.25
805.366	2468.25
805.621	2607.25
805.876	2677.25
806.131	2741.25
806.386	2735.25
806.641	2765.25
806.896	2855.25
807.151	2968.25
807.406	2927.25
807.661	3025.25
807.915	3077.25
808.17	3096.25
808.425	3154.25
808.679	3160.25
808.934	3268.25
809.188	3257.25
809.443	3290.25
809.697	3330.25
809.951	3289.25
810.206	3353.25
810.46	3449.25
810.714	3498.25
810.968	3501.25
811.223	3447.25
811.477	3492.25
811.731	3536.25
811.985	3487.25
812.239	3504.25
812.493	3591.25
812.747	3579.25
813	3577.25
813.254	3673.25
813.508	3682.25
813.762	3649.25
814.015	3667.25
814.269	3707.25
814.522	3768.25
814.776	3827.25
815.03	3840.25
815.283	3927.25
815.536	3985.25
815.79	4034.25
816.043	4088.25
816.296	4139.25
816.55	4138.25
816.803	4201.25
817.056	4343.25
817.309	4333.25
817.562	4379.25
817.815	4433.25
818.068	4402.25
818.321	4475.25
818.574	4522.25
818.827	4636.25
819.079	4645.25
819.332	4827.25
819.585	4861.25
819.838	4935.25
820.09	4905.25
820.343	4974.25
820.595	4934.25
820.848	5013.25
821.1	5017.25
821.353	5009.25
821.605	5064.25
821.857	5041.25
822.11	4967.25
822.362	5013.25
822.614	4972.25
822.866	5051.25
823.118	4978.25
823.37	5152.25
823.622	5084.25
823.874	5074.25
824.126	5150.25
824.378	5137.25
824.63	5178.25
824.882	5191.25
825.134	5145.25
825.385	5119.25
825.637	5106.25
825.888	5051.25
826.14	5084.25
826.392	4976.25
826.643	4982.25
826.895	5059.25
827.146	4987.25
827.397	4951.25
827.649	5013.25
827.9	4900.25
828.151	4925.25
828.402	4958.25
828.653	4987.25
828.905	5037.25
829.156	5086.25
829.407	4940.25
829.658	5000.25
829.909	5052.25
830.159	5067.25
830.41	5014.25
830.661	5017.25
830.912	4940.25
831.162	4943.25
831.413	4991.25
831.664	4960.25
831.914	4978.25
832.165	4940.25
832.415	4964.25
832.666	4988.25
832.916	4995.25
833.167	4983.25
833.417	5001.25
833.667	4941.25
833.917	4954.25
834.168	4998.25
834.418	4984.25
834.668	4955.25
834.918	4930.25
835.168	4855.25
835.418	4879.25
835.668	4923.25
835.918	4907.25
836.167	4883.25
836.417	4851.25
836.667	4856.25
836.917	4875.25
837.166	4849.25
837.416	4848.25
837.666	4819.25
837.915	4741.25
838.165	4759.25
838.414	4739.25
838.663	4734.25
838.913	4772.25
839.162	4694.25
839.411	4890.25
839.661	4779.25
839.91	4781.25
840.159	4718.25
840.408	4768.25
840.657	4808.25
840.906	4799.25
841.155	4855.25
841.404	4772.25
841.653	4781.25
841.902	4777.25
842.15	4823.25
842.399	4814.25
842.648	4760.25
842.897	4795.25
843.145	4697.25
843.394	4705.25
843.642	4672.25
843.891	4658.25
844.139	4611.25
844.388	4516.25
844.636	4520.25
844.884	4583.25
845.133	4559.25
845.381	4531.25
845.629	4615.25
845.877	4546.25
846.125	4558.25
846.373	4563.25
846.621	4521.25
846.869	4567.25
847.117	4491.25
847.365	4531.25
847.613	4501.25
847.861	4528.25
848.108	4543.25
848.356	4478.25
848.604	4482.25
848.851	4528.25
849.099	4476.25
849.346	4536.25
849.594	4580.25
849.841	4603.25
850.089	4610.25
850.336	4611.25
850.583	4727.25
850.831	4698.25
851.078	4731.25
851.325	4745.25
851.572	4807.25
851.819	4719.25
852.066	4513.25
852.313	4372.25
852.56	4344.25
852.807	4264.25
853.054	4309.25
853.301	4355.25
853.548	4328.25
853.794	4503.25
854.041	4449.25
854.288	4396.25
854.534	4527.25
854.781	4434.25
855.028	4418.25
855.274	4476.25
855.52	4390.25
855.767	4337.25
856.013	4363.25
856.26	4662.25
856.506	4314.25
856.752	4350.25
856.998	4312.25
857.244	4278.25
857.49	4420.25
857.736	4374.25
857.982	4337.25
858.228	4423.25
858.474	4327.25
858.72	4338.25
858.966	4312.25
859.212	4221.25
859.458	4178.25
859.703	4149.25
859.949	4054.25
860.195	4100.25
860.44	4110.25
860.686	4064.25
860.931	4047.25
861.177	4023.25
861.422	4061.25
861.667	3981.25
861.913	4002.25
862.158	4029.25
862.403	4057.25
862.648	4084.25
862.893	4099.25
863.138	4045.25
863.384	4050.25
863.629	4066.25
863.873	4071.25
864.118	4024.25
864.363	3965.25
864.608	4019.25
864.853	4006.25
865.098	3935.25
865.342	3971.25
865.587	3956.25
865.832	3986.25
866.076	4007.25
866.321	3937.25
866.565	3950.25
866.81	3885.25
867.054	3905.25
867.298	3898.25
867.543	3842.25
867.787	3900.25
868.031	3855.25
868.275	3895.25
868.519	3873.25
868.764	3851.25
869.008	3863.25
869.252	3927.25
869.496	3882.25
869.739	3915.25
869.983	3930.25
870.227	3889.25
870.471	3890.25
870.715	3957.25
870.958	3926.25
871.202	3945.25
871.446	3963.25
871.689	3879.25
871.933	3910.25
872.176	3966.25
872.42	3894.25
872.663	3891.25
872.906	3941.25
873.15	3950.25
873.393	3844.25
873.636	3982.25
873.879	3918.25
874.122	3882.25
874.366	3795.25
874.609	3798.25
874.852	3709.25
875.095	3742.25
875.337	3682.25
875.58	3633.25
875.823	3670.25
876.066	3722.25
876.309	3743.25
876.551	3622.25
876.794	3594.25
877.037	3635.25
877.279	3575.25
877.522	3610.25
877.764	3582.25
878.007	3560.25
878.249	3588.25
878.491	3562.25
878.734	3606.25
878.976	3576.25
879.218	3537.25
879.46	3590.25
879.702	3505.25
879.945	3487.25
880.187	3455.25
880.429	3410.25
880.671	3401.25
880.912	3443.25
881.154	3379.25
881.396	3314.25
881.638	3392.25
881.88	3410.25
882.121	3348.25
882.363	3341.25
882.605	3398.25
882.846	3375.25
883.088	3423.25
883.329	3394.25
883.571	3393.25
883.812	3408.25
884.053	3535.25
884.295	3633.25
884.536	3778.25
884.777	3682.25
885.018	3668.25
885.259	3698.25
885.5	3581.25
885.742	3804.25
885.982	3580.25
886.223	3484.25
886.464	3472.25
886.705	3391.25
886.946	3431.25
887.187	3278.25
887.428	3374.25
887.668	3267.25
887.909	3186.25
888.15	3123.25
888.39	3160.25
888.631	3192.25
888.871	3170.25
889.111	3098.25
889.352	3091.25
889.592	3058.25
889.833	3019.25
890.073	3033.25
890.313	3057.25
890.553	2922.25
890.793	2968.25
891.033	2955.25
891.273	2906.25
891.513	2963.25
891.753	2997.25
891.993	2959.25
892.233	2957.25
892.473	3022.25
892.713	2996.25
892.952	2939.25
893.192	2985.25
893.432	2956.25
893.671	3063.25
893.911	2996.25
894.15	2967.25
894.39	2900.25
894.629	2922.25
894.869	2962.25
895.108	2900.25
895.347	2822.25
895.587	2940.25
895.826	2871.25
896.065	2854.25
896.304	2919.25
896.543	2947.25
896.782	2874.25
897.021	2923.25
897.26	2924.25
897.499	2988.25
897.738	3007.25
897.977	2894.25
898.216	2901.25
898.454	2857.25
898.693	2823.25
898.932	2887.25
899.17	2851.25
899.409	2841.25
899.647	2835.25
899.886	2825.25
900.124	2869.25
900.363	2831.25
900.601	2881.25
900.839	2853.25
901.078	2911.25
901.316	2936.25
901.554	2946.25
901.792	2991.25
902.03	2923.25
902.268	2943.25
902.506	3023.25
902.744	2933.25
902.982	2942.25
903.22	2845.25
903.458	2775.25
903.695	2783.25
903.933	2722.25
904.171	2641.25
904.409	2600.25
904.646	2610.25
904.884	2542.25
905.121	2571.25
905.359	2520.25
905.596	2459.25
905.833	2401.25
906.071	2430.25
906.308	2462.25
906.545	2415.25
906.783	2395.25
907.02	2417.25
907.257	2357.25
907.494	2396.25
907.731	2389.25
907.968	2383.25
908.205	2331.25
908.442	2320.25
908.679	2339.25
908.915	2301.25
909.152	2305.25
909.389	2221.25
909.626	2266.25
909.862	2205.25
910.099	2214.25
910.335	2249.25
910.572	2168.25
910.808	2235.25
911.045	2189.25
911.281	2156.25
911.518	2249.25
911.754	2182.25
911.99	2205.25
912.226	2131.25
912.463	2142.25
912.699	2098.25
912.935	2112.25
913.171	2096.25
913.407	2055.25
913.643	2129.25
913.879	2058.25
914.114	2064.25
914.35	2005.25
914.586	2012.25
914.822	1995.25
915.057	2090.25
915.293	1940.25
915.529	1950.25
915.764	2005.25
916	1988.25
916.235	2006.25
916.471	1997.25
916.706	1898.25
916.941	1930.25
917.177	1963.25
917.412	1967.25
917.647	1976.25
917.882	1925.25
918.117	1991.25
918.352	1982.25
918.588	1992.25
918.823	1941.25
919.057	1922.25
919.292	1830.25
919.527	1936.25
919.762	1839.25
919.997	1921.25
920.232	1845.25
920.466	1892.25
920.701	1759.25
920.935	1839.25
921.17	1800.25
921.405	1726.25
921.639	1833.25
921.873	1802.25
922.108	1825.25
922.342	1785.25
922.576	1747.25
922.811	1741.25
923.045	1809.25
923.279	1826.25
923.513	1688.25
923.747	1812.25
923.981	1773.25
924.215	1701.25
924.449	1725.25
924.683	1685.25
924.917	1692.25
925.151	1684.25
925.385	1766.25
925.618	1726.25
925.852	1705.25
926.086	1644.25
926.319	1711.25
926.553	1701.25
926.786	1702.25
927.02	1687.25
927.253	1727.25
927.486	1737.25
927.72	1640.25
927.953	1754.25
928.186	1707.25
928.42	1698.25
928.653	1672.25
928.886	1639.25
929.119	1711.25
929.352	1681.25
929.585	1663.25
929.818	1621.25
930.051	1659.25
930.284	1672.25
930.516	1579.25
930.749	1588.25
930.982	1652.25
931.215	1637.25
931.447	1568.25
931.68	1602.25
931.912	1581.25
932.145	1579.25
932.377	1611.25
932.61	1728.25
932.842	1539.25
933.074	1608.25
933.307	1541.25
933.539	1687.25
933.771	1666.25
934.003	1654.25
934.236	1767.25
934.468	1846.25
934.7	1823.25
934.932	1889.25
935.164	1852.25
935.395	1801.25
935.627	1744.25
935.859	1712.25
936.091	1613.25
936.323	1662.25
936.554	1650.25
936.786	1607.25
937.017	1549.25
937.249	1607.25
937.481	1542.25
937.712	1634.25
937.943	1588.25
938.175	1582.25
938.406	1573.25
938.637	1695.25
938.869	1589.25
939.1	1684.25
939.331	1658.25
939.562	1680.25
939.793	1740.25
940.024	1962.25
940.255	2431.25
940.486	3134.25
940.717	3537.25
940.948	3429.25
941.179	2948.25
941.409	2537.25
941.64	2164.25
941.871	1923.25
942.102	1722.25
942.332	1624.25
942.563	1662.25
942.793	1576.25
943.024	1534.25
943.254	1544.25
943.484	1565.25
943.715	1595.25
943.945	1546.25
944.175	1473.25
944.405	1485.25
944.636	1485.25
944.866	1524.25
945.096	1515.25
945.326	1490.25
945.556	1543.25
945.786	1542.25
946.016	1513.25
946.245	1454.25
946.475	1481.25
946.705	1471.25
946.935	1450.25
947.164	1477.25
947.394	1453.25
947.624	1459.25
947.853	1470.25
948.083	1474.25
948.312	1421.25
948.542	1410.25
948.771	1372.25
949	1395.25
949.23	1396.25
949.459	1420.25
949.688	1478.25
949.917	1451.25
950.146	1438.25
950.375	1485.25
950.604	1353.25
950.833	1491.25
951.062	1487.25
951.291	1407.25
951.52	1394.25
951.749	1424.25
951.978	1388.25
952.206	1397.25
952.435	1394.25
952.664	1430.25
952.892	1427.25
953.121	1418.25
953.349	1413.25
953.578	1405.25
953.806	1386.25
954.035	1339.25
954.263	1394.25
954.491	1323.25
954.719	1375.25
954.948	1351.25
955.176	1355.25
955.404	1294.25
955.632	1366.25
955.86	1373.25
956.088	1355.25
956.316	1385.25
956.544	1399.25
956.772	1352.25
956.999	1308.25
957.227	1401.25
957.455	1330.25
957.683	1318.25
957.91	1298.25
958.138	1308.25
958.365	1309.25
958.593	1294.25
958.82	1239.25
959.048	1336.25
959.275	1311.25
959.502	1298.25
959.73	1283.25
959.957	1325.25
960.184	1361.25
960.411	1305.25
960.638	1374.25
960.865	1317.25
961.092	1317.25
961.319	1236.25
961.546	1297.25
961.773	1324.25
962	1259.25
962.227	1336.25
962.454	1304.25
962.68	1285.25
962.907	1319.25
963.134	1257.25
963.36	1298.25
963.587	1300.25
963.813	1268.25
964.04	1285.25
964.266	1228.25
964.493	1314.25
964.719	1289.25
964.945	1291.25
965.171	1223.25
965.398	1253.25
965.624	1296.25
965.85	1217.25
966.076	1218.25
966.302	1254.25
966.528	1236.25
966.754	1244.25
966.98	1247.25
967.206	1234.25
967.431	1196.25
967.657	1284.25
967.883	1248.25
968.109	1238.25
968.334	1196.25
968.56	1177.25
968.785	1222.25
969.011	1171.25
969.236	1249.25
969.462	1188.25
969.687	1203.25
969.912	1223.25
970.138	1245.25
970.363	1182.25
970.588	1226.25
970.813	1200.25
971.038	1165.25
971.263	1188.25
971.488	1209.25
971.713	1224.25
971.938	1254.25
972.163	1146.25
972.388	1168.25
972.613	1149.25
972.838	1166.25
973.062	1153.25
973.287	1175.25
973.512	1117.25
973.736	1160.25
973.961	1161.25
974.185	1109.25
974.41	1166.25
974.634	1088.25
974.858	1111.25
975.083	1142.25
975.307	1152.25
975.531	1111.25
975.755	1076.25
975.98	1087.25
976.204	1021.25
976.428	1049.25
976.652	1043.25
976.876	1039.25
977.1	1092.25
977.324	1038.25
977.547	1087.25
977.771	1092.25
977.995	1069.25
978.219	1028.25
978.442	1134.25
978.666	1082.25
978.89	1066.25
979.113	1078.25
979.337	1062.25
979.56	1049.25
979.783	1134.25
980.007	1030.25
980.23	1062.25
980.453	1033.25
980.677	1065.25
980.9	1053.25
981.123	977.25
981.346	1062.25
981.569	1053.25
981.792	1077.25
982.015	1055.25
982.238	1009.25
982.461	1049.25
982.684	1018.25
982.907	1004.25
983.129	980.25
983.352	1048.25
983.575	1019.25
983.797	1034.25
984.02	1003.25
984.242	1014.25
984.465	1039.25
984.687	1054.25
984.91	1051.25
985.132	1055.25
985.354	1069.25
985.577	1018.25
985.799	1024.25
986.021	955.25
986.243	982.25
986.465	1009.25
986.687	1052.25
986.909	1076.25
987.131	1020.25
987.353	989.25
987.575	1041.25
987.797	1004.25
988.019	955.25
988.241	982.25
988.462	966.25
988.684	1031.25
988.906	1036.25
989.127	1075.25
989.349	962.25
989.57	991.25
989.792	1026.25
990.013	1061.25
990.234	1059.25
990.456	1069.25
990.677	1055.25
990.898	967.25
991.119	1010.25
991.341	1042.25
991.562	974.25
991.783	1028.25
992.004	978.25
992.225	942.25
992.446	1007.25
992.667	916.25
992.887	1022.25
993.108	916.25
993.329	1045.25
993.55	983.25
993.77	925.25
993.991	960.25
994.212	980.25
994.432	985.25
994.653	993.25
994.873	986.25
995.093	873.25
995.314	952.25
995.534	1018.25
995.754	1002.25
995.975	1040.25
996.195	926.25
996.415	1008.25
996.635	966.25
996.855	982.25
997.075	990.25
997.295	955.25
997.515	942.25
997.735	1012.25
997.955	983.25
998.174	982.25
998.394	949.25
998.614	993.25
998.834	961.25
999.053	1034.25
999.273	994.25
999.492	1036.25
999.712	995.25
999.931	926.25
1000.151	1012.25
1000.37	989.25
1000.589	1048.25
1000.809	956.25
1001.028	1084.25
1001.247	1021.25
1001.466	925.25
1001.685	1087.25
1001.904	1032.25
1002.123	1011.25
1002.342	1014.25
1002.561	988.25
1002.78	991.25
1002.999	1072.25
1003.218	1015.25
1003.436	1010.25
1003.655	1057.25
1003.874	981.25
1004.092	1043.25
1004.311	1059.25
1004.53	1024.25
1004.748	1109.25
1004.966	1019.25
1005.185	1094.25
1005.403	1054.25
1005.622	1062.25
1005.84	1131.25
1006.058	1037.25
1006.276	1040.25
1006.494	1544.25
1006.712	1038.25
1006.931	1125.25
1007.149	1060.25
1007.367	1015.25
1007.584	1062.25
1007.802	1079.25
1008.02	1049.25
1008.238	1160.25
1008.456	1128.25
1008.673	1009.25
1008.891	1111.25
1009.109	1049.25
1009.326	1092.25
1009.544	1172.25
1009.761	1088.25
1009.979	1188.25
1010.196	1149.25
1010.413	1243.25
1010.631	1281.25
1010.848	1307.25
1011.065	1288.25
1011.282	1264.25
1011.5	1174.25
1011.717	1301.25
1011.934	1237.25
1012.151	1300.25
1012.368	1276.25
1012.585	1211.25
1012.801	1262.25
1013.018	1246.25
1013.235	1212.25
1013.452	1219.25
1013.669	1237.25
1013.885	1232.25
1014.102	1254.25
1014.318	1206.25
1014.535	1175.25
1014.751	1221.25
1014.968	1222.25
1015.184	1273.25
1015.401	1177.25
1015.617	1236.25
1015.833	1151.25
1016.049	1185.25
1016.266	1160.25
1016.482	1193.25
1016.698	1114.25
1016.914	1165.25
1017.13	1131.25
1017.346	1130.25
1017.562	1198.25
1017.778	1141.25
1017.993	1100.25
1018.209	1156.25
1018.425	1138.25
1018.641	1091.25
1018.856	1103.25
1019.072	1121.25
1019.288	1170.25
1019.503	1140.25
1019.719	1049.25
1019.934	1054.25
1020.149	1166.25
1020.365	1102.25
1020.58	1045.25
1020.795	1108.25
1021.011	1051.25
1021.226	1018.25
1021.441	1053.25
1021.656	979.25
1021.871	959.25
1022.086	928.25
1022.301	939.25
1022.516	921.25
1022.731	986.25
1022.946	912.25
1023.16	902.25
1023.375	884.25
1023.59	857.25
1023.804	839.25
1024.019	920.25
1024.234	810.25
1024.448	848.25
1024.663	777.25
1024.877	801.25
1025.092	837.25
1025.306	855.25
1025.52	732.25
1025.734	853.25
1025.949	763.25
1026.163	742.25
1026.377	704.25
1026.591	754.25
1026.805	691.25
1027.019	672.25
1027.233	648.25
1027.447	593.25
1027.661	697.25
1027.875	639.25
1028.088	662.25
1028.302	598.25
1028.516	605.25
1028.73	608.25
1028.943	602.25
1029.157	542.25
1029.37	520.25
1029.584	2.25
1029.797	-3.75
1030.011	-3.75
1030.224	-1.75
