Data from QEP037381__278__11-06-56-590.txt Node

Date: Wed Dec 21 11:06:56 EST 2022
User: dcclab
Spectrometer: QEP03738
Trigger mode: 4
Integration Time (sec): 1.000000E1
Scans to average: 1
Electric dark correction enabled: true
Nonlinearity correction enabled: false
Boxcar width: 0
XAxis mode: Wavelengths
Number of Pixels in Spectrum: 1044
>>>>>Begin Spectral Data<<<<<
784.041	10.12
784.3	-0.88
784.558	-2.88
784.817	-1.88
785.075	92449.12
785.334	15589.12
785.592	7221.12
785.851	4923.12
786.109	3734.12
786.368	2964.12
786.626	2378.12
786.884	2007.12
787.143	1692.12
787.401	1377.12
787.659	1258.12
787.917	1091.12
788.175	1010.12
788.433	893.12
788.691	790.12
788.949	726.12
789.207	695.12
789.465	599.12
789.723	579.12
789.98	523.12
790.238	578.12
790.496	542.12
790.753	502.12
791.011	554.12
791.268	486.12
791.526	469.12
791.783	500.12
792.041	492.12
792.298	391.12
792.556	459.12
792.813	430.12
793.07	414.12
793.327	407.12
793.584	476.12
793.841	397.12
794.099	420.12
794.356	484.12
794.613	388.12
794.869	425.12
795.126	378.12
795.383	358.12
795.64	373.12
795.897	347.12
796.153	396.12
796.41	376.12
796.667	363.12
796.923	376.12
797.18	379.12
797.436	381.12
797.693	362.12
797.949	403.12
798.206	429.12
798.462	342.12
798.718	400.12
798.974	365.12
799.231	405.12
799.487	390.12
799.743	395.12
799.999	409.12
800.255	405.12
800.511	370.12
800.767	409.12
801.023	392.12
801.279	389.12
801.534	411.12
801.79	422.12
802.046	399.12
802.302	474.12
802.557	476.12
802.813	509.12
803.068	522.12
803.324	643.12
803.579	758.12
803.835	927.12
804.09	1236.12
804.345	1481.12
804.601	1836.12
804.856	2253.12
805.111	2569.12
805.366	2745.12
805.621	2900.12
805.876	2972.12
806.131	3081.12
806.386	3068.12
806.641	3091.12
806.896	3141.12
807.151	3272.12
807.406	3265.12
807.661	3330.12
807.915	3383.12
808.17	3449.12
808.425	3492.12
808.679	3474.12
808.934	3601.12
809.188	3547.12
809.443	3634.12
809.697	3742.12
809.951	3691.12
810.206	3738.12
810.46	3827.12
810.714	3875.12
810.968	3919.12
811.223	3839.12
811.477	3883.12
811.731	3934.12
811.985	3894.12
812.239	3898.12
812.493	4011.12
812.747	3996.12
813	3981.12
813.254	4045.12
813.508	4076.12
813.762	4068.12
814.015	4090.12
814.269	4137.12
814.522	4199.12
814.776	4270.12
815.03	4284.12
815.283	4357.12
815.536	4451.12
815.79	4493.12
816.043	4535.12
816.296	4595.12
816.55	4634.12
816.803	4664.12
817.056	4817.12
817.309	4807.12
817.562	4851.12
817.815	4972.12
818.068	4876.12
818.321	5028.12
818.574	5052.12
818.827	5164.12
819.079	5178.12
819.332	5384.12
819.585	5401.12
819.838	5496.12
820.09	5420.12
820.343	5579.12
820.595	5501.12
820.848	5599.12
821.1	5598.12
821.353	5609.12
821.605	5549.12
821.857	5645.12
822.11	5520.12
822.362	5602.12
822.614	5574.12
822.866	5613.12
823.118	5568.12
823.37	5701.12
823.622	5714.12
823.874	5745.12
824.126	5770.12
824.378	5729.12
824.63	5815.12
824.882	5785.12
825.134	5756.12
825.385	5751.12
825.637	5718.12
825.888	5650.12
826.14	5760.12
826.392	5669.12
826.643	5613.12
826.895	5592.12
827.146	5541.12
827.397	5572.12
827.649	5593.12
827.9	5514.12
828.151	5537.12
828.402	5510.12
828.653	5637.12
828.905	5581.12
829.156	5658.12
829.407	5627.12
829.658	5597.12
829.909	5659.12
830.159	5642.12
830.41	5648.12
830.661	5675.12
830.912	5537.12
831.162	5498.12
831.413	5531.12
831.664	5608.12
831.914	5600.12
832.165	5592.12
832.415	5614.12
832.666	5590.12
832.916	5608.12
833.167	5525.12
833.417	5644.12
833.667	5574.12
833.917	5566.12
834.168	5633.12
834.418	5612.12
834.668	5543.12
834.918	5552.12
835.168	5526.12
835.418	5465.12
835.668	5503.12
835.918	5465.12
836.167	5476.12
836.417	5419.12
836.667	5507.12
836.917	5499.12
837.166	5384.12
837.416	5479.12
837.666	5476.12
837.915	5390.12
838.165	5414.12
838.414	5336.12
838.663	5265.12
838.913	5328.12
839.162	5329.12
839.411	5464.12
839.661	5274.12
839.91	5324.12
840.159	5357.12
840.408	5381.12
840.657	5343.12
840.906	5392.12
841.155	5416.12
841.404	5379.12
841.653	5400.12
841.902	5360.12
842.15	5419.12
842.399	5391.12
842.648	5390.12
842.897	5417.12
843.145	5295.12
843.394	5273.12
843.642	5267.12
843.891	5263.12
844.139	5189.12
844.388	5150.12
844.636	5136.12
844.884	5178.12
845.133	5186.12
845.381	5195.12
845.629	5203.12
845.877	5158.12
846.125	5150.12
846.373	5148.12
846.621	5153.12
846.869	5157.12
847.117	5129.12
847.365	5066.12
847.613	5072.12
847.861	5091.12
848.108	5096.12
848.356	5067.12
848.604	5083.12
848.851	5104.12
849.099	5146.12
849.346	5099.12
849.594	5178.12
849.841	5198.12
850.089	5145.12
850.336	5187.12
850.583	5263.12
850.831	5287.12
851.078	5293.12
851.325	5282.12
851.572	5401.12
851.819	5313.12
852.066	5090.12
852.313	4953.12
852.56	4867.12
852.807	4885.12
853.054	4845.12
853.301	4918.12
853.548	4923.12
853.794	5031.12
854.041	5014.12
854.288	4979.12
854.534	5174.12
854.781	5022.12
855.028	5012.12
855.274	5049.12
855.52	5000.12
855.767	4946.12
856.013	5010.12
856.26	5256.12
856.506	4940.12
856.752	4961.12
856.998	4906.12
857.244	4878.12
857.49	4972.12
857.736	4978.12
857.982	4953.12
858.228	4929.12
858.474	4877.12
858.72	4897.12
858.966	4853.12
859.212	4827.12
859.458	4702.12
859.703	4691.12
859.949	4642.12
860.195	4637.12
860.44	4621.12
860.686	4581.12
860.931	4668.12
861.177	4548.12
861.422	4542.12
861.667	4532.12
861.913	4563.12
862.158	4555.12
862.403	4600.12
862.648	4630.12
862.893	4690.12
863.138	4687.12
863.384	4587.12
863.629	4629.12
863.873	4672.12
864.118	4609.12
864.363	4489.12
864.608	4572.12
864.853	4576.12
865.098	4525.12
865.342	4531.12
865.587	4471.12
865.832	4537.12
866.076	4517.12
866.321	4464.12
866.565	4537.12
866.81	4381.12
867.054	4458.12
867.298	4442.12
867.543	4433.12
867.787	4401.12
868.031	4436.12
868.275	4425.12
868.519	4402.12
868.764	4408.12
869.008	4420.12
869.252	4412.12
869.496	4421.12
869.739	4416.12
869.983	4420.12
870.227	4455.12
870.471	4389.12
870.715	4459.12
870.958	4496.12
871.202	4473.12
871.446	4495.12
871.689	4422.12
871.933	4456.12
872.176	4460.12
872.42	4413.12
872.663	4478.12
872.906	4486.12
873.15	4478.12
873.393	4374.12
873.636	4502.12
873.879	4393.12
874.122	4386.12
874.366	4313.12
874.609	4302.12
874.852	4247.12
875.095	4216.12
875.337	4192.12
875.58	4139.12
875.823	4181.12
876.066	4229.12
876.309	4250.12
876.551	4154.12
876.794	4100.12
877.037	4211.12
877.279	4069.12
877.522	4077.12
877.764	4107.12
878.007	4053.12
878.249	4083.12
878.491	4063.12
878.734	4080.12
878.976	4057.12
879.218	4014.12
879.46	4061.12
879.702	4046.12
879.945	3971.12
880.187	3907.12
880.429	3910.12
880.671	3933.12
880.912	3915.12
881.154	3866.12
881.396	3822.12
881.638	3923.12
881.88	3864.12
882.121	3843.12
882.363	3836.12
882.605	3917.12
882.846	3907.12
883.088	3890.12
883.329	3882.12
883.571	3864.12
883.812	3926.12
884.053	4004.12
884.295	4084.12
884.536	4240.12
884.777	4210.12
885.018	4180.12
885.259	4160.12
885.5	4068.12
885.742	4253.12
885.982	4045.12
886.223	3986.12
886.464	3911.12
886.705	3891.12
886.946	3890.12
887.187	3765.12
887.428	3830.12
887.668	3687.12
887.909	3640.12
888.15	3581.12
888.39	3663.12
888.631	3632.12
888.871	3614.12
889.111	3571.12
889.352	3568.12
889.592	3470.12
889.833	3438.12
890.073	3491.12
890.313	3504.12
890.553	3387.12
890.793	3436.12
891.033	3387.12
891.273	3398.12
891.513	3400.12
891.753	3438.12
891.993	3387.12
892.233	3404.12
892.473	3478.12
892.713	3477.12
892.952	3351.12
893.192	3440.12
893.432	3383.12
893.671	3487.12
893.911	3456.12
894.15	3393.12
894.39	3343.12
894.629	3337.12
894.869	3348.12
895.108	3326.12
895.347	3270.12
895.587	3311.12
895.826	3275.12
896.065	3312.12
896.304	3308.12
896.543	3331.12
896.782	3250.12
897.021	3315.12
897.26	3326.12
897.499	3363.12
897.738	3333.12
897.977	3315.12
898.216	3282.12
898.454	3251.12
898.693	3232.12
898.932	3228.12
899.17	3247.12
899.409	3188.12
899.647	3202.12
899.886	3176.12
900.124	3237.12
900.363	3211.12
900.601	3268.12
900.839	3246.12
901.078	3276.12
901.316	3307.12
901.554	3277.12
901.792	3322.12
902.03	3297.12
902.268	3289.12
902.506	3358.12
902.744	3259.12
902.982	3292.12
903.22	3157.12
903.458	3117.12
903.695	3130.12
903.933	3115.12
904.171	3001.12
904.409	2948.12
904.646	2950.12
904.884	2887.12
905.121	2927.12
905.359	2887.12
905.596	2790.12
905.833	2781.12
906.071	2761.12
906.308	2800.12
906.545	2786.12
906.783	2729.12
907.02	2756.12
907.257	2692.12
907.494	2733.12
907.731	2728.12
907.968	2760.12
908.205	2693.12
908.442	2676.12
908.679	2667.12
908.915	2677.12
909.152	2647.12
909.389	2531.12
909.626	2590.12
909.862	2546.12
910.099	2576.12
910.335	2637.12
910.572	2489.12
910.808	2548.12
911.045	2527.12
911.281	2514.12
911.518	2575.12
911.754	2534.12
911.99	2511.12
912.226	2459.12
912.463	2430.12
912.699	2438.12
912.935	2470.12
913.171	2395.12
913.407	2387.12
913.643	2391.12
913.879	2359.12
914.114	2388.12
914.35	2335.12
914.586	2320.12
914.822	2276.12
915.057	2365.12
915.293	2204.12
915.529	2272.12
915.764	2304.12
916	2318.12
916.235	2290.12
916.471	2309.12
916.706	2241.12
916.941	2248.12
917.177	2251.12
917.412	2288.12
917.647	2270.12
917.882	2218.12
918.117	2301.12
918.352	2231.12
918.588	2326.12
918.823	2202.12
919.057	2212.12
919.292	2101.12
919.527	2203.12
919.762	2131.12
919.997	2202.12
920.232	2095.12
920.466	2160.12
920.701	2042.12
920.935	2117.12
921.17	2061.12
921.405	2006.12
921.639	2112.12
921.873	2053.12
922.108	2096.12
922.342	2085.12
922.576	2006.12
922.811	2042.12
923.045	2034.12
923.279	2077.12
923.513	1959.12
923.747	2062.12
923.981	2038.12
924.215	1969.12
924.449	1972.12
924.683	1944.12
924.917	1936.12
925.151	1939.12
925.385	1999.12
925.618	1935.12
925.852	1947.12
926.086	1925.12
926.319	1939.12
926.553	1948.12
926.786	1977.12
927.02	1926.12
927.253	1998.12
927.486	1979.12
927.72	1909.12
927.953	1991.12
928.186	1933.12
928.42	1944.12
928.653	1928.12
928.886	1859.12
929.119	1933.12
929.352	1908.12
929.585	1888.12
929.818	1826.12
930.051	1910.12
930.284	1874.12
930.516	1810.12
930.749	1836.12
930.982	1875.12
931.215	1851.12
931.447	1773.12
931.68	1826.12
931.912	1813.12
932.145	1806.12
932.377	1818.12
932.61	1938.12
932.842	1748.12
933.074	1814.12
933.307	1764.12
933.539	1847.12
933.771	1867.12
934.003	1789.12
934.236	1905.12
934.468	1926.12
934.7	1820.12
934.932	1852.12
935.164	1808.12
935.395	1793.12
935.627	1809.12
935.859	1800.12
936.091	1760.12
936.323	1809.12
936.554	1834.12
936.786	1770.12
937.017	1741.12
937.249	1775.12
937.481	1704.12
937.712	1803.12
937.943	1790.12
938.175	1736.12
938.406	1726.12
938.637	1843.12
938.869	1738.12
939.1	1831.12
939.331	1737.12
939.562	1751.12
939.793	1760.12
940.024	1787.12
940.255	1808.12
940.486	1745.12
940.717	1734.12
940.948	1726.12
941.179	1685.12
941.409	1729.12
941.64	1707.12
941.871	1712.12
942.102	1692.12
942.332	1702.12
942.563	1734.12
942.793	1739.12
943.024	1676.12
943.254	1721.12
943.484	1757.12
943.715	1759.12
943.945	1739.12
944.175	1669.12
944.405	1670.12
944.636	1682.12
944.866	1728.12
945.096	1737.12
945.326	1662.12
945.556	1717.12
945.786	1753.12
946.016	1709.12
946.245	1642.12
946.475	1648.12
946.705	1649.12
946.935	1664.12
947.164	1683.12
947.394	1621.12
947.624	1642.12
947.853	1691.12
948.083	1657.12
948.312	1634.12
948.542	1548.12
948.771	1582.12
949	1562.12
949.23	1586.12
949.459	1605.12
949.688	1672.12
949.917	1612.12
950.146	1616.12
950.375	1659.12
950.604	1585.12
950.833	1677.12
951.062	1671.12
951.291	1606.12
951.52	1590.12
951.749	1607.12
951.978	1567.12
952.206	1580.12
952.435	1549.12
952.664	1598.12
952.892	1620.12
953.121	1593.12
953.349	1632.12
953.578	1591.12
953.806	1582.12
954.035	1535.12
954.263	1601.12
954.491	1530.12
954.719	1549.12
954.948	1550.12
955.176	1539.12
955.404	1489.12
955.632	1547.12
955.86	1546.12
956.088	1525.12
956.316	1581.12
956.544	1574.12
956.772	1525.12
956.999	1496.12
957.227	1568.12
957.455	1524.12
957.683	1541.12
957.91	1484.12
958.138	1481.12
958.365	1443.12
958.593	1484.12
958.82	1415.12
959.048	1497.12
959.275	1475.12
959.502	1448.12
959.73	1444.12
959.957	1486.12
960.184	1534.12
960.411	1461.12
960.638	1557.12
960.865	1468.12
961.092	1491.12
961.319	1393.12
961.546	1482.12
961.773	1519.12
962	1477.12
962.227	1515.12
962.454	1450.12
962.68	1431.12
962.907	1473.12
963.134	1436.12
963.36	1422.12
963.587	1480.12
963.813	1402.12
964.04	1463.12
964.266	1390.12
964.493	1472.12
964.719	1454.12
964.945	1439.12
965.171	1358.12
965.398	1412.12
965.624	1455.12
965.85	1371.12
966.076	1389.12
966.302	1409.12
966.528	1366.12
966.754	1433.12
966.98	1404.12
967.206	1400.12
967.431	1338.12
967.657	1440.12
967.883	1397.12
968.109	1398.12
968.334	1349.12
968.56	1341.12
968.785	1378.12
969.011	1334.12
969.236	1401.12
969.462	1330.12
969.687	1312.12
969.912	1382.12
970.138	1391.12
970.363	1304.12
970.588	1370.12
970.813	1338.12
971.038	1327.12
971.263	1338.12
971.488	1358.12
971.713	1381.12
971.938	1396.12
972.163	1273.12
972.388	1309.12
972.613	1296.12
972.838	1330.12
973.062	1300.12
973.287	1306.12
973.512	1245.12
973.736	1309.12
973.961	1268.12
974.185	1272.12
974.41	1304.12
974.634	1198.12
974.858	1227.12
975.083	1287.12
975.307	1297.12
975.531	1246.12
975.755	1192.12
975.98	1225.12
976.204	1164.12
976.428	1174.12
976.652	1175.12
976.876	1177.12
977.1	1196.12
977.324	1180.12
977.547	1216.12
977.771	1216.12
977.995	1223.12
978.219	1148.12
978.442	1254.12
978.666	1213.12
978.89	1207.12
979.113	1210.12
979.337	1185.12
979.56	1152.12
979.783	1250.12
980.007	1147.12
980.23	1185.12
980.453	1163.12
980.677	1166.12
980.9	1171.12
981.123	1129.12
981.346	1192.12
981.569	1157.12
981.792	1210.12
982.015	1151.12
982.238	1136.12
982.461	1168.12
982.684	1138.12
982.907	1088.12
983.129	1118.12
983.352	1141.12
983.575	1134.12
983.797	1142.12
984.02	1101.12
984.242	1114.12
984.465	1116.12
984.687	1146.12
984.91	1201.12
985.132	1173.12
985.354	1143.12
985.577	1121.12
985.799	1131.12
986.021	1065.12
986.243	1082.12
986.465	1114.12
986.687	1149.12
986.909	1194.12
987.131	1140.12
987.353	1109.12
987.575	1131.12
987.797	1084.12
988.019	1049.12
988.241	1120.12
988.462	1069.12
988.684	1142.12
988.906	1133.12
989.127	1194.12
989.349	1039.12
989.57	1098.12
989.792	1129.12
990.013	1148.12
990.234	1162.12
990.456	1196.12
990.677	1155.12
990.898	1103.12
991.119	1119.12
991.341	1122.12
991.562	1063.12
991.783	1106.12
992.004	1068.12
992.225	1046.12
992.446	1096.12
992.667	1001.12
992.887	1104.12
993.108	1013.12
993.329	1147.12
993.55	1074.12
993.77	1022.12
993.991	1060.12
994.212	1084.12
994.432	1077.12
994.653	1063.12
994.873	1072.12
995.093	953.12
995.314	1052.12
995.534	1102.12
995.754	1092.12
995.975	1134.12
996.195	1012.12
996.415	1091.12
996.635	1056.12
996.855	1077.12
997.075	1053.12
997.295	1056.12
997.515	1036.12
997.735	1086.12
997.955	1058.12
998.174	1033.12
998.394	1010.12
998.614	1098.12
998.834	1047.12
999.053	1118.12
999.273	1067.12
999.492	1135.12
999.712	1063.12
999.931	1028.12
1000.151	1079.12
1000.37	1065.12
1000.589	1128.12
1000.809	1044.12
1001.028	1160.12
1001.247	1098.12
1001.466	1007.12
1001.685	1157.12
1001.904	1096.12
1002.123	1070.12
1002.342	1085.12
1002.561	1044.12
1002.78	1086.12
1002.999	1142.12
1003.218	1099.12
1003.436	1066.12
1003.655	1110.12
1003.874	1065.12
1004.092	1079.12
1004.311	1124.12
1004.53	1074.12
1004.748	1141.12
1004.966	1073.12
1005.185	1146.12
1005.403	1117.12
1005.622	1098.12
1005.84	1169.12
1006.058	1083.12
1006.276	1127.12
1006.494	1605.12
1006.712	1107.12
1006.931	1157.12
1007.149	1092.12
1007.367	1076.12
1007.584	1121.12
1007.802	1163.12
1008.02	1104.12
1008.238	1208.12
1008.456	1192.12
1008.673	1053.12
1008.891	1162.12
1009.109	1113.12
1009.326	1157.12
1009.544	1266.12
1009.761	1145.12
1009.979	1239.12
1010.196	1221.12
1010.413	1307.12
1010.631	1354.12
1010.848	1368.12
1011.065	1355.12
1011.282	1335.12
1011.5	1258.12
1011.717	1399.12
1011.934	1322.12
1012.151	1369.12
1012.368	1337.12
1012.585	1276.12
1012.801	1349.12
1013.018	1320.12
1013.235	1267.12
1013.452	1294.12
1013.669	1293.12
1013.885	1272.12
1014.102	1336.12
1014.318	1305.12
1014.535	1262.12
1014.751	1305.12
1014.968	1288.12
1015.184	1329.12
1015.401	1258.12
1015.617	1255.12
1015.833	1219.12
1016.049	1259.12
1016.266	1238.12
1016.482	1248.12
1016.698	1200.12
1016.914	1234.12
1017.13	1195.12
1017.346	1194.12
1017.562	1254.12
1017.778	1193.12
1017.993	1153.12
1018.209	1219.12
1018.425	1184.12
1018.641	1139.12
1018.856	1131.12
1019.072	1155.12
1019.288	1222.12
1019.503	1157.12
1019.719	1091.12
1019.934	1101.12
1020.149	1172.12
1020.365	1159.12
1020.58	1102.12
1020.795	1135.12
1021.011	1063.12
1021.226	1077.12
1021.441	1117.12
1021.656	1002.12
1021.871	982.12
1022.086	966.12
1022.301	970.12
1022.516	955.12
1022.731	1016.12
1022.946	919.12
1023.16	932.12
1023.375	891.12
1023.59	893.12
1023.804	861.12
1024.019	973.12
1024.234	834.12
1024.448	869.12
1024.663	814.12
1024.877	828.12
1025.092	847.12
1025.306	841.12
1025.52	769.12
1025.734	861.12
1025.949	783.12
1026.163	767.12
1026.377	711.12
1026.591	755.12
1026.805	708.12
1027.019	684.12
1027.233	658.12
1027.447	619.12
1027.661	708.12
1027.875	649.12
1028.088	673.12
1028.302	602.12
1028.516	602.12
1028.73	600.12
1028.943	603.12
1029.157	557.12
1029.37	510.12
1029.584	-0.88
1029.797	0.12
1030.011	-2.88
1030.224	-0.88
