Data from QEP037381__249__11-02-06-588.txt Node

Date: Wed Dec 21 11:02:06 EST 2022
User: dcclab
Spectrometer: QEP03738
Trigger mode: 4
Integration Time (sec): 1.000000E1
Scans to average: 1
Electric dark correction enabled: true
Nonlinearity correction enabled: false
Boxcar width: 0
XAxis mode: Wavelengths
Number of Pixels in Spectrum: 1044
>>>>>Begin Spectral Data<<<<<
784.041	14.5
784.3	2.5
784.558	-3.5
784.817	-4.5
785.075	93997.5
785.334	16036.5
785.592	7462.5
785.851	5125.5
786.109	3837.5
786.368	3038.5
786.626	2388.5
786.884	2002.5
787.143	1670.5
787.401	1401.5
787.659	1261.5
787.917	1079.5
788.175	1002.5
788.433	864.5
788.691	786.5
788.949	705.5
789.207	695.5
789.465	592.5
789.723	582.5
789.98	534.5
790.238	584.5
790.496	530.5
790.753	514.5
791.011	549.5
791.268	496.5
791.526	487.5
791.783	491.5
792.041	488.5
792.298	404.5
792.556	453.5
792.813	439.5
793.07	423.5
793.327	402.5
793.584	479.5
793.841	412.5
794.099	443.5
794.356	472.5
794.613	384.5
794.869	420.5
795.126	388.5
795.383	369.5
795.64	380.5
795.897	343.5
796.153	403.5
796.41	391.5
796.667	369.5
796.923	359.5
797.18	364.5
797.436	389.5
797.693	357.5
797.949	411.5
798.206	437.5
798.462	345.5
798.718	403.5
798.974	374.5
799.231	407.5
799.487	395.5
799.743	390.5
799.999	423.5
800.255	414.5
800.511	378.5
800.767	420.5
801.023	400.5
801.279	407.5
801.534	407.5
801.79	442.5
802.046	394.5
802.302	471.5
802.557	470.5
802.813	525.5
803.068	517.5
803.324	635.5
803.579	734.5
803.835	913.5
804.09	1229.5
804.345	1502.5
804.601	1835.5
804.856	2279.5
805.111	2590.5
805.366	2797.5
805.621	2939.5
805.876	3095.5
806.131	3083.5
806.386	3140.5
806.641	3159.5
806.896	3229.5
807.151	3320.5
807.406	3328.5
807.661	3394.5
807.915	3465.5
808.17	3567.5
808.425	3588.5
808.679	3592.5
808.934	3705.5
809.188	3670.5
809.443	3743.5
809.697	3784.5
809.951	3776.5
810.206	3816.5
810.46	3949.5
810.714	3913.5
810.968	3976.5
811.223	3952.5
811.477	4019.5
811.731	4081.5
811.985	4004.5
812.239	3983.5
812.493	4087.5
812.747	4120.5
813	4065.5
813.254	4161.5
813.508	4189.5
813.762	4169.5
814.015	4234.5
814.269	4248.5
814.522	4289.5
814.776	4368.5
815.03	4389.5
815.283	4469.5
815.536	4490.5
815.79	4652.5
816.043	4697.5
816.296	4721.5
816.55	4746.5
816.803	4804.5
817.056	4972.5
817.309	4950.5
817.562	5033.5
817.815	5044.5
818.068	5017.5
818.321	5146.5
818.574	5196.5
818.827	5317.5
819.079	5342.5
819.332	5519.5
819.585	5523.5
819.838	5678.5
820.09	5560.5
820.343	5677.5
820.595	5651.5
820.848	5785.5
821.1	5776.5
821.353	5782.5
821.605	5759.5
821.857	5765.5
822.11	5680.5
822.362	5718.5
822.614	5690.5
822.866	5726.5
823.118	5734.5
823.37	5846.5
823.622	5811.5
823.874	5863.5
824.126	5909.5
824.378	5821.5
824.63	5917.5
824.882	5882.5
825.134	5898.5
825.385	5862.5
825.637	5808.5
825.888	5829.5
826.14	5719.5
826.392	5751.5
826.643	5673.5
826.895	5728.5
827.146	5697.5
827.397	5669.5
827.649	5704.5
827.9	5627.5
828.151	5629.5
828.402	5642.5
828.653	5719.5
828.905	5704.5
829.156	5744.5
829.407	5707.5
829.658	5762.5
829.909	5777.5
830.159	5799.5
830.41	5716.5
830.661	5687.5
830.912	5723.5
831.162	5602.5
831.413	5651.5
831.664	5697.5
831.914	5679.5
832.165	5635.5
832.415	5700.5
832.666	5669.5
832.916	5683.5
833.167	5679.5
833.417	5718.5
833.667	5631.5
833.917	5682.5
834.168	5687.5
834.418	5696.5
834.668	5680.5
834.918	5616.5
835.168	5604.5
835.418	5526.5
835.668	5573.5
835.918	5647.5
836.167	5552.5
836.417	5490.5
836.667	5608.5
836.917	5513.5
837.166	5542.5
837.416	5537.5
837.666	5498.5
837.915	5440.5
838.165	5495.5
838.414	5424.5
838.663	5392.5
838.913	5413.5
839.162	5386.5
839.411	5496.5
839.661	5410.5
839.91	5455.5
840.159	5409.5
840.408	5424.5
840.657	5432.5
840.906	5459.5
841.155	5474.5
841.404	5441.5
841.653	5494.5
841.902	5439.5
842.15	5409.5
842.399	5419.5
842.648	5446.5
842.897	5447.5
843.145	5343.5
843.394	5337.5
843.642	5282.5
843.891	5346.5
844.139	5352.5
844.388	5266.5
844.636	5165.5
844.884	5226.5
845.133	5211.5
845.381	5176.5
845.629	5222.5
845.877	5174.5
846.125	5200.5
846.373	5237.5
846.621	5172.5
846.869	5177.5
847.117	5180.5
847.365	5148.5
847.613	5144.5
847.861	5132.5
848.108	5157.5
848.356	5125.5
848.604	5120.5
848.851	5156.5
849.099	5136.5
849.346	5130.5
849.594	5195.5
849.841	5290.5
850.089	5254.5
850.336	5328.5
850.583	5333.5
850.831	5368.5
851.078	5334.5
851.325	5370.5
851.572	5518.5
851.819	5379.5
852.066	5128.5
852.313	4981.5
852.56	4921.5
852.807	4912.5
853.054	4870.5
853.301	4928.5
853.548	4932.5
853.794	5100.5
854.041	4996.5
854.288	5010.5
854.534	5210.5
854.781	5066.5
855.028	5062.5
855.274	5076.5
855.52	4978.5
855.767	4942.5
856.013	4977.5
856.26	5276.5
856.506	4921.5
856.752	4986.5
856.998	4897.5
857.244	4901.5
857.49	5001.5
857.736	5037.5
857.982	4993.5
858.228	5020.5
858.474	4901.5
858.72	4902.5
858.966	4868.5
859.212	4814.5
859.458	4773.5
859.703	4697.5
859.949	4668.5
860.195	4668.5
860.44	4668.5
860.686	4598.5
860.931	4700.5
861.177	4537.5
861.422	4560.5
861.667	4538.5
861.913	4529.5
862.158	4535.5
862.403	4619.5
862.648	4621.5
862.893	4722.5
863.138	4624.5
863.384	4558.5
863.629	4631.5
863.873	4629.5
864.118	4575.5
864.363	4580.5
864.608	4579.5
864.853	4593.5
865.098	4504.5
865.342	4527.5
865.587	4468.5
865.832	4541.5
866.076	4500.5
866.321	4475.5
866.565	4509.5
866.81	4394.5
867.054	4439.5
867.298	4441.5
867.543	4411.5
867.787	4402.5
868.031	4408.5
868.275	4396.5
868.519	4365.5
868.764	4475.5
869.008	4400.5
869.252	4435.5
869.496	4419.5
869.739	4425.5
869.983	4414.5
870.227	4432.5
870.471	4393.5
870.715	4494.5
870.958	4520.5
871.202	4430.5
871.446	4435.5
871.689	4474.5
871.933	4456.5
872.176	4504.5
872.42	4426.5
872.663	4438.5
872.906	4480.5
873.15	4409.5
873.393	4377.5
873.636	4465.5
873.879	4412.5
874.122	4358.5
874.366	4273.5
874.609	4281.5
874.852	4246.5
875.095	4225.5
875.337	4134.5
875.58	4102.5
875.823	4180.5
876.066	4193.5
876.309	4195.5
876.551	4079.5
876.794	4049.5
877.037	4095.5
877.279	4068.5
877.522	4070.5
877.764	4073.5
878.007	4066.5
878.249	4066.5
878.491	4001.5
878.734	4102.5
878.976	4054.5
879.218	3992.5
879.46	4047.5
879.702	4004.5
879.945	3946.5
880.187	3882.5
880.429	3874.5
880.671	3887.5
880.912	3874.5
881.154	3853.5
881.396	3773.5
881.638	3802.5
881.88	3854.5
882.121	3816.5
882.363	3799.5
882.605	3865.5
882.846	3807.5
883.088	3832.5
883.329	3826.5
883.571	3772.5
883.812	3889.5
884.053	3961.5
884.295	4083.5
884.536	4212.5
884.777	4195.5
885.018	4155.5
885.259	4084.5
885.5	4071.5
885.742	4278.5
885.982	4084.5
886.223	3957.5
886.464	3936.5
886.705	3860.5
886.946	3891.5
887.187	3793.5
887.428	3789.5
887.668	3696.5
887.909	3628.5
888.15	3588.5
888.39	3577.5
888.631	3591.5
888.871	3534.5
889.111	3524.5
889.352	3471.5
889.592	3470.5
889.833	3436.5
890.073	3435.5
890.313	3466.5
890.553	3344.5
890.793	3390.5
891.033	3303.5
891.273	3327.5
891.513	3377.5
891.753	3416.5
891.993	3359.5
892.233	3365.5
892.473	3454.5
892.713	3379.5
892.952	3341.5
893.192	3416.5
893.432	3385.5
893.671	3424.5
893.911	3386.5
894.15	3391.5
894.39	3277.5
894.629	3346.5
894.869	3318.5
895.108	3283.5
895.347	3291.5
895.587	3325.5
895.826	3249.5
896.065	3270.5
896.304	3304.5
896.543	3297.5
896.782	3214.5
897.021	3254.5
897.26	3257.5
897.499	3385.5
897.738	3381.5
897.977	3315.5
898.216	3291.5
898.454	3227.5
898.693	3194.5
898.932	3273.5
899.17	3225.5
899.409	3207.5
899.647	3229.5
899.886	3204.5
900.124	3217.5
900.363	3160.5
900.601	3231.5
900.839	3267.5
901.078	3284.5
901.316	3263.5
901.554	3287.5
901.792	3327.5
902.03	3307.5
902.268	3380.5
902.506	3320.5
902.744	3247.5
902.982	3326.5
903.22	3134.5
903.458	3116.5
903.695	3120.5
903.933	3062.5
904.171	2967.5
904.409	2943.5
904.646	2931.5
904.884	2887.5
905.121	2893.5
905.359	2810.5
905.596	2796.5
905.833	2764.5
906.071	2777.5
906.308	2817.5
906.545	2702.5
906.783	2681.5
907.02	2695.5
907.257	2664.5
907.494	2675.5
907.731	2696.5
907.968	2673.5
908.205	2675.5
908.442	2654.5
908.679	2647.5
908.915	2622.5
909.152	2574.5
909.389	2518.5
909.626	2536.5
909.862	2528.5
910.099	2523.5
910.335	2564.5
910.572	2497.5
910.808	2514.5
911.045	2493.5
911.281	2467.5
911.518	2495.5
911.754	2460.5
911.99	2501.5
912.226	2418.5
912.463	2384.5
912.699	2385.5
912.935	2364.5
913.171	2359.5
913.407	2342.5
913.643	2386.5
913.879	2352.5
914.114	2314.5
914.35	2250.5
914.586	2267.5
914.822	2218.5
915.057	2346.5
915.293	2156.5
915.529	2196.5
915.764	2255.5
916	2243.5
916.235	2209.5
916.471	2226.5
916.706	2184.5
916.941	2207.5
917.177	2200.5
917.412	2234.5
917.647	2210.5
917.882	2138.5
918.117	2218.5
918.352	2199.5
918.588	2241.5
918.823	2163.5
919.057	2149.5
919.292	2039.5
919.527	2165.5
919.762	2081.5
919.997	2190.5
920.232	2064.5
920.466	2096.5
920.701	1978.5
920.935	2033.5
921.17	2016.5
921.405	1991.5
921.639	2040.5
921.873	1988.5
922.108	2003.5
922.342	2025.5
922.576	1948.5
922.811	1987.5
923.045	2020.5
923.279	2037.5
923.513	1919.5
923.747	2002.5
923.981	1957.5
924.215	1929.5
924.449	1944.5
924.683	1903.5
924.917	1904.5
925.151	1910.5
925.385	1964.5
925.618	1932.5
925.852	1911.5
926.086	1873.5
926.319	1869.5
926.553	1905.5
926.786	1901.5
927.02	1912.5
927.253	1929.5
927.486	1943.5
927.72	1867.5
927.953	1911.5
928.186	1879.5
928.42	1923.5
928.653	1888.5
928.886	1873.5
929.119	1911.5
929.352	1843.5
929.585	1865.5
929.818	1834.5
930.051	1847.5
930.284	1854.5
930.516	1780.5
930.749	1771.5
930.982	1826.5
931.215	1837.5
931.447	1754.5
931.68	1747.5
931.912	1764.5
932.145	1742.5
932.377	1795.5
932.61	1909.5
932.842	1747.5
933.074	1816.5
933.307	1817.5
933.539	1889.5
933.771	1915.5
934.003	1886.5
934.236	2096.5
934.468	2193.5
934.7	2175.5
934.932	2245.5
935.164	2173.5
935.395	2100.5
935.627	2028.5
935.859	1929.5
936.091	1809.5
936.323	1805.5
936.554	1864.5
936.786	1772.5
937.017	1734.5
937.249	1798.5
937.481	1720.5
937.712	1787.5
937.943	1768.5
938.175	1778.5
938.406	1770.5
938.637	1867.5
938.869	1807.5
939.1	1891.5
939.331	1882.5
939.562	1985.5
939.793	2137.5
940.024	2659.5
940.255	3706.5
940.486	4628.5
940.717	4923.5
940.948	4433.5
941.179	3682.5
941.409	3114.5
941.64	2509.5
941.871	2166.5
942.102	1942.5
942.332	1847.5
942.563	1829.5
942.793	1795.5
943.024	1673.5
943.254	1744.5
943.484	1747.5
943.715	1747.5
943.945	1723.5
944.175	1651.5
944.405	1642.5
944.636	1646.5
944.866	1703.5
945.096	1714.5
945.326	1625.5
945.556	1653.5
945.786	1705.5
946.016	1659.5
946.245	1609.5
946.475	1631.5
946.705	1605.5
946.935	1610.5
947.164	1639.5
947.394	1590.5
947.624	1607.5
947.853	1641.5
948.083	1612.5
948.312	1593.5
948.542	1549.5
948.771	1530.5
949	1544.5
949.23	1539.5
949.459	1565.5
949.688	1621.5
949.917	1577.5
950.146	1597.5
950.375	1642.5
950.604	1526.5
950.833	1631.5
951.062	1615.5
951.291	1572.5
951.52	1551.5
951.749	1562.5
951.978	1539.5
952.206	1548.5
952.435	1540.5
952.664	1571.5
952.892	1563.5
953.121	1577.5
953.349	1587.5
953.578	1555.5
953.806	1524.5
954.035	1518.5
954.263	1537.5
954.491	1486.5
954.719	1546.5
954.948	1488.5
955.176	1475.5
955.404	1426.5
955.632	1520.5
955.86	1525.5
956.088	1491.5
956.316	1518.5
956.544	1523.5
956.772	1480.5
956.999	1431.5
957.227	1538.5
957.455	1440.5
957.683	1465.5
957.91	1451.5
958.138	1403.5
958.365	1442.5
958.593	1458.5
958.82	1393.5
959.048	1476.5
959.275	1423.5
959.502	1419.5
959.73	1415.5
959.957	1461.5
960.184	1471.5
960.411	1429.5
960.638	1521.5
960.865	1436.5
961.092	1440.5
961.319	1339.5
961.546	1425.5
961.773	1468.5
962	1432.5
962.227	1473.5
962.454	1410.5
962.68	1411.5
962.907	1438.5
963.134	1376.5
963.36	1409.5
963.587	1451.5
963.813	1358.5
964.04	1392.5
964.266	1348.5
964.493	1447.5
964.719	1415.5
964.945	1424.5
965.171	1309.5
965.398	1360.5
965.624	1415.5
965.85	1344.5
966.076	1336.5
966.302	1373.5
966.528	1357.5
966.754	1364.5
966.98	1369.5
967.206	1353.5
967.431	1320.5
967.657	1388.5
967.883	1368.5
968.109	1363.5
968.334	1311.5
968.56	1296.5
968.785	1329.5
969.011	1271.5
969.236	1348.5
969.462	1272.5
969.687	1297.5
969.912	1327.5
970.138	1354.5
970.363	1308.5
970.588	1329.5
970.813	1301.5
971.038	1272.5
971.263	1307.5
971.488	1310.5
971.713	1361.5
971.938	1347.5
972.163	1234.5
972.388	1279.5
972.613	1261.5
972.838	1277.5
973.062	1261.5
973.287	1261.5
973.512	1215.5
973.736	1270.5
973.961	1251.5
974.185	1238.5
974.41	1271.5
974.634	1180.5
974.858	1178.5
975.083	1256.5
975.307	1282.5
975.531	1195.5
975.755	1152.5
975.98	1204.5
976.204	1108.5
976.428	1140.5
976.652	1155.5
976.876	1148.5
977.1	1170.5
977.324	1131.5
977.547	1213.5
977.771	1205.5
977.995	1163.5
978.219	1120.5
978.442	1228.5
978.666	1171.5
978.89	1166.5
979.113	1160.5
979.337	1153.5
979.56	1110.5
979.783	1233.5
980.007	1124.5
980.23	1147.5
980.453	1118.5
980.677	1151.5
980.9	1152.5
981.123	1060.5
981.346	1155.5
981.569	1125.5
981.792	1168.5
982.015	1114.5
982.238	1088.5
982.461	1110.5
982.684	1068.5
982.907	1068.5
983.129	1067.5
983.352	1136.5
983.575	1116.5
983.797	1141.5
984.02	1091.5
984.242	1090.5
984.465	1084.5
984.687	1118.5
984.91	1144.5
985.132	1115.5
985.354	1121.5
985.577	1103.5
985.799	1091.5
986.021	1022.5
986.243	1089.5
986.465	1085.5
986.687	1136.5
986.909	1178.5
987.131	1098.5
987.353	1051.5
987.575	1095.5
987.797	1059.5
988.019	1005.5
988.241	1099.5
988.462	1039.5
988.684	1093.5
988.906	1130.5
989.127	1147.5
989.349	1027.5
989.57	1056.5
989.792	1096.5
990.013	1100.5
990.234	1107.5
990.456	1147.5
990.677	1138.5
990.898	1068.5
991.119	1092.5
991.341	1123.5
991.562	1059.5
991.783	1085.5
992.004	1018.5
992.225	1020.5
992.446	1059.5
992.667	985.5
992.887	1075.5
993.108	989.5
993.329	1110.5
993.55	1065.5
993.77	989.5
993.991	1001.5
994.212	1065.5
994.432	1054.5
994.653	1040.5
994.873	1062.5
995.093	940.5
995.314	990.5
995.534	1063.5
995.754	1089.5
995.975	1120.5
996.195	1000.5
996.415	1059.5
996.635	1061.5
996.855	1055.5
997.075	1009.5
997.295	1034.5
997.515	1018.5
997.735	1049.5
997.955	1034.5
998.174	1017.5
998.394	1007.5
998.614	1035.5
998.834	1006.5
999.053	1093.5
999.273	1055.5
999.492	1101.5
999.712	1043.5
999.931	995.5
1000.151	1068.5
1000.37	1049.5
1000.589	1096.5
1000.809	1007.5
1001.028	1143.5
1001.247	1079.5
1001.466	973.5
1001.685	1099.5
1001.904	1076.5
1002.123	1023.5
1002.342	1077.5
1002.561	1040.5
1002.78	1077.5
1002.999	1119.5
1003.218	1067.5
1003.436	1063.5
1003.655	1106.5
1003.874	1050.5
1004.092	1074.5
1004.311	1099.5
1004.53	1072.5
1004.748	1148.5
1004.966	1079.5
1005.185	1134.5
1005.403	1136.5
1005.622	1095.5
1005.84	1169.5
1006.058	1096.5
1006.276	1118.5
1006.494	1576.5
1006.712	1095.5
1006.931	1139.5
1007.149	1081.5
1007.367	1069.5
1007.584	1106.5
1007.802	1120.5
1008.02	1086.5
1008.238	1186.5
1008.456	1165.5
1008.673	1058.5
1008.891	1155.5
1009.109	1098.5
1009.326	1153.5
1009.544	1230.5
1009.761	1141.5
1009.979	1215.5
1010.196	1221.5
1010.413	1302.5
1010.631	1326.5
1010.848	1353.5
1011.065	1367.5
1011.282	1287.5
1011.5	1240.5
1011.717	1352.5
1011.934	1299.5
1012.151	1345.5
1012.368	1305.5
1012.585	1268.5
1012.801	1321.5
1013.018	1294.5
1013.235	1287.5
1013.452	1297.5
1013.669	1302.5
1013.885	1295.5
1014.102	1319.5
1014.318	1284.5
1014.535	1213.5
1014.751	1280.5
1014.968	1301.5
1015.184	1341.5
1015.401	1238.5
1015.617	1288.5
1015.833	1224.5
1016.049	1236.5
1016.266	1226.5
1016.482	1236.5
1016.698	1157.5
1016.914	1221.5
1017.13	1183.5
1017.346	1189.5
1017.562	1252.5
1017.778	1199.5
1017.993	1140.5
1018.209	1216.5
1018.425	1204.5
1018.641	1159.5
1018.856	1103.5
1019.072	1170.5
1019.288	1227.5
1019.503	1160.5
1019.719	1084.5
1019.934	1122.5
1020.149	1207.5
1020.365	1154.5
1020.58	1113.5
1020.795	1148.5
1021.011	1089.5
1021.226	1071.5
1021.441	1111.5
1021.656	1031.5
1021.871	993.5
1022.086	989.5
1022.301	981.5
1022.516	980.5
1022.731	1025.5
1022.946	933.5
1023.16	934.5
1023.375	926.5
1023.59	886.5
1023.804	872.5
1024.019	984.5
1024.234	847.5
1024.448	870.5
1024.663	807.5
1024.877	846.5
1025.092	867.5
1025.306	858.5
1025.52	769.5
1025.734	868.5
1025.949	797.5
1026.163	789.5
1026.377	722.5
1026.591	773.5
1026.805	694.5
1027.019	702.5
1027.233	657.5
1027.447	644.5
1027.661	732.5
1027.875	676.5
1028.088	679.5
1028.302	611.5
1028.516	609.5
1028.73	624.5
1028.943	592.5
1029.157	574.5
1029.37	527.5
1029.584	1.5
1029.797	-3.5
1030.011	-6.5
1030.224	-0.5
