Data from QEP037381__288__11-08-36-590.txt Node

Date: Wed Dec 21 11:08:36 EST 2022
User: dcclab
Spectrometer: QEP03738
Trigger mode: 4
Integration Time (sec): 1.000000E1
Scans to average: 1
Electric dark correction enabled: true
Nonlinearity correction enabled: false
Boxcar width: 0
XAxis mode: Wavelengths
Number of Pixels in Spectrum: 1044
>>>>>Begin Spectral Data<<<<<
784.041	14.5
784.3	0.5
784.558	0.5
784.817	-6.5
785.075	106147.5
785.334	17980.5
785.592	8278.5
785.851	5723.5
786.109	4301.5
786.368	3318.5
786.626	2710.5
786.884	2233.5
787.143	1878.5
787.401	1552.5
787.659	1389.5
787.917	1172.5
788.175	1091.5
788.433	928.5
788.691	844.5
788.949	779.5
789.207	733.5
789.465	626.5
789.723	624.5
789.98	557.5
790.238	594.5
790.496	551.5
790.753	522.5
791.011	586.5
791.268	511.5
791.526	500.5
791.783	497.5
792.041	488.5
792.298	419.5
792.556	475.5
792.813	443.5
793.07	431.5
793.327	415.5
793.584	506.5
793.841	414.5
794.099	439.5
794.356	492.5
794.613	395.5
794.869	438.5
795.126	399.5
795.383	377.5
795.64	406.5
795.897	348.5
796.153	417.5
796.41	390.5
796.667	368.5
796.923	377.5
797.18	367.5
797.436	407.5
797.693	368.5
797.949	414.5
798.206	443.5
798.462	352.5
798.718	410.5
798.974	375.5
799.231	421.5
799.487	400.5
799.743	410.5
799.999	418.5
800.255	409.5
800.511	391.5
800.767	414.5
801.023	403.5
801.279	412.5
801.534	432.5
801.79	433.5
802.046	430.5
802.302	495.5
802.557	504.5
802.813	553.5
803.068	558.5
803.324	703.5
803.579	834.5
803.835	1053.5
804.09	1422.5
804.345	1790.5
804.601	2229.5
804.856	2689.5
805.111	3066.5
805.366	3376.5
805.621	3566.5
805.876	3700.5
806.131	3751.5
806.386	3834.5
806.641	3831.5
806.896	3923.5
807.151	4118.5
807.406	4112.5
807.661	4224.5
807.915	4212.5
808.17	4327.5
808.425	4422.5
808.679	4430.5
808.934	4554.5
809.188	4543.5
809.443	4628.5
809.697	4683.5
809.951	4674.5
810.206	4763.5
810.46	4869.5
810.714	4887.5
810.968	5015.5
811.223	4915.5
811.477	4990.5
811.731	5007.5
811.985	4989.5
812.239	5023.5
812.493	5117.5
812.747	5159.5
813	5094.5
813.254	5142.5
813.508	5257.5
813.762	5298.5
814.015	5290.5
814.269	5264.5
814.522	5369.5
814.776	5461.5
815.03	5497.5
815.283	5578.5
815.536	5722.5
815.79	5764.5
816.043	5872.5
816.296	5972.5
816.55	6072.5
816.803	6130.5
817.056	6276.5
817.309	6284.5
817.562	6342.5
817.815	6458.5
818.068	6466.5
818.321	6518.5
818.574	6640.5
818.827	6750.5
819.079	6800.5
819.332	7084.5
819.585	7142.5
819.838	7248.5
820.09	7225.5
820.343	7317.5
820.595	7296.5
820.848	7353.5
821.1	7418.5
821.353	7436.5
821.605	7362.5
821.857	7496.5
822.11	7308.5
822.362	7344.5
822.614	7345.5
822.866	7434.5
823.118	7338.5
823.37	7539.5
823.622	7485.5
823.874	7606.5
824.126	7631.5
824.378	7603.5
824.63	7609.5
824.882	7683.5
825.134	7582.5
825.385	7639.5
825.637	7595.5
825.888	7550.5
826.14	7494.5
826.392	7539.5
826.643	7421.5
826.895	7452.5
827.146	7390.5
827.397	7324.5
827.649	7435.5
827.9	7358.5
828.151	7405.5
828.402	7439.5
828.653	7452.5
828.905	7545.5
829.156	7540.5
829.407	7432.5
829.658	7547.5
829.909	7557.5
830.159	7535.5
830.41	7516.5
830.661	7536.5
830.912	7485.5
831.162	7408.5
831.413	7468.5
831.664	7532.5
831.914	7519.5
832.165	7476.5
832.415	7496.5
832.666	7512.5
832.916	7540.5
833.167	7471.5
833.417	7519.5
833.667	7520.5
833.917	7446.5
834.168	7525.5
834.418	7469.5
834.668	7472.5
834.918	7429.5
835.168	7454.5
835.418	7347.5
835.668	7371.5
835.918	7404.5
836.167	7382.5
836.417	7276.5
836.667	7386.5
836.917	7319.5
837.166	7314.5
837.416	7321.5
837.666	7360.5
837.915	7344.5
838.165	7314.5
838.414	7229.5
838.663	7222.5
838.913	7313.5
839.162	7232.5
839.411	7333.5
839.661	7295.5
839.91	7255.5
840.159	7223.5
840.408	7319.5
840.657	7357.5
840.906	7349.5
841.155	7327.5
841.404	7372.5
841.653	7380.5
841.902	7333.5
842.15	7395.5
842.399	7398.5
842.648	7362.5
842.897	7400.5
843.145	7241.5
843.394	7283.5
843.642	7217.5
843.891	7201.5
844.139	7151.5
844.388	7055.5
844.636	6996.5
844.884	7086.5
845.133	7075.5
845.381	7085.5
845.629	7202.5
845.877	7094.5
846.125	7106.5
846.373	7131.5
846.621	7078.5
846.869	7109.5
847.117	7006.5
847.365	6977.5
847.613	6984.5
847.861	6983.5
848.108	6965.5
848.356	6988.5
848.604	6974.5
848.851	7005.5
849.099	7019.5
849.346	6990.5
849.594	7150.5
849.841	7175.5
850.089	7259.5
850.336	7231.5
850.583	7323.5
850.831	7348.5
851.078	7374.5
851.325	7280.5
851.572	7408.5
851.819	7248.5
852.066	7031.5
852.313	6901.5
852.56	6767.5
852.807	6778.5
853.054	6689.5
853.301	6735.5
853.548	6767.5
853.794	6932.5
854.041	6829.5
854.288	6878.5
854.534	7038.5
854.781	6989.5
855.028	6923.5
855.274	7008.5
855.52	6940.5
855.767	6916.5
856.013	7001.5
856.26	7248.5
856.506	6841.5
856.752	6914.5
856.998	6861.5
857.244	6904.5
857.49	6979.5
857.736	6946.5
857.982	6958.5
858.228	6996.5
858.474	6889.5
858.72	6815.5
858.966	6732.5
859.212	6713.5
859.458	6684.5
859.703	6534.5
859.949	6490.5
860.195	6457.5
860.44	6509.5
860.686	6404.5
860.931	6474.5
861.177	6363.5
861.422	6441.5
861.667	6295.5
861.913	6316.5
862.158	6386.5
862.403	6438.5
862.648	6418.5
862.893	6469.5
863.138	6416.5
863.384	6423.5
863.629	6432.5
863.873	6432.5
864.118	6439.5
864.363	6319.5
864.608	6385.5
864.853	6375.5
865.098	6335.5
865.342	6315.5
865.587	6296.5
865.832	6323.5
866.076	6246.5
866.321	6294.5
866.565	6208.5
866.81	6220.5
867.054	6284.5
867.298	6256.5
867.543	6221.5
867.787	6233.5
868.031	6222.5
868.275	6255.5
868.519	6230.5
868.764	6261.5
869.008	6261.5
869.252	6280.5
869.496	6224.5
869.739	6268.5
869.983	6340.5
870.227	6304.5
870.471	6305.5
870.715	6392.5
870.958	6412.5
871.202	6404.5
871.446	6399.5
871.689	6368.5
871.933	6437.5
872.176	6358.5
872.42	6336.5
872.663	6305.5
872.906	6427.5
873.15	6357.5
873.393	6272.5
873.636	6367.5
873.879	6337.5
874.122	6342.5
874.366	6161.5
874.609	6073.5
874.852	6037.5
875.095	6083.5
875.337	5980.5
875.58	5954.5
875.823	5953.5
876.066	5984.5
876.309	6008.5
876.551	5917.5
876.794	5857.5
877.037	5919.5
877.279	5871.5
877.522	5804.5
877.764	5880.5
878.007	5803.5
878.249	5812.5
878.491	5763.5
878.734	5861.5
878.976	5865.5
879.218	5733.5
879.46	5800.5
879.702	5712.5
879.945	5676.5
880.187	5564.5
880.429	5614.5
880.671	5574.5
880.912	5555.5
881.154	5549.5
881.396	5419.5
881.638	5528.5
881.88	5553.5
882.121	5511.5
882.363	5509.5
882.605	5624.5
882.846	5558.5
883.088	5595.5
883.329	5576.5
883.571	5647.5
883.812	5676.5
884.053	5791.5
884.295	5964.5
884.536	6190.5
884.777	6114.5
885.018	6109.5
885.259	6043.5
885.5	5962.5
885.742	6259.5
885.982	6006.5
886.223	5876.5
886.464	5846.5
886.705	5698.5
886.946	5693.5
887.187	5592.5
887.428	5536.5
887.668	5385.5
887.909	5332.5
888.15	5227.5
888.39	5210.5
888.631	5196.5
888.871	5180.5
889.111	5092.5
889.352	5078.5
889.592	4985.5
889.833	5001.5
890.073	4924.5
890.313	4971.5
890.553	4869.5
890.793	4884.5
891.033	4880.5
891.273	4842.5
891.513	4810.5
891.753	4921.5
891.993	4820.5
892.233	4931.5
892.473	4937.5
892.713	4844.5
892.952	4873.5
893.192	4927.5
893.432	4967.5
893.671	4995.5
893.911	4991.5
894.15	4920.5
894.39	4808.5
894.629	4837.5
894.869	4850.5
895.108	4796.5
895.347	4764.5
895.587	4786.5
895.826	4766.5
896.065	4726.5
896.304	4784.5
896.543	4837.5
896.782	4725.5
897.021	4817.5
897.26	4817.5
897.499	4845.5
897.738	4882.5
897.977	4779.5
898.216	4738.5
898.454	4748.5
898.693	4719.5
898.932	4774.5
899.17	4716.5
899.409	4733.5
899.647	4723.5
899.886	4685.5
900.124	4732.5
900.363	4766.5
900.601	4756.5
900.839	4779.5
901.078	4844.5
901.316	4903.5
901.554	4939.5
901.792	4970.5
902.03	4983.5
902.268	4987.5
902.506	5051.5
902.744	4937.5
902.982	4905.5
903.22	4779.5
903.458	4662.5
903.695	4644.5
903.933	4521.5
904.171	4457.5
904.409	4348.5
904.646	4363.5
904.884	4229.5
905.121	4250.5
905.359	4163.5
905.596	4091.5
905.833	4019.5
906.071	4048.5
906.308	4091.5
906.545	4031.5
906.783	3928.5
907.02	3995.5
907.257	3952.5
907.494	3966.5
907.731	3985.5
907.968	3935.5
908.205	3893.5
908.442	3892.5
908.679	3906.5
908.915	3814.5
909.152	3832.5
909.389	3725.5
909.626	3747.5
909.862	3723.5
910.099	3731.5
910.335	3770.5
910.572	3632.5
910.808	3656.5
911.045	3645.5
911.281	3646.5
911.518	3665.5
911.754	3686.5
911.99	3687.5
912.226	3607.5
912.463	3535.5
912.699	3557.5
912.935	3533.5
913.171	3489.5
913.407	3489.5
913.643	3484.5
913.879	3477.5
914.114	3440.5
914.35	3373.5
914.586	3365.5
914.822	3329.5
915.057	3359.5
915.293	3230.5
915.529	3238.5
915.764	3336.5
916	3282.5
916.235	3242.5
916.471	3337.5
916.706	3246.5
916.941	3240.5
917.177	3244.5
917.412	3277.5
917.647	3292.5
917.882	3216.5
918.117	3281.5
918.352	3260.5
918.588	3298.5
918.823	3197.5
919.057	3203.5
919.292	3098.5
919.527	3173.5
919.762	3122.5
919.997	3159.5
920.232	3072.5
920.466	3102.5
920.701	2965.5
920.935	3014.5
921.17	3019.5
921.405	2994.5
921.639	3029.5
921.873	2988.5
922.108	2974.5
922.342	2985.5
922.576	2925.5
922.811	2923.5
923.045	2978.5
923.279	2993.5
923.513	2872.5
923.747	2984.5
923.981	2893.5
924.215	2887.5
924.449	2853.5
924.683	2815.5
924.917	2848.5
925.151	2832.5
925.385	2884.5
925.618	2840.5
925.852	2875.5
926.086	2733.5
926.319	2837.5
926.553	2805.5
926.786	2847.5
927.02	2839.5
927.253	2861.5
927.486	2860.5
927.72	2792.5
927.953	2826.5
928.186	2796.5
928.42	2845.5
928.653	2749.5
928.886	2780.5
929.119	2812.5
929.352	2770.5
929.585	2729.5
929.818	2719.5
930.051	2733.5
930.284	2726.5
930.516	2631.5
930.749	2653.5
930.982	2692.5
931.215	2662.5
931.447	2617.5
931.68	2647.5
931.912	2597.5
932.145	2640.5
932.377	2639.5
932.61	2760.5
932.842	2619.5
933.074	2623.5
933.307	2615.5
933.539	2721.5
933.771	2684.5
934.003	2644.5
934.236	2738.5
934.468	2742.5
934.7	2651.5
934.932	2650.5
935.164	2611.5
935.395	2583.5
935.627	2646.5
935.859	2644.5
936.091	2603.5
936.323	2633.5
936.554	2653.5
936.786	2637.5
937.017	2524.5
937.249	2648.5
937.481	2546.5
937.712	2631.5
937.943	2594.5
938.175	2594.5
938.406	2544.5
938.637	2615.5
938.869	2527.5
939.1	2613.5
939.331	2565.5
939.562	2605.5
939.793	2602.5
940.024	2612.5
940.255	2621.5
940.486	2517.5
940.717	2547.5
940.948	2555.5
941.179	2506.5
941.409	2512.5
941.64	2522.5
941.871	2502.5
942.102	2508.5
942.332	2536.5
942.563	2540.5
942.793	2541.5
943.024	2484.5
943.254	2518.5
943.484	2575.5
943.715	2563.5
943.945	2562.5
944.175	2468.5
944.405	2463.5
944.636	2468.5
944.866	2538.5
945.096	2549.5
945.326	2462.5
945.556	2526.5
945.786	2520.5
946.016	2479.5
946.245	2439.5
946.475	2430.5
946.705	2443.5
946.935	2437.5
947.164	2466.5
947.394	2404.5
947.624	2423.5
947.853	2456.5
948.083	2404.5
948.312	2384.5
948.542	2308.5
948.771	2294.5
949	2340.5
949.23	2347.5
949.459	2372.5
949.688	2421.5
949.917	2390.5
950.146	2350.5
950.375	2449.5
950.604	2338.5
950.833	2427.5
951.062	2389.5
951.291	2380.5
951.52	2322.5
951.749	2383.5
951.978	2318.5
952.206	2328.5
952.435	2335.5
952.664	2370.5
952.892	2374.5
953.121	2332.5
953.349	2354.5
953.578	2359.5
953.806	2314.5
954.035	2278.5
954.263	2316.5
954.491	2240.5
954.719	2292.5
954.948	2258.5
955.176	2255.5
955.404	2192.5
955.632	2263.5
955.86	2238.5
956.088	2239.5
956.316	2261.5
956.544	2282.5
956.772	2253.5
956.999	2195.5
957.227	2273.5
957.455	2162.5
957.683	2220.5
957.91	2195.5
958.138	2165.5
958.365	2153.5
958.593	2155.5
958.82	2091.5
959.048	2225.5
959.275	2134.5
959.502	2134.5
959.73	2109.5
959.957	2147.5
960.184	2196.5
960.411	2113.5
960.638	2229.5
960.865	2149.5
961.092	2159.5
961.319	2058.5
961.546	2212.5
961.773	2187.5
962	2145.5
962.227	2158.5
962.454	2155.5
962.68	2119.5
962.907	2129.5
963.134	2067.5
963.36	2083.5
963.587	2107.5
963.813	2079.5
964.04	2100.5
964.266	2039.5
964.493	2127.5
964.719	2085.5
964.945	2084.5
965.171	1985.5
965.398	2028.5
965.624	2029.5
965.85	1984.5
966.076	1970.5
966.302	2033.5
966.528	1991.5
966.754	2031.5
966.98	2023.5
967.206	2025.5
967.431	1930.5
967.657	2023.5
967.883	2016.5
968.109	1996.5
968.334	1951.5
968.56	1947.5
968.785	1987.5
969.011	1890.5
969.236	1971.5
969.462	1893.5
969.687	1928.5
969.912	1972.5
970.138	2020.5
970.363	1897.5
970.588	1926.5
970.813	1902.5
971.038	1889.5
971.263	1943.5
971.488	1940.5
971.713	1961.5
971.938	1933.5
972.163	1858.5
972.388	1883.5
972.613	1881.5
972.838	1898.5
973.062	1858.5
973.287	1879.5
973.512	1799.5
973.736	1875.5
973.961	1814.5
974.185	1813.5
974.41	1832.5
974.634	1779.5
974.858	1766.5
975.083	1833.5
975.307	1858.5
975.531	1773.5
975.755	1710.5
975.98	1741.5
976.204	1708.5
976.428	1710.5
976.652	1724.5
976.876	1663.5
977.1	1718.5
977.324	1683.5
977.547	1749.5
977.771	1736.5
977.995	1723.5
978.219	1683.5
978.442	1777.5
978.666	1737.5
978.89	1705.5
979.113	1704.5
979.337	1715.5
979.56	1672.5
979.783	1743.5
980.007	1681.5
980.23	1694.5
980.453	1652.5
980.677	1679.5
980.9	1690.5
981.123	1605.5
981.346	1676.5
981.569	1637.5
981.792	1693.5
982.015	1638.5
982.238	1611.5
982.461	1639.5
982.684	1603.5
982.907	1600.5
983.129	1593.5
983.352	1646.5
983.575	1594.5
983.797	1623.5
984.02	1567.5
984.242	1580.5
984.465	1592.5
984.687	1631.5
984.91	1646.5
985.132	1616.5
985.354	1597.5
985.577	1594.5
985.799	1600.5
986.021	1525.5
986.243	1561.5
986.465	1551.5
986.687	1599.5
986.909	1656.5
987.131	1564.5
987.353	1555.5
987.575	1581.5
987.797	1550.5
988.019	1491.5
988.241	1540.5
988.462	1503.5
988.684	1574.5
988.906	1591.5
989.127	1630.5
989.349	1494.5
989.57	1524.5
989.792	1570.5
990.013	1599.5
990.234	1581.5
990.456	1607.5
990.677	1579.5
990.898	1537.5
991.119	1534.5
991.341	1572.5
991.562	1513.5
991.783	1520.5
992.004	1488.5
992.225	1442.5
992.446	1511.5
992.667	1410.5
992.887	1488.5
993.108	1419.5
993.329	1534.5
993.55	1487.5
993.77	1415.5
993.991	1451.5
994.212	1468.5
994.432	1478.5
994.653	1490.5
994.873	1458.5
995.093	1348.5
995.314	1405.5
995.534	1497.5
995.754	1484.5
995.975	1507.5
996.195	1408.5
996.415	1444.5
996.635	1441.5
996.855	1478.5
997.075	1426.5
997.295	1435.5
997.515	1402.5
997.735	1490.5
997.955	1431.5
998.174	1422.5
998.394	1393.5
998.614	1452.5
998.834	1417.5
999.053	1490.5
999.273	1447.5
999.492	1506.5
999.712	1431.5
999.931	1409.5
1000.151	1449.5
1000.37	1400.5
1000.589	1483.5
1000.809	1384.5
1001.028	1507.5
1001.247	1444.5
1001.466	1328.5
1001.685	1485.5
1001.904	1429.5
1002.123	1416.5
1002.342	1414.5
1002.561	1385.5
1002.78	1390.5
1002.999	1469.5
1003.218	1418.5
1003.436	1371.5
1003.655	1431.5
1003.874	1359.5
1004.092	1422.5
1004.311	1446.5
1004.53	1413.5
1004.748	1481.5
1004.966	1410.5
1005.185	1459.5
1005.403	1460.5
1005.622	1427.5
1005.84	1499.5
1006.058	1415.5
1006.276	1451.5
1006.494	1928.5
1006.712	1425.5
1006.931	1470.5
1007.149	1419.5
1007.367	1429.5
1007.584	1457.5
1007.802	1504.5
1008.02	1428.5
1008.238	1554.5
1008.456	1526.5
1008.673	1429.5
1008.891	1564.5
1009.109	1496.5
1009.326	1566.5
1009.544	1650.5
1009.761	1589.5
1009.979	1673.5
1010.196	1702.5
1010.413	1825.5
1010.631	1877.5
1010.848	1976.5
1011.065	1956.5
1011.282	1906.5
1011.5	1897.5
1011.717	1988.5
1011.934	1894.5
1012.151	1956.5
1012.368	1930.5
1012.585	1901.5
1012.801	1954.5
1013.018	1929.5
1013.235	1890.5
1013.452	1920.5
1013.669	1945.5
1013.885	1931.5
1014.102	1961.5
1014.318	1965.5
1014.535	1907.5
1014.751	1951.5
1014.968	1942.5
1015.184	1947.5
1015.401	1885.5
1015.617	1934.5
1015.833	1860.5
1016.049	1863.5
1016.266	1841.5
1016.482	1869.5
1016.698	1759.5
1016.914	1814.5
1017.13	1740.5
1017.346	1775.5
1017.562	1840.5
1017.778	1779.5
1017.993	1782.5
1018.209	1813.5
1018.425	1793.5
1018.641	1741.5
1018.856	1736.5
1019.072	1776.5
1019.288	1838.5
1019.503	1763.5
1019.719	1708.5
1019.934	1695.5
1020.149	1796.5
1020.365	1715.5
1020.58	1670.5
1020.795	1711.5
1021.011	1644.5
1021.226	1603.5
1021.441	1606.5
1021.656	1511.5
1021.871	1455.5
1022.086	1404.5
1022.301	1426.5
1022.516	1392.5
1022.731	1475.5
1022.946	1350.5
1023.16	1331.5
1023.375	1319.5
1023.59	1285.5
1023.804	1221.5
1024.019	1365.5
1024.234	1196.5
1024.448	1226.5
1024.663	1159.5
1024.877	1171.5
1025.092	1185.5
1025.306	1209.5
1025.52	1098.5
1025.734	1170.5
1025.949	1082.5
1026.163	1049.5
1026.377	981.5
1026.591	1038.5
1026.805	972.5
1027.019	959.5
1027.233	915.5
1027.447	871.5
1027.661	969.5
1027.875	903.5
1028.088	929.5
1028.302	835.5
1028.516	799.5
1028.73	808.5
1028.943	794.5
1029.157	746.5
1029.37	691.5
1029.584	1.5
1029.797	-4.5
1030.011	-0.5
1030.224	-5.5
