Data from QEP037381__269__11-05-26-587.txt Node

Date: Wed Dec 21 11:05:26 EST 2022
User: dcclab
Spectrometer: QEP03738
Trigger mode: 4
Integration Time (sec): 1.000000E1
Scans to average: 1
Electric dark correction enabled: true
Nonlinearity correction enabled: false
Boxcar width: 0
XAxis mode: Wavelengths
Number of Pixels in Spectrum: 1044
>>>>>Begin Spectral Data<<<<<
784.041	13.62
784.3	1.62
784.558	-3.38
784.817	-5.38
785.075	95656.62
785.334	16359.62
785.592	7654.62
785.851	5192.62
786.109	3961.62
786.368	3106.62
786.626	2481.62
786.884	2081.62
787.143	1737.62
787.401	1429.62
787.659	1286.62
787.917	1094.62
788.175	1024.62
788.433	888.62
788.691	817.62
788.949	738.62
789.207	706.62
789.465	614.62
789.723	590.62
789.98	557.62
790.238	592.62
790.496	555.62
790.753	522.62
791.011	576.62
791.268	492.62
791.526	503.62
791.783	504.62
792.041	492.62
792.298	406.62
792.556	460.62
792.813	444.62
793.07	432.62
793.327	410.62
793.584	479.62
793.841	403.62
794.099	421.62
794.356	495.62
794.613	402.62
794.869	434.62
795.126	398.62
795.383	366.62
795.64	386.62
795.897	337.62
796.153	396.62
796.41	380.62
796.667	373.62
796.923	378.62
797.18	376.62
797.436	386.62
797.693	335.62
797.949	404.62
798.206	429.62
798.462	341.62
798.718	400.62
798.974	369.62
799.231	414.62
799.487	382.62
799.743	392.62
799.999	417.62
800.255	401.62
800.511	378.62
800.767	412.62
801.023	389.62
801.279	389.62
801.534	412.62
801.79	425.62
802.046	405.62
802.302	461.62
802.557	464.62
802.813	511.62
803.068	510.62
803.324	644.62
803.579	758.62
803.835	921.62
804.09	1230.62
804.345	1508.62
804.601	1865.62
804.856	2287.62
805.111	2617.62
805.366	2832.62
805.621	2973.62
805.876	3100.62
806.131	3115.62
806.386	3152.62
806.641	3178.62
806.896	3274.62
807.151	3401.62
807.406	3377.62
807.661	3425.62
807.915	3499.62
808.17	3558.62
808.425	3580.62
808.679	3611.62
808.934	3783.62
809.188	3737.62
809.443	3808.62
809.697	3857.62
809.951	3862.62
810.206	3896.62
810.46	3985.62
810.714	4026.62
810.968	4064.62
811.223	3957.62
811.477	4114.62
811.731	4144.62
811.985	4097.62
812.239	4088.62
812.493	4204.62
812.747	4192.62
813	4105.62
813.254	4227.62
813.508	4268.62
813.762	4237.62
814.015	4251.62
814.269	4324.62
814.522	4351.62
814.776	4443.62
815.03	4489.62
815.283	4521.62
815.536	4591.62
815.79	4757.62
816.043	4734.62
816.296	4799.62
816.55	4849.62
816.803	4874.62
817.056	5059.62
817.309	5072.62
817.562	5125.62
817.815	5233.62
818.068	5146.62
818.321	5217.62
818.574	5326.62
818.827	5434.62
819.079	5460.62
819.332	5668.62
819.585	5679.62
819.838	5758.62
820.09	5753.62
820.343	5819.62
820.595	5810.62
820.848	5827.62
821.1	5907.62
821.353	5931.62
821.605	5874.62
821.857	5918.62
822.11	5780.62
822.362	5866.62
822.614	5834.62
822.866	5823.62
823.118	5885.62
823.37	5985.62
823.622	5925.62
823.874	5960.62
824.126	6031.62
824.378	5957.62
824.63	6061.62
824.882	6056.62
825.134	6008.62
825.385	6002.62
825.637	5969.62
825.888	5989.62
826.14	5949.62
826.392	5884.62
826.643	5805.62
826.895	5881.62
827.146	5753.62
827.397	5815.62
827.649	5858.62
827.9	5767.62
828.151	5803.62
828.402	5800.62
828.653	5800.62
828.905	5855.62
829.156	5865.62
829.407	5831.62
829.658	5835.62
829.909	5931.62
830.159	5917.62
830.41	5959.62
830.661	5833.62
830.912	5782.62
831.162	5798.62
831.413	5803.62
831.664	5902.62
831.914	5845.62
832.165	5802.62
832.415	5864.62
832.666	5871.62
832.916	5857.62
833.167	5784.62
833.417	5891.62
833.667	5788.62
833.917	5847.62
834.168	5863.62
834.418	5885.62
834.668	5851.62
834.918	5796.62
835.168	5847.62
835.418	5746.62
835.668	5730.62
835.918	5782.62
836.167	5761.62
836.417	5658.62
836.667	5792.62
836.917	5750.62
837.166	5630.62
837.416	5721.62
837.666	5662.62
837.915	5703.62
838.165	5624.62
838.414	5562.62
838.663	5581.62
838.913	5602.62
839.162	5583.62
839.411	5670.62
839.661	5565.62
839.91	5605.62
840.159	5653.62
840.408	5687.62
840.657	5664.62
840.906	5702.62
841.155	5683.62
841.404	5671.62
841.653	5622.62
841.902	5630.62
842.15	5654.62
842.399	5716.62
842.648	5631.62
842.897	5714.62
843.145	5548.62
843.394	5529.62
843.642	5494.62
843.891	5580.62
844.139	5456.62
844.388	5424.62
844.636	5403.62
844.884	5429.62
845.133	5467.62
845.381	5396.62
845.629	5452.62
845.877	5455.62
846.125	5421.62
846.373	5438.62
846.621	5379.62
846.869	5444.62
847.117	5381.62
847.365	5380.62
847.613	5332.62
847.861	5316.62
848.108	5366.62
848.356	5325.62
848.604	5325.62
848.851	5379.62
849.099	5415.62
849.346	5374.62
849.594	5442.62
849.841	5520.62
850.089	5520.62
850.336	5537.62
850.583	5608.62
850.831	5676.62
851.078	5578.62
851.325	5562.62
851.572	5729.62
851.819	5621.62
852.066	5413.62
852.313	5204.62
852.56	5208.62
852.807	5072.62
853.054	5084.62
853.301	5156.62
853.548	5180.62
853.794	5318.62
854.041	5250.62
854.288	5244.62
854.534	5386.62
854.781	5324.62
855.028	5282.62
855.274	5323.62
855.52	5274.62
855.767	5206.62
856.013	5271.62
856.26	5588.62
856.506	5235.62
856.752	5279.62
856.998	5172.62
857.244	5206.62
857.49	5303.62
857.736	5303.62
857.982	5242.62
858.228	5288.62
858.474	5164.62
858.72	5175.62
858.966	5142.62
859.212	5058.62
859.458	5032.62
859.703	4980.62
859.949	4894.62
860.195	4966.62
860.44	4903.62
860.686	4865.62
860.931	4880.62
861.177	4791.62
861.422	4877.62
861.667	4782.62
861.913	4804.62
862.158	4780.62
862.403	4840.62
862.648	4836.62
862.893	4929.62
863.138	4876.62
863.384	4813.62
863.629	4864.62
863.873	4809.62
864.118	4838.62
864.363	4773.62
864.608	4817.62
864.853	4817.62
865.098	4720.62
865.342	4737.62
865.587	4738.62
865.832	4731.62
866.076	4735.62
866.321	4736.62
866.565	4740.62
866.81	4671.62
867.054	4686.62
867.298	4695.62
867.543	4637.62
867.787	4739.62
868.031	4691.62
868.275	4687.62
868.519	4661.62
868.764	4727.62
869.008	4644.62
869.252	4736.62
869.496	4687.62
869.739	4683.62
869.983	4747.62
870.227	4697.62
870.471	4664.62
870.715	4713.62
870.958	4839.62
871.202	4746.62
871.446	4762.62
871.689	4700.62
871.933	4779.62
872.176	4718.62
872.42	4744.62
872.663	4694.62
872.906	4791.62
873.15	4732.62
873.393	4641.62
873.636	4780.62
873.879	4737.62
874.122	4686.62
874.366	4556.62
874.609	4563.62
874.852	4515.62
875.095	4519.62
875.337	4483.62
875.58	4400.62
875.823	4463.62
876.066	4457.62
876.309	4479.62
876.551	4375.62
876.794	4327.62
877.037	4379.62
877.279	4313.62
877.522	4347.62
877.764	4393.62
878.007	4352.62
878.249	4365.62
878.491	4317.62
878.734	4386.62
878.976	4404.62
879.218	4303.62
879.46	4285.62
879.702	4253.62
879.945	4237.62
880.187	4187.62
880.429	4190.62
880.671	4123.62
880.912	4118.62
881.154	4104.62
881.396	4080.62
881.638	4123.62
881.88	4089.62
882.121	4093.62
882.363	4134.62
882.605	4176.62
882.846	4112.62
883.088	4182.62
883.329	4090.62
883.571	4104.62
883.812	4202.62
884.053	4301.62
884.295	4387.62
884.536	4610.62
884.777	4507.62
885.018	4482.62
885.259	4496.62
885.5	4435.62
885.742	4607.62
885.982	4438.62
886.223	4337.62
886.464	4286.62
886.705	4143.62
886.946	4205.62
887.187	4057.62
887.428	4112.62
887.668	3988.62
887.909	3946.62
888.15	3854.62
888.39	3904.62
888.631	3889.62
888.871	3833.62
889.111	3801.62
889.352	3818.62
889.592	3722.62
889.833	3720.62
890.073	3672.62
890.313	3687.62
890.553	3601.62
890.793	3632.62
891.033	3609.62
891.273	3579.62
891.513	3591.62
891.753	3626.62
891.993	3575.62
892.233	3633.62
892.473	3701.62
892.713	3653.62
892.952	3616.62
893.192	3686.62
893.432	3607.62
893.671	3705.62
893.911	3649.62
894.15	3653.62
894.39	3560.62
894.629	3545.62
894.869	3577.62
895.108	3545.62
895.347	3487.62
895.587	3554.62
895.826	3544.62
896.065	3496.62
896.304	3562.62
896.543	3586.62
896.782	3472.62
897.021	3531.62
897.26	3570.62
897.499	3628.62
897.738	3679.62
897.977	3585.62
898.216	3572.62
898.454	3552.62
898.693	3459.62
898.932	3525.62
899.17	3465.62
899.409	3475.62
899.647	3483.62
899.886	3434.62
900.124	3528.62
900.363	3505.62
900.601	3538.62
900.839	3543.62
901.078	3574.62
901.316	3556.62
901.554	3646.62
901.792	3634.62
902.03	3595.62
902.268	3686.62
902.506	3677.62
902.744	3567.62
902.982	3636.62
903.22	3437.62
903.458	3427.62
903.695	3361.62
903.933	3371.62
904.171	3271.62
904.409	3198.62
904.646	3209.62
904.884	3114.62
905.121	3140.62
905.359	3072.62
905.596	2998.62
905.833	2957.62
906.071	2955.62
906.308	2985.62
906.545	2996.62
906.783	2934.62
907.02	2946.62
907.257	2925.62
907.494	2942.62
907.731	2915.62
907.968	2929.62
908.205	2857.62
908.442	2835.62
908.679	2857.62
908.915	2826.62
909.152	2834.62
909.389	2735.62
909.626	2729.62
909.862	2729.62
910.099	2752.62
910.335	2747.62
910.572	2647.62
910.808	2701.62
911.045	2677.62
911.281	2656.62
911.518	2707.62
911.754	2641.62
911.99	2630.62
912.226	2616.62
912.463	2619.62
912.699	2606.62
912.935	2584.62
913.171	2555.62
913.407	2533.62
913.643	2561.62
913.879	2530.62
914.114	2487.62
914.35	2495.62
914.586	2499.62
914.822	2421.62
915.057	2494.62
915.293	2370.62
915.529	2368.62
915.764	2453.62
916	2404.62
916.235	2428.62
916.471	2444.62
916.706	2339.62
916.941	2363.62
917.177	2350.62
917.412	2403.62
917.647	2424.62
917.882	2366.62
918.117	2428.62
918.352	2413.62
918.588	2419.62
918.823	2359.62
919.057	2358.62
919.292	2262.62
919.527	2360.62
919.762	2280.62
919.997	2351.62
920.232	2235.62
920.466	2295.62
920.701	2175.62
920.935	2211.62
921.17	2190.62
921.405	2118.62
921.639	2225.62
921.873	2182.62
922.108	2209.62
922.342	2180.62
922.576	2142.62
922.811	2170.62
923.045	2189.62
923.279	2217.62
923.513	2093.62
923.747	2151.62
923.981	2161.62
924.215	2126.62
924.449	2139.62
924.683	2058.62
924.917	2089.62
925.151	2045.62
925.385	2143.62
925.618	2087.62
925.852	2072.62
926.086	2025.62
926.319	2061.62
926.553	2061.62
926.786	2083.62
927.02	2047.62
927.253	2108.62
927.486	2122.62
927.72	2023.62
927.953	2084.62
928.186	2066.62
928.42	2063.62
928.653	1995.62
928.886	2031.62
929.119	2074.62
929.352	2051.62
929.585	2041.62
929.818	1969.62
930.051	2031.62
930.284	2039.62
930.516	1930.62
930.749	1934.62
930.982	2002.62
931.215	2001.62
931.447	1901.62
931.68	1934.62
931.912	1918.62
932.145	1943.62
932.377	1949.62
932.61	2072.62
932.842	1842.62
933.074	1960.62
933.307	1885.62
933.539	2022.62
933.771	1969.62
934.003	1911.62
934.236	2002.62
934.468	2023.62
934.7	1931.62
934.932	1983.62
935.164	1942.62
935.395	1908.62
935.627	1942.62
935.859	1968.62
936.091	1907.62
936.323	1941.62
936.554	1959.62
936.786	1926.62
937.017	1848.62
937.249	1934.62
937.481	1857.62
937.712	1925.62
937.943	1904.62
938.175	1872.62
938.406	1888.62
938.637	1940.62
938.869	1864.62
939.1	1907.62
939.331	1860.62
939.562	1912.62
939.793	1886.62
940.024	1928.62
940.255	1934.62
940.486	1865.62
940.717	1879.62
940.948	1891.62
941.179	1790.62
941.409	1820.62
941.64	1841.62
941.871	1846.62
942.102	1826.62
942.332	1856.62
942.563	1905.62
942.793	1860.62
943.024	1803.62
943.254	1852.62
943.484	1892.62
943.715	1896.62
943.945	1861.62
944.175	1764.62
944.405	1797.62
944.636	1788.62
944.866	1861.62
945.096	1866.62
945.326	1784.62
945.556	1853.62
945.786	1835.62
946.016	1819.62
946.245	1763.62
946.475	1793.62
946.705	1794.62
946.935	1781.62
947.164	1777.62
947.394	1742.62
947.624	1757.62
947.853	1812.62
948.083	1772.62
948.312	1759.62
948.542	1719.62
948.771	1689.62
949	1698.62
949.23	1722.62
949.459	1750.62
949.688	1783.62
949.917	1721.62
950.146	1722.62
950.375	1776.62
950.604	1714.62
950.833	1788.62
951.062	1789.62
951.291	1748.62
951.52	1713.62
951.749	1685.62
951.978	1688.62
952.206	1682.62
952.435	1676.62
952.664	1723.62
952.892	1750.62
953.121	1709.62
953.349	1739.62
953.578	1722.62
953.806	1697.62
954.035	1644.62
954.263	1692.62
954.491	1651.62
954.719	1700.62
954.948	1649.62
955.176	1652.62
955.404	1603.62
955.632	1669.62
955.86	1637.62
956.088	1664.62
956.316	1676.62
956.544	1703.62
956.772	1632.62
956.999	1599.62
957.227	1695.62
957.455	1605.62
957.683	1627.62
957.91	1591.62
958.138	1569.62
958.365	1589.62
958.593	1567.62
958.82	1528.62
959.048	1616.62
959.275	1605.62
959.502	1551.62
959.73	1565.62
959.957	1584.62
960.184	1627.62
960.411	1617.62
960.638	1654.62
960.865	1575.62
961.092	1613.62
961.319	1506.62
961.546	1615.62
961.773	1625.62
962	1568.62
962.227	1622.62
962.454	1580.62
962.68	1546.62
962.907	1577.62
963.134	1533.62
963.36	1560.62
963.587	1557.62
963.813	1499.62
964.04	1545.62
964.266	1489.62
964.493	1586.62
964.719	1553.62
964.945	1569.62
965.171	1453.62
965.398	1549.62
965.624	1553.62
965.85	1436.62
966.076	1485.62
966.302	1526.62
966.528	1454.62
966.754	1499.62
966.98	1530.62
967.206	1512.62
967.431	1420.62
967.657	1510.62
967.883	1503.62
968.109	1475.62
968.334	1424.62
968.56	1418.62
968.785	1454.62
969.011	1419.62
969.236	1459.62
969.462	1431.62
969.687	1420.62
969.912	1468.62
970.138	1494.62
970.363	1407.62
970.588	1440.62
970.813	1424.62
971.038	1436.62
971.263	1441.62
971.488	1454.62
971.713	1456.62
971.938	1437.62
972.163	1341.62
972.388	1403.62
972.613	1390.62
972.838	1416.62
973.062	1400.62
973.287	1399.62
973.512	1319.62
973.736	1380.62
973.961	1363.62
974.185	1360.62
974.41	1405.62
974.634	1310.62
974.858	1343.62
975.083	1386.62
975.307	1416.62
975.531	1312.62
975.755	1295.62
975.98	1300.62
976.204	1249.62
976.428	1243.62
976.652	1284.62
976.876	1256.62
977.1	1301.62
977.324	1241.62
977.547	1295.62
977.771	1346.62
977.995	1270.62
978.219	1213.62
978.442	1326.62
978.666	1301.62
978.89	1263.62
979.113	1277.62
979.337	1268.62
979.56	1239.62
979.783	1337.62
980.007	1235.62
980.23	1254.62
980.453	1228.62
980.677	1266.62
980.9	1253.62
981.123	1186.62
981.346	1261.62
981.569	1263.62
981.792	1285.62
982.015	1230.62
982.238	1227.62
982.461	1246.62
982.684	1192.62
982.907	1203.62
983.129	1183.62
983.352	1252.62
983.575	1219.62
983.797	1222.62
984.02	1193.62
984.242	1187.62
984.465	1200.62
984.687	1246.62
984.91	1252.62
985.132	1224.62
985.354	1251.62
985.577	1204.62
985.799	1192.62
986.021	1123.62
986.243	1152.62
986.465	1195.62
986.687	1231.62
986.909	1245.62
987.131	1198.62
987.353	1173.62
987.575	1209.62
987.797	1166.62
988.019	1102.62
988.241	1186.62
988.462	1151.62
988.684	1206.62
988.906	1221.62
989.127	1261.62
989.349	1143.62
989.57	1173.62
989.792	1201.62
990.013	1235.62
990.234	1238.62
990.456	1279.62
990.677	1243.62
990.898	1161.62
991.119	1186.62
991.341	1213.62
991.562	1141.62
991.783	1193.62
992.004	1139.62
992.225	1111.62
992.446	1179.62
992.667	1116.62
992.887	1184.62
993.108	1090.62
993.329	1209.62
993.55	1164.62
993.77	1108.62
993.991	1099.62
994.212	1136.62
994.432	1150.62
994.653	1167.62
994.873	1156.62
995.093	1052.62
995.314	1089.62
995.534	1141.62
995.754	1176.62
995.975	1187.62
996.195	1081.62
996.415	1158.62
996.635	1127.62
996.855	1144.62
997.075	1109.62
997.295	1133.62
997.515	1121.62
997.735	1167.62
997.955	1115.62
998.174	1140.62
998.394	1086.62
998.614	1135.62
998.834	1104.62
999.053	1188.62
999.273	1136.62
999.492	1202.62
999.712	1127.62
999.931	1123.62
1000.151	1142.62
1000.37	1112.62
1000.589	1198.62
1000.809	1114.62
1001.028	1246.62
1001.247	1157.62
1001.466	1056.62
1001.685	1201.62
1001.904	1167.62
1002.123	1158.62
1002.342	1156.62
1002.561	1107.62
1002.78	1143.62
1002.999	1211.62
1003.218	1146.62
1003.436	1130.62
1003.655	1172.62
1003.874	1131.62
1004.092	1135.62
1004.311	1191.62
1004.53	1140.62
1004.748	1232.62
1004.966	1153.62
1005.185	1233.62
1005.403	1203.62
1005.622	1186.62
1005.84	1244.62
1006.058	1146.62
1006.276	1170.62
1006.494	1667.62
1006.712	1188.62
1006.931	1262.62
1007.149	1148.62
1007.367	1154.62
1007.584	1190.62
1007.802	1235.62
1008.02	1181.62
1008.238	1281.62
1008.456	1264.62
1008.673	1156.62
1008.891	1250.62
1009.109	1199.62
1009.326	1245.62
1009.544	1337.62
1009.761	1245.62
1009.979	1324.62
1010.196	1354.62
1010.413	1464.62
1010.631	1494.62
1010.848	1525.62
1011.065	1519.62
1011.282	1483.62
1011.5	1432.62
1011.717	1562.62
1011.934	1484.62
1012.151	1499.62
1012.368	1486.62
1012.585	1432.62
1012.801	1495.62
1013.018	1466.62
1013.235	1428.62
1013.452	1441.62
1013.669	1458.62
1013.885	1428.62
1014.102	1503.62
1014.318	1453.62
1014.535	1452.62
1014.751	1482.62
1014.968	1474.62
1015.184	1489.62
1015.401	1417.62
1015.617	1436.62
1015.833	1383.62
1016.049	1407.62
1016.266	1382.62
1016.482	1410.62
1016.698	1329.62
1016.914	1387.62
1017.13	1339.62
1017.346	1327.62
1017.562	1402.62
1017.778	1337.62
1017.993	1327.62
1018.209	1382.62
1018.425	1356.62
1018.641	1309.62
1018.856	1317.62
1019.072	1329.62
1019.288	1378.62
1019.503	1348.62
1019.719	1241.62
1019.934	1270.62
1020.149	1365.62
1020.365	1294.62
1020.58	1233.62
1020.795	1290.62
1021.011	1204.62
1021.226	1185.62
1021.441	1251.62
1021.656	1170.62
1021.871	1078.62
1022.086	1095.62
1022.301	1078.62
1022.516	1107.62
1022.731	1123.62
1022.946	1058.62
1023.16	1065.62
1023.375	1020.62
1023.59	1006.62
1023.804	966.62
1024.019	1068.62
1024.234	934.62
1024.448	987.62
1024.663	908.62
1024.877	939.62
1025.092	960.62
1025.306	950.62
1025.52	857.62
1025.734	952.62
1025.949	879.62
1026.163	863.62
1026.377	789.62
1026.591	838.62
1026.805	772.62
1027.019	786.62
1027.233	749.62
1027.447	693.62
1027.661	798.62
1027.875	746.62
1028.088	749.62
1028.302	672.62
1028.516	676.62
1028.73	680.62
1028.943	677.62
1029.157	616.62
1029.37	586.62
1029.584	-3.38
1029.797	-1.38
1030.011	0.62
1030.224	-2.38
