Data from QEP037381__267__11-05-06-588.txt Node

Date: Wed Dec 21 11:05:06 EST 2022
User: dcclab
Spectrometer: QEP03738
Trigger mode: 4
Integration Time (sec): 1.000000E1
Scans to average: 1
Electric dark correction enabled: true
Nonlinearity correction enabled: false
Boxcar width: 0
XAxis mode: Wavelengths
Number of Pixels in Spectrum: 1044
>>>>>Begin Spectral Data<<<<<
784.041	8.88
784.3	0.88
784.558	-0.12
784.817	-7.12
785.075	101568.88
785.334	17368.88
785.592	8045.88
785.851	5555.88
786.109	4170.88
786.368	3299.88
786.626	2638.88
786.884	2195.88
787.143	1856.88
787.401	1491.88
787.659	1334.88
787.917	1145.88
788.175	1070.88
788.433	923.88
788.691	823.88
788.949	766.88
789.207	742.88
789.465	640.88
789.723	606.88
789.98	563.88
790.238	588.88
790.496	548.88
790.753	537.88
791.011	568.88
791.268	503.88
791.526	487.88
791.783	486.88
792.041	487.88
792.298	400.88
792.556	464.88
792.813	445.88
793.07	429.88
793.327	414.88
793.584	480.88
793.841	408.88
794.099	423.88
794.356	483.88
794.613	381.88
794.869	430.88
795.126	388.88
795.383	368.88
795.64	398.88
795.897	355.88
796.153	401.88
796.41	385.88
796.667	361.88
796.923	373.88
797.18	370.88
797.436	386.88
797.693	360.88
797.949	419.88
798.206	433.88
798.462	330.88
798.718	387.88
798.974	367.88
799.231	405.88
799.487	395.88
799.743	393.88
799.999	408.88
800.255	398.88
800.511	388.88
800.767	402.88
801.023	383.88
801.279	396.88
801.534	400.88
801.79	416.88
802.046	403.88
802.302	457.88
802.557	465.88
802.813	486.88
803.068	475.88
803.324	613.88
803.579	684.88
803.835	817.88
804.09	1081.88
804.345	1257.88
804.601	1522.88
804.856	1855.88
805.111	2076.88
805.366	2240.88
805.621	2367.88
805.876	2430.88
806.131	2491.88
806.386	2468.88
806.641	2496.88
806.896	2511.88
807.151	2663.88
807.406	2623.88
807.661	2744.88
807.915	2714.88
808.17	2778.88
808.425	2813.88
808.679	2815.88
808.934	2913.88
809.188	2864.88
809.443	2918.88
809.697	3012.88
809.951	2968.88
810.206	2974.88
810.46	3072.88
810.714	3067.88
810.968	3089.88
811.223	3063.88
811.477	3141.88
811.731	3173.88
811.985	3129.88
812.239	3116.88
812.493	3137.88
812.747	3171.88
813	3124.88
813.254	3220.88
813.508	3265.88
813.762	3224.88
814.015	3250.88
814.269	3261.88
814.522	3322.88
814.776	3380.88
815.03	3361.88
815.283	3402.88
815.536	3494.88
815.79	3548.88
816.043	3579.88
816.296	3620.88
816.55	3632.88
816.803	3673.88
817.056	3785.88
817.309	3802.88
817.562	3812.88
817.815	3871.88
818.068	3865.88
818.321	3862.88
818.574	3880.88
818.827	4058.88
819.079	4033.88
819.332	4231.88
819.585	4233.88
819.838	4306.88
820.09	4215.88
820.343	4302.88
820.595	4242.88
820.848	4331.88
821.1	4321.88
821.353	4344.88
821.605	4325.88
821.857	4389.88
822.11	4237.88
822.362	4313.88
822.614	4255.88
822.866	4328.88
823.118	4254.88
823.37	4385.88
823.622	4393.88
823.874	4424.88
824.126	4444.88
824.378	4413.88
824.63	4443.88
824.882	4503.88
825.134	4356.88
825.385	4451.88
825.637	4352.88
825.888	4334.88
826.14	4331.88
826.392	4274.88
826.643	4194.88
826.895	4342.88
827.146	4231.88
827.397	4211.88
827.649	4285.88
827.9	4205.88
828.151	4168.88
828.402	4163.88
828.653	4197.88
828.905	4248.88
829.156	4283.88
829.407	4208.88
829.658	4249.88
829.909	4294.88
830.159	4308.88
830.41	4321.88
830.661	4303.88
830.912	4203.88
831.162	4206.88
831.413	4223.88
831.664	4241.88
831.914	4248.88
832.165	4241.88
832.415	4200.88
832.666	4231.88
832.916	4258.88
833.167	4221.88
833.417	4259.88
833.667	4237.88
833.917	4233.88
834.168	4236.88
834.418	4260.88
834.668	4206.88
834.918	4168.88
835.168	4251.88
835.418	4138.88
835.668	4177.88
835.918	4187.88
836.167	4153.88
836.417	4093.88
836.667	4108.88
836.917	4111.88
837.166	4108.88
837.416	4116.88
837.666	4085.88
837.915	4063.88
838.165	4072.88
838.414	4060.88
838.663	3974.88
838.913	4050.88
839.162	4080.88
839.411	4128.88
839.661	4044.88
839.91	4032.88
840.159	4081.88
840.408	4091.88
840.657	4074.88
840.906	4117.88
841.155	4160.88
841.404	4031.88
841.653	4080.88
841.902	4053.88
842.15	4123.88
842.399	4092.88
842.648	4109.88
842.897	4130.88
843.145	4013.88
843.394	4002.88
843.642	4022.88
843.891	4015.88
844.139	3938.88
844.388	3894.88
844.636	3819.88
844.884	3922.88
845.133	3873.88
845.381	3917.88
845.629	3876.88
845.877	3816.88
846.125	3881.88
846.373	3892.88
846.621	3819.88
846.869	3901.88
847.117	3815.88
847.365	3854.88
847.613	3816.88
847.861	3816.88
848.108	3842.88
848.356	3838.88
848.604	3828.88
848.851	3847.88
849.099	3839.88
849.346	3880.88
849.594	3886.88
849.841	3966.88
850.089	3963.88
850.336	4009.88
850.583	4069.88
850.831	4086.88
851.078	4061.88
851.325	4046.88
851.572	4171.88
851.819	4041.88
852.066	3858.88
852.313	3688.88
852.56	3683.88
852.807	3666.88
853.054	3688.88
853.301	3694.88
853.548	3722.88
853.794	3863.88
854.041	3766.88
854.288	3743.88
854.534	3860.88
854.781	3824.88
855.028	3787.88
855.274	3829.88
855.52	3748.88
855.767	3739.88
856.013	3771.88
856.26	4062.88
856.506	3753.88
856.752	3766.88
856.998	3753.88
857.244	3732.88
857.49	3826.88
857.736	3775.88
857.982	3813.88
858.228	3745.88
858.474	3711.88
858.72	3720.88
858.966	3598.88
859.212	3625.88
859.458	3526.88
859.703	3523.88
859.949	3450.88
860.195	3491.88
860.44	3516.88
860.686	3484.88
860.931	3560.88
861.177	3424.88
861.422	3425.88
861.667	3389.88
861.913	3373.88
862.158	3390.88
862.403	3403.88
862.648	3462.88
862.893	3492.88
863.138	3444.88
863.384	3371.88
863.629	3442.88
863.873	3413.88
864.118	3397.88
864.363	3304.88
864.608	3418.88
864.853	3397.88
865.098	3356.88
865.342	3423.88
865.587	3324.88
865.832	3397.88
866.076	3318.88
866.321	3309.88
866.565	3315.88
866.81	3248.88
867.054	3284.88
867.298	3329.88
867.543	3267.88
867.787	3340.88
868.031	3356.88
868.275	3239.88
868.519	3263.88
868.764	3336.88
869.008	3275.88
869.252	3349.88
869.496	3325.88
869.739	3281.88
869.983	3347.88
870.227	3353.88
870.471	3347.88
870.715	3398.88
870.958	3431.88
871.202	3383.88
871.446	3405.88
871.689	3398.88
871.933	3386.88
872.176	3393.88
872.42	3376.88
872.663	3363.88
872.906	3407.88
873.15	3421.88
873.393	3373.88
873.636	3417.88
873.879	3360.88
874.122	3337.88
874.366	3253.88
874.609	3310.88
874.852	3200.88
875.095	3201.88
875.337	3161.88
875.58	3140.88
875.823	3152.88
876.066	3198.88
876.309	3164.88
876.551	3102.88
876.794	3055.88
877.037	3152.88
877.279	3098.88
877.522	3061.88
877.764	3067.88
878.007	3061.88
878.249	3070.88
878.491	2996.88
878.734	3084.88
878.976	3025.88
879.218	2965.88
879.46	3049.88
879.702	3000.88
879.945	2974.88
880.187	2885.88
880.429	2905.88
880.671	2894.88
880.912	2951.88
881.154	2871.88
881.396	2816.88
881.638	2884.88
881.88	2864.88
882.121	2847.88
882.363	2884.88
882.605	2934.88
882.846	2880.88
883.088	2931.88
883.329	2890.88
883.571	2922.88
883.812	2974.88
884.053	3104.88
884.295	3264.88
884.536	3369.88
884.777	3297.88
885.018	3307.88
885.259	3250.88
885.5	3231.88
885.742	3409.88
885.982	3200.88
886.223	3119.88
886.464	3068.88
886.705	2987.88
886.946	2992.88
887.187	2903.88
887.428	2866.88
887.668	2755.88
887.909	2742.88
888.15	2695.88
888.39	2724.88
888.631	2750.88
888.871	2647.88
889.111	2657.88
889.352	2601.88
889.592	2561.88
889.833	2542.88
890.073	2546.88
890.313	2596.88
890.553	2518.88
890.793	2508.88
891.033	2497.88
891.273	2468.88
891.513	2501.88
891.753	2563.88
891.993	2490.88
892.233	2509.88
892.473	2602.88
892.713	2547.88
892.952	2516.88
893.192	2521.88
893.432	2473.88
893.671	2577.88
893.911	2521.88
894.15	2533.88
894.39	2417.88
894.629	2450.88
894.869	2504.88
895.108	2495.88
895.347	2428.88
895.587	2464.88
895.826	2475.88
896.065	2470.88
896.304	2505.88
896.543	2509.88
896.782	2468.88
897.021	2484.88
897.26	2492.88
897.499	2553.88
897.738	2562.88
897.977	2526.88
898.216	2492.88
898.454	2509.88
898.693	2420.88
898.932	2471.88
899.17	2442.88
899.409	2485.88
899.647	2452.88
899.886	2432.88
900.124	2507.88
900.363	2450.88
900.601	2524.88
900.839	2533.88
901.078	2551.88
901.316	2547.88
901.554	2607.88
901.792	2632.88
902.03	2558.88
902.268	2632.88
902.506	2674.88
902.744	2601.88
902.982	2595.88
903.22	2493.88
903.458	2454.88
903.695	2439.88
903.933	2383.88
904.171	2259.88
904.409	2241.88
904.646	2254.88
904.884	2204.88
905.121	2196.88
905.359	2163.88
905.596	2138.88
905.833	2065.88
906.071	2060.88
906.308	2131.88
906.545	2065.88
906.783	2005.88
907.02	2040.88
907.257	1998.88
907.494	1996.88
907.731	2050.88
907.968	2052.88
908.205	1973.88
908.442	1946.88
908.679	1948.88
908.915	1972.88
909.152	1953.88
909.389	1890.88
909.626	1914.88
909.862	1867.88
910.099	1893.88
910.335	1921.88
910.572	1812.88
910.808	1868.88
911.045	1856.88
911.281	1853.88
911.518	1865.88
911.754	1832.88
911.99	1822.88
912.226	1831.88
912.463	1772.88
912.699	1771.88
912.935	1768.88
913.171	1782.88
913.407	1728.88
913.643	1775.88
913.879	1759.88
914.114	1751.88
914.35	1716.88
914.586	1690.88
914.822	1682.88
915.057	1752.88
915.293	1630.88
915.529	1641.88
915.764	1704.88
916	1676.88
916.235	1684.88
916.471	1691.88
916.706	1590.88
916.941	1642.88
917.177	1644.88
917.412	1698.88
917.647	1708.88
917.882	1615.88
918.117	1680.88
918.352	1675.88
918.588	1718.88
918.823	1618.88
919.057	1614.88
919.292	1514.88
919.527	1644.88
919.762	1576.88
919.997	1662.88
920.232	1581.88
920.466	1599.88
920.701	1488.88
920.935	1578.88
921.17	1521.88
921.405	1504.88
921.639	1547.88
921.873	1513.88
922.108	1531.88
922.342	1552.88
922.576	1471.88
922.811	1478.88
923.045	1553.88
923.279	1537.88
923.513	1438.88
923.747	1524.88
923.981	1494.88
924.215	1459.88
924.449	1462.88
924.683	1434.88
924.917	1443.88
925.151	1431.88
925.385	1504.88
925.618	1455.88
925.852	1448.88
926.086	1407.88
926.319	1447.88
926.553	1445.88
926.786	1456.88
927.02	1431.88
927.253	1492.88
927.486	1480.88
927.72	1401.88
927.953	1475.88
928.186	1431.88
928.42	1457.88
928.653	1391.88
928.886	1409.88
929.119	1454.88
929.352	1417.88
929.585	1433.88
929.818	1394.88
930.051	1428.88
930.284	1413.88
930.516	1346.88
930.749	1353.88
930.982	1448.88
931.215	1401.88
931.447	1344.88
931.68	1363.88
931.912	1354.88
932.145	1371.88
932.377	1386.88
932.61	1498.88
932.842	1312.88
933.074	1372.88
933.307	1325.88
933.539	1433.88
933.771	1420.88
934.003	1370.88
934.236	1456.88
934.468	1440.88
934.7	1348.88
934.932	1401.88
935.164	1357.88
935.395	1362.88
935.627	1359.88
935.859	1374.88
936.091	1328.88
936.323	1400.88
936.554	1417.88
936.786	1368.88
937.017	1294.88
937.249	1362.88
937.481	1286.88
937.712	1383.88
937.943	1346.88
938.175	1329.88
938.406	1328.88
938.637	1426.88
938.869	1305.88
939.1	1376.88
939.331	1324.88
939.562	1341.88
939.793	1359.88
940.024	1363.88
940.255	1381.88
940.486	1308.88
940.717	1337.88
940.948	1336.88
941.179	1288.88
941.409	1333.88
941.64	1306.88
941.871	1324.88
942.102	1287.88
942.332	1302.88
942.563	1343.88
942.793	1332.88
943.024	1244.88
943.254	1322.88
943.484	1361.88
943.715	1346.88
943.945	1332.88
944.175	1277.88
944.405	1240.88
944.636	1262.88
944.866	1311.88
945.096	1329.88
945.326	1247.88
945.556	1344.88
945.786	1353.88
946.016	1274.88
946.245	1244.88
946.475	1270.88
946.705	1236.88
946.935	1258.88
947.164	1287.88
947.394	1230.88
947.624	1259.88
947.853	1291.88
948.083	1268.88
948.312	1261.88
948.542	1190.88
948.771	1187.88
949	1202.88
949.23	1217.88
949.459	1228.88
949.688	1268.88
949.917	1223.88
950.146	1242.88
950.375	1276.88
950.604	1189.88
950.833	1294.88
951.062	1272.88
951.291	1239.88
951.52	1208.88
951.749	1252.88
951.978	1178.88
952.206	1211.88
952.435	1194.88
952.664	1219.88
952.892	1235.88
953.121	1252.88
953.349	1233.88
953.578	1244.88
953.806	1205.88
954.035	1178.88
954.263	1210.88
954.491	1138.88
954.719	1213.88
954.948	1174.88
955.176	1145.88
955.404	1103.88
955.632	1164.88
955.86	1183.88
956.088	1185.88
956.316	1185.88
956.544	1227.88
956.772	1160.88
956.999	1147.88
957.227	1229.88
957.455	1146.88
957.683	1164.88
957.91	1114.88
958.138	1112.88
958.365	1143.88
958.593	1140.88
958.82	1099.88
959.048	1174.88
959.275	1133.88
959.502	1103.88
959.73	1095.88
959.957	1160.88
960.184	1192.88
960.411	1115.88
960.638	1214.88
960.865	1144.88
961.092	1156.88
961.319	1077.88
961.546	1150.88
961.773	1173.88
962	1118.88
962.227	1165.88
962.454	1114.88
962.68	1123.88
962.907	1146.88
963.134	1103.88
963.36	1134.88
963.587	1137.88
963.813	1096.88
964.04	1151.88
964.266	1084.88
964.493	1182.88
964.719	1139.88
964.945	1143.88
965.171	1048.88
965.398	1092.88
965.624	1145.88
965.85	1075.88
966.076	1043.88
966.302	1123.88
966.528	1062.88
966.754	1108.88
966.98	1104.88
967.206	1105.88
967.431	1033.88
967.657	1111.88
967.883	1089.88
968.109	1091.88
968.334	1065.88
968.56	1037.88
968.785	1065.88
969.011	1014.88
969.236	1075.88
969.462	1008.88
969.687	1059.88
969.912	1112.88
970.138	1117.88
970.363	1006.88
970.588	1059.88
970.813	1045.88
971.038	1021.88
971.263	1081.88
971.488	1081.88
971.713	1105.88
971.938	1098.88
972.163	999.88
972.388	1037.88
972.613	1010.88
972.838	1055.88
973.062	1028.88
973.287	1036.88
973.512	990.88
973.736	1027.88
973.961	998.88
974.185	994.88
974.41	1027.88
974.634	946.88
974.858	959.88
975.083	996.88
975.307	1031.88
975.531	973.88
975.755	930.88
975.98	977.88
976.204	917.88
976.428	918.88
976.652	935.88
976.876	926.88
977.1	945.88
977.324	916.88
977.547	958.88
977.771	970.88
977.995	947.88
978.219	910.88
978.442	1021.88
978.666	968.88
978.89	966.88
979.113	963.88
979.337	942.88
979.56	933.88
979.783	1008.88
980.007	891.88
980.23	945.88
980.453	917.88
980.677	968.88
980.9	940.88
981.123	864.88
981.346	972.88
981.569	949.88
981.792	972.88
982.015	922.88
982.238	910.88
982.461	936.88
982.684	888.88
982.907	889.88
983.129	885.88
983.352	954.88
983.575	926.88
983.797	940.88
984.02	894.88
984.242	903.88
984.465	889.88
984.687	928.88
984.91	964.88
985.132	944.88
985.354	946.88
985.577	922.88
985.799	932.88
986.021	848.88
986.243	882.88
986.465	895.88
986.687	931.88
986.909	984.88
987.131	911.88
987.353	897.88
987.575	922.88
987.797	897.88
988.019	846.88
988.241	903.88
988.462	868.88
988.684	936.88
988.906	960.88
989.127	991.88
989.349	869.88
989.57	900.88
989.792	942.88
990.013	961.88
990.234	949.88
990.456	1018.88
990.677	978.88
990.898	922.88
991.119	931.88
991.341	961.88
991.562	887.88
991.783	957.88
992.004	878.88
992.225	856.88
992.446	933.88
992.667	837.88
992.887	936.88
993.108	835.88
993.329	954.88
993.55	925.88
993.77	866.88
993.991	893.88
994.212	922.88
994.432	898.88
994.653	922.88
994.873	916.88
995.093	812.88
995.314	856.88
995.534	939.88
995.754	951.88
995.975	971.88
996.195	867.88
996.415	927.88
996.635	905.88
996.855	915.88
997.075	892.88
997.295	910.88
997.515	891.88
997.735	948.88
997.955	922.88
998.174	929.88
998.394	877.88
998.614	931.88
998.834	884.88
999.053	970.88
999.273	927.88
999.492	980.88
999.712	909.88
999.931	888.88
1000.151	927.88
1000.37	926.88
1000.589	989.88
1000.809	895.88
1001.028	1018.88
1001.247	983.88
1001.466	878.88
1001.685	1012.88
1001.904	966.88
1002.123	958.88
1002.342	964.88
1002.561	925.88
1002.78	962.88
1002.999	1017.88
1003.218	995.88
1003.436	945.88
1003.655	997.88
1003.874	945.88
1004.092	957.88
1004.311	1013.88
1004.53	971.88
1004.748	1054.88
1004.966	979.88
1005.185	1027.88
1005.403	1015.88
1005.622	997.88
1005.84	1090.88
1006.058	979.88
1006.276	1004.88
1006.494	1486.88
1006.712	983.88
1006.931	1080.88
1007.149	988.88
1007.367	969.88
1007.584	1010.88
1007.802	1069.88
1008.02	1015.88
1008.238	1108.88
1008.456	1105.88
1008.673	990.88
1008.891	1080.88
1009.109	1048.88
1009.326	1100.88
1009.544	1166.88
1009.761	1059.88
1009.979	1191.88
1010.196	1183.88
1010.413	1263.88
1010.631	1325.88
1010.848	1362.88
1011.065	1354.88
1011.282	1282.88
1011.5	1220.88
1011.717	1343.88
1011.934	1308.88
1012.151	1334.88
1012.368	1334.88
1012.585	1262.88
1012.801	1299.88
1013.018	1277.88
1013.235	1263.88
1013.452	1281.88
1013.669	1284.88
1013.885	1277.88
1014.102	1318.88
1014.318	1299.88
1014.535	1258.88
1014.751	1302.88
1014.968	1300.88
1015.184	1308.88
1015.401	1239.88
1015.617	1293.88
1015.833	1239.88
1016.049	1237.88
1016.266	1221.88
1016.482	1254.88
1016.698	1185.88
1016.914	1228.88
1017.13	1193.88
1017.346	1209.88
1017.562	1278.88
1017.778	1167.88
1017.993	1145.88
1018.209	1240.88
1018.425	1214.88
1018.641	1183.88
1018.856	1150.88
1019.072	1178.88
1019.288	1225.88
1019.503	1187.88
1019.719	1105.88
1019.934	1113.88
1020.149	1203.88
1020.365	1136.88
1020.58	1094.88
1020.795	1147.88
1021.011	1101.88
1021.226	1086.88
1021.441	1088.88
1021.656	1032.88
1021.871	956.88
1022.086	986.88
1022.301	969.88
1022.516	966.88
1022.731	1009.88
1022.946	923.88
1023.16	946.88
1023.375	874.88
1023.59	885.88
1023.804	841.88
1024.019	945.88
1024.234	832.88
1024.448	869.88
1024.663	803.88
1024.877	823.88
1025.092	845.88
1025.306	848.88
1025.52	775.88
1025.734	834.88
1025.949	775.88
1026.163	736.88
1026.377	694.88
1026.591	766.88
1026.805	687.88
1027.019	678.88
1027.233	660.88
1027.447	593.88
1027.661	715.88
1027.875	637.88
1028.088	657.88
1028.302	610.88
1028.516	592.88
1028.73	609.88
1028.943	593.88
1029.157	566.88
1029.37	516.88
1029.584	2.88
1029.797	-0.12
1030.011	-3.12
1030.224	-2.12
