Data from QEP037381__250__11-02-16-588.txt Node

Date: Wed Dec 21 11:02:16 EST 2022
User: dcclab
Spectrometer: QEP03738
Trigger mode: 4
Integration Time (sec): 1.000000E1
Scans to average: 1
Electric dark correction enabled: true
Nonlinearity correction enabled: false
Boxcar width: 0
XAxis mode: Wavelengths
Number of Pixels in Spectrum: 1044
>>>>>Begin Spectral Data<<<<<
784.041	9.38
784.3	-1.62
784.558	-0.62
784.817	-3.62
785.075	101015.38
785.334	17229.38
785.592	8000.38
785.851	5497.38
786.109	4174.38
786.368	3238.38
786.626	2597.38
786.884	2147.38
787.143	1817.38
787.401	1495.38
787.659	1340.38
787.917	1129.38
788.175	1029.38
788.433	901.38
788.691	809.38
788.949	744.38
789.207	711.38
789.465	636.38
789.723	593.38
789.98	548.38
790.238	576.38
790.496	530.38
790.753	513.38
791.011	571.38
791.268	500.38
791.526	469.38
791.783	518.38
792.041	484.38
792.298	392.38
792.556	470.38
792.813	440.38
793.07	426.38
793.327	411.38
793.584	492.38
793.841	418.38
794.099	435.38
794.356	488.38
794.613	397.38
794.869	430.38
795.126	386.38
795.383	367.38
795.64	400.38
795.897	349.38
796.153	407.38
796.41	404.38
796.667	373.38
796.923	376.38
797.18	374.38
797.436	404.38
797.693	351.38
797.949	407.38
798.206	437.38
798.462	347.38
798.718	398.38
798.974	377.38
799.231	407.38
799.487	408.38
799.743	391.38
799.999	419.38
800.255	395.38
800.511	405.38
800.767	429.38
801.023	397.38
801.279	407.38
801.534	418.38
801.79	421.38
802.046	409.38
802.302	479.38
802.557	475.38
802.813	539.38
803.068	530.38
803.324	660.38
803.579	771.38
803.835	977.38
804.09	1286.38
804.345	1597.38
804.601	1980.38
804.856	2428.38
805.111	2780.38
805.366	3042.38
805.621	3164.38
805.876	3321.38
806.131	3368.38
806.386	3417.38
806.641	3435.38
806.896	3516.38
807.151	3693.38
807.406	3671.38
807.661	3729.38
807.915	3769.38
808.17	3874.38
808.425	3937.38
808.679	3873.38
808.934	4023.38
809.188	3977.38
809.443	4033.38
809.697	4140.38
809.951	4102.38
810.206	4167.38
810.46	4248.38
810.714	4285.38
810.968	4344.38
811.223	4293.38
811.477	4357.38
811.731	4436.38
811.985	4431.38
812.239	4353.38
812.493	4459.38
812.747	4459.38
813	4482.38
813.254	4488.38
813.508	4610.38
813.762	4542.38
814.015	4566.38
814.269	4646.38
814.522	4645.38
814.776	4741.38
815.03	4783.38
815.283	4847.38
815.536	4929.38
815.79	5039.38
816.043	5093.38
816.296	5190.38
816.55	5194.38
816.803	5239.38
817.056	5445.38
817.309	5373.38
817.562	5438.38
817.815	5525.38
818.068	5472.38
818.321	5561.38
818.574	5659.38
818.827	5753.38
819.079	5769.38
819.332	6044.38
819.585	5999.38
819.838	6182.38
820.09	6113.38
820.343	6174.38
820.595	6169.38
820.848	6268.38
821.1	6186.38
821.353	6244.38
821.605	6246.38
821.857	6315.38
822.11	6192.38
822.362	6238.38
822.614	6171.38
822.866	6284.38
823.118	6197.38
823.37	6351.38
823.622	6302.38
823.874	6403.38
824.126	6417.38
824.378	6405.38
824.63	6466.38
824.882	6431.38
825.134	6369.38
825.385	6395.38
825.637	6344.38
825.888	6293.38
826.14	6282.38
826.392	6288.38
826.643	6199.38
826.895	6260.38
827.146	6147.38
827.397	6131.38
827.649	6214.38
827.9	6174.38
828.151	6130.38
828.402	6141.38
828.653	6195.38
828.905	6257.38
829.156	6293.38
829.407	6189.38
829.658	6241.38
829.909	6303.38
830.159	6308.38
830.41	6223.38
830.661	6254.38
830.912	6177.38
831.162	6091.38
831.413	6115.38
831.664	6222.38
831.914	6141.38
832.165	6165.38
832.415	6205.38
832.666	6139.38
832.916	6185.38
833.167	6162.38
833.417	6249.38
833.667	6175.38
833.917	6154.38
834.168	6224.38
834.418	6175.38
834.668	6085.38
834.918	6078.38
835.168	6099.38
835.418	6048.38
835.668	6070.38
835.918	6064.38
836.167	6036.38
836.417	6020.38
836.667	6073.38
836.917	6001.38
837.166	6014.38
837.416	5964.38
837.666	6053.38
837.915	5998.38
838.165	5963.38
838.414	5905.38
838.663	5901.38
838.913	5937.38
839.162	5883.38
839.411	5946.38
839.661	5870.38
839.91	5912.38
840.159	5943.38
840.408	5957.38
840.657	5910.38
840.906	5925.38
841.155	5966.38
841.404	5972.38
841.653	6001.38
841.902	5907.38
842.15	5906.38
842.399	5954.38
842.648	5922.38
842.897	5980.38
843.145	5823.38
843.394	5889.38
843.642	5807.38
843.891	5815.38
844.139	5729.38
844.388	5667.38
844.636	5644.38
844.884	5687.38
845.133	5731.38
845.381	5666.38
845.629	5722.38
845.877	5674.38
846.125	5626.38
846.373	5706.38
846.621	5680.38
846.869	5715.38
847.117	5689.38
847.365	5605.38
847.613	5590.38
847.861	5560.38
848.108	5614.38
848.356	5611.38
848.604	5560.38
848.851	5573.38
849.099	5590.38
849.346	5604.38
849.594	5685.38
849.841	5703.38
850.089	5719.38
850.336	5716.38
850.583	5835.38
850.831	5837.38
851.078	5815.38
851.325	5819.38
851.572	5867.38
851.819	5771.38
852.066	5552.38
852.313	5426.38
852.56	5417.38
852.807	5341.38
853.054	5328.38
853.301	5368.38
853.548	5390.38
853.794	5506.38
854.041	5472.38
854.288	5505.38
854.534	5609.38
854.781	5547.38
855.028	5480.38
855.274	5524.38
855.52	5476.38
855.767	5399.38
856.013	5477.38
856.26	5732.38
856.506	5379.38
856.752	5451.38
856.998	5400.38
857.244	5390.38
857.49	5424.38
857.736	5409.38
857.982	5494.38
858.228	5437.38
858.474	5373.38
858.72	5348.38
858.966	5335.38
859.212	5261.38
859.458	5215.38
859.703	5173.38
859.949	5133.38
860.195	5083.38
860.44	5057.38
860.686	5074.38
860.931	5102.38
861.177	5027.38
861.422	5022.38
861.667	4978.38
861.913	4988.38
862.158	4996.38
862.403	5058.38
862.648	5081.38
862.893	5104.38
863.138	5072.38
863.384	5029.38
863.629	5062.38
863.873	5056.38
864.118	5001.38
864.363	4919.38
864.608	4971.38
864.853	5036.38
865.098	4958.38
865.342	4920.38
865.587	4865.38
865.832	4953.38
866.076	4938.38
866.321	4903.38
866.565	4884.38
866.81	4751.38
867.054	4867.38
867.298	4811.38
867.543	4794.38
867.787	4840.38
868.031	4828.38
868.275	4834.38
868.519	4852.38
868.764	4815.38
869.008	4779.38
869.252	4850.38
869.496	4789.38
869.739	4774.38
869.983	4835.38
870.227	4865.38
870.471	4863.38
870.715	4841.38
870.958	4892.38
871.202	4835.38
871.446	4903.38
871.689	4840.38
871.933	4904.38
872.176	4881.38
872.42	4857.38
872.663	4851.38
872.906	4867.38
873.15	4800.38
873.393	4757.38
873.636	4845.38
873.879	4784.38
874.122	4810.38
874.366	4682.38
874.609	4698.38
874.852	4587.38
875.095	4590.38
875.337	4535.38
875.58	4516.38
875.823	4533.38
876.066	4567.38
876.309	4538.38
876.551	4456.38
876.794	4445.38
877.037	4489.38
877.279	4379.38
877.522	4467.38
877.764	4508.38
878.007	4458.38
878.249	4455.38
878.491	4426.38
878.734	4491.38
878.976	4422.38
879.218	4345.38
879.46	4407.38
879.702	4401.38
879.945	4302.38
880.187	4272.38
880.429	4299.38
880.671	4246.38
880.912	4271.38
881.154	4211.38
881.396	4111.38
881.638	4219.38
881.88	4165.38
882.121	4160.38
882.363	4215.38
882.605	4271.38
882.846	4211.38
883.088	4191.38
883.329	4201.38
883.571	4156.38
883.812	4256.38
884.053	4349.38
884.295	4470.38
884.536	4565.38
884.777	4509.38
885.018	4557.38
885.259	4541.38
885.5	4408.38
885.742	4624.38
885.982	4398.38
886.223	4354.38
886.464	4272.38
886.705	4217.38
886.946	4224.38
887.187	4106.38
887.428	4144.38
887.668	4040.38
887.909	3940.38
888.15	3906.38
888.39	3969.38
888.631	3941.38
888.871	3956.38
889.111	3839.38
889.352	3826.38
889.592	3808.38
889.833	3738.38
890.073	3721.38
890.313	3782.38
890.553	3680.38
890.793	3703.38
891.033	3670.38
891.273	3641.38
891.513	3657.38
891.753	3698.38
891.993	3642.38
892.233	3698.38
892.473	3735.38
892.713	3709.38
892.952	3685.38
893.192	3697.38
893.432	3689.38
893.671	3731.38
893.911	3728.38
894.15	3702.38
894.39	3629.38
894.629	3623.38
894.869	3676.38
895.108	3600.38
895.347	3592.38
895.587	3632.38
895.826	3586.38
896.065	3552.38
896.304	3630.38
896.543	3621.38
896.782	3568.38
897.021	3610.38
897.26	3581.38
897.499	3652.38
897.738	3657.38
897.977	3613.38
898.216	3520.38
898.454	3550.38
898.693	3472.38
898.932	3521.38
899.17	3515.38
899.409	3511.38
899.647	3488.38
899.886	3476.38
900.124	3501.38
900.363	3458.38
900.601	3540.38
900.839	3503.38
901.078	3518.38
901.316	3588.38
901.554	3583.38
901.792	3619.38
902.03	3577.38
902.268	3590.38
902.506	3621.38
902.744	3519.38
902.982	3557.38
903.22	3462.38
903.458	3444.38
903.695	3411.38
903.933	3343.38
904.171	3216.38
904.409	3151.38
904.646	3246.38
904.884	3107.38
905.121	3164.38
905.359	3075.38
905.596	3061.38
905.833	2979.38
906.071	2972.38
906.308	3029.38
906.545	3003.38
906.783	2940.38
907.02	2935.38
907.257	2870.38
907.494	2916.38
907.731	2972.38
907.968	2924.38
908.205	2869.38
908.442	2885.38
908.679	2905.38
908.915	2841.38
909.152	2827.38
909.389	2766.38
909.626	2769.38
909.862	2764.38
910.099	2794.38
910.335	2826.38
910.572	2732.38
910.808	2727.38
911.045	2708.38
911.281	2693.38
911.518	2750.38
911.754	2681.38
911.99	2672.38
912.226	2650.38
912.463	2633.38
912.699	2633.38
912.935	2620.38
913.171	2577.38
913.407	2545.38
913.643	2541.38
913.879	2568.38
914.114	2537.38
914.35	2441.38
914.586	2498.38
914.822	2449.38
915.057	2487.38
915.293	2374.38
915.529	2408.38
915.764	2474.38
916	2437.38
916.235	2388.38
916.471	2419.38
916.706	2348.38
916.941	2394.38
917.177	2389.38
917.412	2430.38
917.647	2435.38
917.882	2381.38
918.117	2439.38
918.352	2383.38
918.588	2417.38
918.823	2369.38
919.057	2343.38
919.292	2263.38
919.527	2363.38
919.762	2292.38
919.997	2339.38
920.232	2243.38
920.466	2302.38
920.701	2143.38
920.935	2224.38
921.17	2200.38
921.405	2176.38
921.639	2213.38
921.873	2205.38
922.108	2196.38
922.342	2216.38
922.576	2119.38
922.811	2143.38
923.045	2198.38
923.279	2229.38
923.513	2086.38
923.747	2180.38
923.981	2135.38
924.215	2113.38
924.449	2101.38
924.683	2071.38
924.917	2065.38
925.151	2067.38
925.385	2140.38
925.618	2079.38
925.852	2068.38
926.086	2045.38
926.319	2093.38
926.553	2078.38
926.786	2077.38
927.02	2030.38
927.253	2086.38
927.486	2109.38
927.72	1997.38
927.953	2101.38
928.186	2042.38
928.42	2081.38
928.653	2039.38
928.886	2005.38
929.119	2014.38
929.352	2035.38
929.585	2012.38
929.818	1996.38
930.051	1984.38
930.284	1993.38
930.516	1918.38
930.749	1925.38
930.982	1997.38
931.215	1965.38
931.447	1911.38
931.68	1916.38
931.912	1909.38
932.145	1921.38
932.377	1935.38
932.61	2085.38
932.842	1897.38
933.074	1957.38
933.307	1898.38
933.539	2002.38
933.771	1999.38
934.003	1942.38
934.236	2051.38
934.468	2140.38
934.7	2109.38
934.932	2140.38
935.164	2104.38
935.395	2098.38
935.627	2062.38
935.859	1998.38
936.091	1907.38
936.323	1969.38
936.554	1985.38
936.786	1911.38
937.017	1874.38
937.249	1888.38
937.481	1830.38
937.712	1921.38
937.943	1879.38
938.175	1913.38
938.406	1910.38
938.637	1961.38
938.869	1845.38
939.1	1910.38
939.331	1857.38
939.562	1951.38
939.793	1964.38
940.024	2007.38
940.255	2129.38
940.486	2420.38
940.717	2573.38
940.948	2571.38
941.179	2362.38
941.409	2228.38
941.64	2055.38
941.871	1965.38
942.102	1885.38
942.332	1853.38
942.563	1879.38
942.793	1849.38
943.024	1790.38
943.254	1841.38
943.484	1873.38
943.715	1899.38
943.945	1855.38
944.175	1769.38
944.405	1744.38
944.636	1768.38
944.866	1811.38
945.096	1855.38
945.326	1767.38
945.556	1832.38
945.786	1853.38
946.016	1781.38
946.245	1738.38
946.475	1751.38
946.705	1749.38
946.935	1759.38
947.164	1773.38
947.394	1686.38
947.624	1746.38
947.853	1771.38
948.083	1742.38
948.312	1745.38
948.542	1668.38
948.771	1667.38
949	1671.38
949.23	1680.38
949.459	1689.38
949.688	1770.38
949.917	1747.38
950.146	1726.38
950.375	1780.38
950.604	1664.38
950.833	1753.38
951.062	1737.38
951.291	1728.38
951.52	1683.38
951.749	1691.38
951.978	1669.38
952.206	1694.38
952.435	1653.38
952.664	1711.38
952.892	1701.38
953.121	1682.38
953.349	1714.38
953.578	1689.38
953.806	1640.38
954.035	1643.38
954.263	1646.38
954.491	1590.38
954.719	1654.38
954.948	1610.38
955.176	1625.38
955.404	1541.38
955.632	1620.38
955.86	1645.38
956.088	1629.38
956.316	1634.38
956.544	1676.38
956.772	1594.38
956.999	1595.38
957.227	1674.38
957.455	1564.38
957.683	1579.38
957.91	1556.38
958.138	1529.38
958.365	1543.38
958.593	1563.38
958.82	1504.38
959.048	1574.38
959.275	1539.38
959.502	1530.38
959.73	1497.38
959.957	1570.38
960.184	1596.38
960.411	1532.38
960.638	1632.38
960.865	1554.38
961.092	1597.38
961.319	1481.38
961.546	1580.38
961.773	1567.38
962	1505.38
962.227	1581.38
962.454	1542.38
962.68	1515.38
962.907	1556.38
963.134	1486.38
963.36	1499.38
963.587	1526.38
963.813	1466.38
964.04	1549.38
964.266	1440.38
964.493	1570.38
964.719	1515.38
964.945	1509.38
965.171	1412.38
965.398	1491.38
965.624	1499.38
965.85	1427.38
966.076	1427.38
966.302	1473.38
966.528	1434.38
966.754	1487.38
966.98	1449.38
967.206	1486.38
967.431	1381.38
967.657	1468.38
967.883	1474.38
968.109	1457.38
968.334	1396.38
968.56	1394.38
968.785	1433.38
969.011	1365.38
969.236	1429.38
969.462	1372.38
969.687	1400.38
969.912	1444.38
970.138	1464.38
970.363	1391.38
970.588	1406.38
970.813	1399.38
971.038	1372.38
971.263	1425.38
971.488	1411.38
971.713	1454.38
971.938	1412.38
972.163	1326.38
972.388	1365.38
972.613	1349.38
972.838	1371.38
973.062	1354.38
973.287	1379.38
973.512	1292.38
973.736	1350.38
973.961	1336.38
974.185	1297.38
974.41	1361.38
974.634	1270.38
974.858	1275.38
975.083	1332.38
975.307	1374.38
975.531	1279.38
975.755	1241.38
975.98	1264.38
976.204	1198.38
976.428	1199.38
976.652	1246.38
976.876	1219.38
977.1	1263.38
977.324	1214.38
977.547	1272.38
977.771	1268.38
977.995	1236.38
978.219	1193.38
978.442	1295.38
978.666	1261.38
978.89	1249.38
979.113	1239.38
979.337	1232.38
979.56	1188.38
979.783	1305.38
980.007	1181.38
980.23	1236.38
980.453	1202.38
980.677	1224.38
980.9	1227.38
981.123	1138.38
981.346	1218.38
981.569	1231.38
981.792	1227.38
982.015	1207.38
982.238	1176.38
982.461	1195.38
982.684	1170.38
982.907	1133.38
983.129	1148.38
983.352	1191.38
983.575	1189.38
983.797	1201.38
984.02	1148.38
984.242	1146.38
984.465	1169.38
984.687	1182.38
984.91	1216.38
985.132	1193.38
985.354	1195.38
985.577	1155.38
985.799	1158.38
986.021	1101.38
986.243	1129.38
986.465	1147.38
986.687	1181.38
986.909	1214.38
987.131	1180.38
987.353	1131.38
987.575	1178.38
987.797	1145.38
988.019	1076.38
988.241	1130.38
988.462	1118.38
988.684	1165.38
988.906	1202.38
989.127	1207.38
989.349	1083.38
989.57	1108.38
989.792	1156.38
990.013	1167.38
990.234	1168.38
990.456	1223.38
990.677	1189.38
990.898	1122.38
991.119	1139.38
991.341	1179.38
991.562	1083.38
991.783	1150.38
992.004	1090.38
992.225	1068.38
992.446	1135.38
992.667	1073.38
992.887	1144.38
993.108	1038.38
993.329	1188.38
993.55	1097.38
993.77	1052.38
993.991	1066.38
994.212	1123.38
994.432	1094.38
994.653	1129.38
994.873	1124.38
995.093	1006.38
995.314	1060.38
995.534	1133.38
995.754	1117.38
995.975	1164.38
996.195	1033.38
996.415	1112.38
996.635	1074.38
996.855	1093.38
997.075	1088.38
997.295	1075.38
997.515	1090.38
997.735	1115.38
997.955	1064.38
998.174	1076.38
998.394	1047.38
998.614	1113.38
998.834	1078.38
999.053	1146.38
999.273	1091.38
999.492	1164.38
999.712	1088.38
999.931	1064.38
1000.151	1114.38
1000.37	1094.38
1000.589	1145.38
1000.809	1057.38
1001.028	1188.38
1001.247	1116.38
1001.466	1017.38
1001.685	1169.38
1001.904	1136.38
1002.123	1094.38
1002.342	1122.38
1002.561	1060.38
1002.78	1097.38
1002.999	1167.38
1003.218	1101.38
1003.436	1075.38
1003.655	1154.38
1003.874	1087.38
1004.092	1108.38
1004.311	1153.38
1004.53	1122.38
1004.748	1184.38
1004.966	1100.38
1005.185	1174.38
1005.403	1172.38
1005.622	1134.38
1005.84	1210.38
1006.058	1115.38
1006.276	1135.38
1006.494	1637.38
1006.712	1131.38
1006.931	1198.38
1007.149	1098.38
1007.367	1121.38
1007.584	1130.38
1007.802	1188.38
1008.02	1130.38
1008.238	1240.38
1008.456	1225.38
1008.673	1087.38
1008.891	1197.38
1009.109	1128.38
1009.326	1210.38
1009.544	1282.38
1009.761	1159.38
1009.979	1268.38
1010.196	1245.38
1010.413	1344.38
1010.631	1380.38
1010.848	1413.38
1011.065	1457.38
1011.282	1391.38
1011.5	1287.38
1011.717	1432.38
1011.934	1350.38
1012.151	1363.38
1012.368	1383.38
1012.585	1318.38
1012.801	1366.38
1013.018	1367.38
1013.235	1306.38
1013.452	1312.38
1013.669	1340.38
1013.885	1349.38
1014.102	1354.38
1014.318	1347.38
1014.535	1294.38
1014.751	1342.38
1014.968	1350.38
1015.184	1348.38
1015.401	1292.38
1015.617	1306.38
1015.833	1255.38
1016.049	1286.38
1016.266	1264.38
1016.482	1298.38
1016.698	1206.38
1016.914	1263.38
1017.13	1201.38
1017.346	1209.38
1017.562	1295.38
1017.778	1244.38
1017.993	1188.38
1018.209	1264.38
1018.425	1233.38
1018.641	1206.38
1018.856	1179.38
1019.072	1227.38
1019.288	1260.38
1019.503	1220.38
1019.719	1143.38
1019.934	1161.38
1020.149	1216.38
1020.365	1169.38
1020.58	1116.38
1020.795	1193.38
1021.011	1119.38
1021.226	1115.38
1021.441	1149.38
1021.656	1058.38
1021.871	1005.38
1022.086	1010.38
1022.301	993.38
1022.516	994.38
1022.731	1078.38
1022.946	961.38
1023.16	955.38
1023.375	931.38
1023.59	934.38
1023.804	903.38
1024.019	999.38
1024.234	872.38
1024.448	921.38
1024.663	833.38
1024.877	871.38
1025.092	903.38
1025.306	916.38
1025.52	794.38
1025.734	903.38
1025.949	812.38
1026.163	789.38
1026.377	736.38
1026.591	810.38
1026.805	739.38
1027.019	728.38
1027.233	693.38
1027.447	641.38
1027.661	752.38
1027.875	700.38
1028.088	718.38
1028.302	624.38
1028.516	625.38
1028.73	638.38
1028.943	620.38
1029.157	583.38
1029.37	551.38
1029.584	1.38
1029.797	2.38
1030.011	-5.62
1030.224	-1.62
