Data from QEP037381__255__11-03-06-588.txt Node

Date: Wed Dec 21 11:03:06 EST 2022
User: dcclab
Spectrometer: QEP03738
Trigger mode: 4
Integration Time (sec): 1.000000E1
Scans to average: 1
Electric dark correction enabled: true
Nonlinearity correction enabled: false
Boxcar width: 0
XAxis mode: Wavelengths
Number of Pixels in Spectrum: 1044
>>>>>Begin Spectral Data<<<<<
784.041	15.5
784.3	-1.5
784.558	-5.5
784.817	-0.5
785.075	96166.5
785.334	16451.5
785.592	7644.5
785.851	5260.5
786.109	4009.5
786.368	3123.5
786.626	2480.5
786.884	2075.5
787.143	1720.5
787.401	1415.5
787.659	1302.5
787.917	1117.5
788.175	988.5
788.433	891.5
788.691	796.5
788.949	730.5
789.207	695.5
789.465	596.5
789.723	579.5
789.98	545.5
790.238	580.5
790.496	541.5
790.753	527.5
791.011	557.5
791.268	491.5
791.526	488.5
791.783	506.5
792.041	477.5
792.298	393.5
792.556	454.5
792.813	448.5
793.07	428.5
793.327	405.5
793.584	480.5
793.841	410.5
794.099	427.5
794.356	496.5
794.613	386.5
794.869	424.5
795.126	393.5
795.383	367.5
795.64	393.5
795.897	345.5
796.153	405.5
796.41	383.5
796.667	363.5
796.923	374.5
797.18	370.5
797.436	402.5
797.693	352.5
797.949	399.5
798.206	434.5
798.462	352.5
798.718	391.5
798.974	364.5
799.231	404.5
799.487	401.5
799.743	395.5
799.999	423.5
800.255	412.5
800.511	379.5
800.767	419.5
801.023	390.5
801.279	403.5
801.534	411.5
801.79	442.5
802.046	404.5
802.302	486.5
802.557	481.5
802.813	529.5
803.068	527.5
803.324	647.5
803.579	770.5
803.835	926.5
804.09	1281.5
804.345	1570.5
804.601	1963.5
804.856	2392.5
805.111	2708.5
805.366	2937.5
805.621	3082.5
805.876	3251.5
806.131	3272.5
806.386	3312.5
806.641	3318.5
806.896	3391.5
807.151	3513.5
807.406	3494.5
807.661	3581.5
807.915	3673.5
808.17	3756.5
808.425	3780.5
808.679	3783.5
808.934	3939.5
809.188	3940.5
809.443	3961.5
809.697	4053.5
809.951	4035.5
810.206	4047.5
810.46	4133.5
810.714	4175.5
810.968	4220.5
811.223	4170.5
811.477	4271.5
811.731	4327.5
811.985	4277.5
812.239	4314.5
812.493	4350.5
812.747	4420.5
813	4362.5
813.254	4464.5
813.508	4500.5
813.762	4396.5
814.015	4471.5
814.269	4519.5
814.522	4607.5
814.776	4653.5
815.03	4699.5
815.283	4740.5
815.536	4843.5
815.79	4949.5
816.043	4984.5
816.296	5101.5
816.55	5094.5
816.803	5167.5
817.056	5304.5
817.309	5335.5
817.562	5343.5
817.815	5442.5
818.068	5467.5
818.321	5536.5
818.574	5634.5
818.827	5715.5
819.079	5789.5
819.332	6015.5
819.585	6068.5
819.838	6129.5
820.09	6109.5
820.343	6198.5
820.595	6117.5
820.848	6238.5
821.1	6266.5
821.353	6242.5
821.605	6240.5
821.857	6309.5
822.11	6221.5
822.362	6211.5
822.614	6180.5
822.866	6233.5
823.118	6209.5
823.37	6317.5
823.622	6319.5
823.874	6343.5
824.126	6411.5
824.378	6385.5
824.63	6424.5
824.882	6505.5
825.134	6425.5
825.385	6453.5
825.637	6347.5
825.888	6334.5
826.14	6320.5
826.392	6312.5
826.643	6256.5
826.895	6289.5
827.146	6181.5
827.397	6220.5
827.649	6226.5
827.9	6232.5
828.151	6143.5
828.402	6199.5
828.653	6333.5
828.905	6251.5
829.156	6323.5
829.407	6215.5
829.658	6273.5
829.909	6394.5
830.159	6374.5
830.41	6278.5
830.661	6195.5
830.912	6179.5
831.162	6229.5
831.413	6174.5
831.664	6241.5
831.914	6195.5
832.165	6217.5
832.415	6208.5
832.666	6261.5
832.916	6295.5
833.167	6237.5
833.417	6269.5
833.667	6266.5
833.917	6238.5
834.168	6328.5
834.418	6264.5
834.668	6214.5
834.918	6095.5
835.168	6151.5
835.418	6140.5
835.668	6112.5
835.918	6117.5
836.167	6103.5
836.417	6122.5
836.667	6151.5
836.917	6062.5
837.166	6098.5
837.416	6039.5
837.666	6106.5
837.915	6030.5
838.165	6026.5
838.414	5942.5
838.663	5938.5
838.913	6032.5
839.162	5988.5
839.411	6062.5
839.661	5944.5
839.91	5997.5
840.159	5973.5
840.408	5982.5
840.657	6036.5
840.906	6077.5
841.155	6054.5
841.404	6056.5
841.653	6002.5
841.902	6009.5
842.15	6062.5
842.399	6024.5
842.648	6000.5
842.897	5971.5
843.145	5907.5
843.394	5916.5
843.642	5865.5
843.891	5906.5
844.139	5866.5
844.388	5810.5
844.636	5740.5
844.884	5760.5
845.133	5768.5
845.381	5743.5
845.629	5779.5
845.877	5758.5
846.125	5766.5
846.373	5781.5
846.621	5762.5
846.869	5772.5
847.117	5703.5
847.365	5666.5
847.613	5696.5
847.861	5702.5
848.108	5756.5
848.356	5700.5
848.604	5624.5
848.851	5734.5
849.099	5740.5
849.346	5757.5
849.594	5838.5
849.841	5824.5
850.089	5807.5
850.336	5880.5
850.583	5936.5
850.831	5971.5
851.078	5944.5
851.325	5952.5
851.572	6036.5
851.819	5872.5
852.066	5717.5
852.313	5562.5
852.56	5528.5
852.807	5459.5
853.054	5438.5
853.301	5487.5
853.548	5433.5
853.794	5582.5
854.041	5535.5
854.288	5518.5
854.534	5645.5
854.781	5611.5
855.028	5606.5
855.274	5676.5
855.52	5550.5
855.767	5532.5
856.013	5526.5
856.26	5833.5
856.506	5487.5
856.752	5495.5
856.998	5558.5
857.244	5518.5
857.49	5518.5
857.736	5561.5
857.982	5560.5
858.228	5623.5
858.474	5462.5
858.72	5515.5
858.966	5441.5
859.212	5321.5
859.458	5337.5
859.703	5265.5
859.949	5170.5
860.195	5219.5
860.44	5170.5
860.686	5097.5
860.931	5211.5
861.177	5133.5
861.422	5128.5
861.667	5064.5
861.913	5065.5
862.158	5082.5
862.403	5141.5
862.648	5158.5
862.893	5218.5
863.138	5172.5
863.384	5201.5
863.629	5148.5
863.873	5130.5
864.118	5119.5
864.363	5069.5
864.608	5124.5
864.853	5143.5
865.098	5093.5
865.342	5079.5
865.587	5030.5
865.832	5067.5
866.076	5045.5
866.321	5009.5
866.565	5006.5
866.81	4937.5
867.054	4989.5
867.298	4995.5
867.543	4951.5
867.787	5009.5
868.031	5024.5
868.275	4966.5
868.519	4961.5
868.764	4987.5
869.008	4976.5
869.252	4971.5
869.496	4936.5
869.739	4932.5
869.983	4978.5
870.227	5011.5
870.471	4934.5
870.715	4964.5
870.958	4995.5
871.202	4963.5
871.446	5039.5
871.689	4963.5
871.933	4979.5
872.176	4999.5
872.42	4973.5
872.663	4976.5
872.906	5017.5
873.15	4950.5
873.393	4885.5
873.636	4992.5
873.879	4933.5
874.122	4910.5
874.366	4783.5
874.609	4831.5
874.852	4768.5
875.095	4762.5
875.337	4691.5
875.58	4621.5
875.823	4687.5
876.066	4669.5
876.309	4737.5
876.551	4615.5
876.794	4588.5
877.037	4646.5
877.279	4556.5
877.522	4628.5
877.764	4595.5
878.007	4595.5
878.249	4619.5
878.491	4568.5
878.734	4622.5
878.976	4574.5
879.218	4510.5
879.46	4545.5
879.702	4509.5
879.945	4469.5
880.187	4417.5
880.429	4456.5
880.671	4418.5
880.912	4364.5
881.154	4368.5
881.396	4290.5
881.638	4354.5
881.88	4336.5
882.121	4269.5
882.363	4291.5
882.605	4387.5
882.846	4389.5
883.088	4363.5
883.329	4291.5
883.571	4300.5
883.812	4394.5
884.053	4469.5
884.295	4508.5
884.536	4733.5
884.777	4647.5
885.018	4648.5
885.259	4618.5
885.5	4526.5
885.742	4712.5
885.982	4508.5
886.223	4431.5
886.464	4448.5
886.705	4379.5
886.946	4339.5
887.187	4234.5
887.428	4291.5
887.668	4152.5
887.909	4108.5
888.15	4047.5
888.39	4079.5
888.631	4093.5
888.871	4010.5
889.111	4004.5
889.352	3966.5
889.592	3915.5
889.833	3912.5
890.073	3902.5
890.313	3919.5
890.553	3813.5
890.793	3811.5
891.033	3772.5
891.273	3796.5
891.513	3774.5
891.753	3865.5
891.993	3801.5
892.233	3810.5
892.473	3928.5
892.713	3904.5
892.952	3826.5
893.192	3917.5
893.432	3902.5
893.671	3958.5
893.911	3978.5
894.15	3888.5
894.39	3807.5
894.629	3828.5
894.869	3812.5
895.108	3745.5
895.347	3773.5
895.587	3809.5
895.826	3746.5
896.065	3720.5
896.304	3755.5
896.543	3776.5
896.782	3711.5
897.021	3788.5
897.26	3764.5
897.499	3786.5
897.738	3800.5
897.977	3761.5
898.216	3712.5
898.454	3738.5
898.693	3708.5
898.932	3743.5
899.17	3706.5
899.409	3675.5
899.647	3641.5
899.886	3639.5
900.124	3703.5
900.363	3651.5
900.601	3669.5
900.839	3715.5
901.078	3671.5
901.316	3675.5
901.554	3698.5
901.792	3757.5
902.03	3722.5
902.268	3729.5
902.506	3767.5
902.744	3682.5
902.982	3749.5
903.22	3573.5
903.458	3530.5
903.695	3483.5
903.933	3485.5
904.171	3388.5
904.409	3321.5
904.646	3356.5
904.884	3257.5
905.121	3257.5
905.359	3167.5
905.596	3172.5
905.833	3079.5
906.071	3106.5
906.308	3132.5
906.545	3156.5
906.783	3055.5
907.02	3096.5
907.257	3038.5
907.494	3048.5
907.731	3065.5
907.968	3026.5
908.205	3017.5
908.442	3017.5
908.679	2981.5
908.915	3008.5
909.152	2949.5
909.389	2848.5
909.626	2865.5
909.862	2844.5
910.099	2895.5
910.335	2894.5
910.572	2758.5
910.808	2836.5
911.045	2848.5
911.281	2790.5
911.518	2870.5
911.754	2782.5
911.99	2825.5
912.226	2745.5
912.463	2742.5
912.699	2738.5
912.935	2692.5
913.171	2689.5
913.407	2651.5
913.643	2719.5
913.879	2613.5
914.114	2606.5
914.35	2614.5
914.586	2582.5
914.822	2559.5
915.057	2603.5
915.293	2494.5
915.529	2472.5
915.764	2575.5
916	2568.5
916.235	2528.5
916.471	2561.5
916.706	2461.5
916.941	2541.5
917.177	2502.5
917.412	2495.5
917.647	2516.5
917.882	2519.5
918.117	2532.5
918.352	2498.5
918.588	2536.5
918.823	2476.5
919.057	2440.5
919.292	2347.5
919.527	2478.5
919.762	2389.5
919.997	2424.5
920.232	2353.5
920.466	2410.5
920.701	2254.5
920.935	2323.5
921.17	2284.5
921.405	2264.5
921.639	2305.5
921.873	2242.5
922.108	2277.5
922.342	2279.5
922.576	2228.5
922.811	2255.5
923.045	2281.5
923.279	2301.5
923.513	2179.5
923.747	2257.5
923.981	2242.5
924.215	2203.5
924.449	2207.5
924.683	2153.5
924.917	2157.5
925.151	2157.5
925.385	2244.5
925.618	2168.5
925.852	2182.5
926.086	2102.5
926.319	2162.5
926.553	2168.5
926.786	2161.5
927.02	2181.5
927.253	2176.5
927.486	2183.5
927.72	2112.5
927.953	2170.5
928.186	2121.5
928.42	2170.5
928.653	2104.5
928.886	2108.5
929.119	2139.5
929.352	2112.5
929.585	2138.5
929.818	2069.5
930.051	2090.5
930.284	2076.5
930.516	2031.5
930.749	2037.5
930.982	2063.5
931.215	2067.5
931.447	2004.5
931.68	2014.5
931.912	1984.5
932.145	2008.5
932.377	2031.5
932.61	2176.5
932.842	1951.5
933.074	2048.5
933.307	1999.5
933.539	2105.5
933.771	2116.5
934.003	2111.5
934.236	2291.5
934.468	2362.5
934.7	2383.5
934.932	2485.5
935.164	2434.5
935.395	2351.5
935.627	2291.5
935.859	2169.5
936.091	2046.5
936.323	2079.5
936.554	2077.5
936.786	2025.5
937.017	1952.5
937.249	2041.5
937.481	1939.5
937.712	2036.5
937.943	2016.5
938.175	2015.5
938.406	2003.5
938.637	2057.5
938.869	2017.5
939.1	2122.5
939.331	2085.5
939.562	2158.5
939.793	2269.5
940.024	2546.5
940.255	3252.5
940.486	4355.5
940.717	4931.5
940.948	4667.5
941.179	3951.5
941.409	3405.5
941.64	2794.5
941.871	2444.5
942.102	2206.5
942.332	2074.5
942.563	2052.5
942.793	1994.5
943.024	1928.5
943.254	2004.5
943.484	2018.5
943.715	1968.5
943.945	1957.5
944.175	1865.5
944.405	1871.5
944.636	1865.5
944.866	1949.5
945.096	1931.5
945.326	1880.5
945.556	1920.5
945.786	1944.5
946.016	1908.5
946.245	1843.5
946.475	1851.5
946.705	1846.5
946.935	1843.5
947.164	1855.5
947.394	1831.5
947.624	1831.5
947.853	1874.5
948.083	1844.5
948.312	1827.5
948.542	1737.5
948.771	1744.5
949	1788.5
949.23	1768.5
949.459	1773.5
949.688	1858.5
949.917	1808.5
950.146	1798.5
950.375	1902.5
950.604	1761.5
950.833	1844.5
951.062	1847.5
951.291	1788.5
951.52	1752.5
951.749	1784.5
951.978	1739.5
952.206	1761.5
952.435	1774.5
952.664	1795.5
952.892	1797.5
953.121	1776.5
953.349	1816.5
953.578	1799.5
953.806	1759.5
954.035	1703.5
954.263	1739.5
954.491	1697.5
954.719	1739.5
954.948	1692.5
955.176	1691.5
955.404	1644.5
955.632	1681.5
955.86	1724.5
956.088	1719.5
956.316	1731.5
956.544	1735.5
956.772	1689.5
956.999	1654.5
957.227	1745.5
957.455	1675.5
957.683	1660.5
957.91	1645.5
958.138	1608.5
958.365	1640.5
958.593	1652.5
958.82	1593.5
959.048	1637.5
959.275	1616.5
959.502	1640.5
959.73	1604.5
959.957	1687.5
960.184	1679.5
960.411	1625.5
960.638	1702.5
960.865	1619.5
961.092	1670.5
961.319	1567.5
961.546	1635.5
961.773	1658.5
962	1590.5
962.227	1638.5
962.454	1642.5
962.68	1576.5
962.907	1625.5
963.134	1574.5
963.36	1597.5
963.587	1636.5
963.813	1575.5
964.04	1581.5
964.266	1541.5
964.493	1606.5
964.719	1604.5
964.945	1595.5
965.171	1495.5
965.398	1572.5
965.624	1566.5
965.85	1515.5
966.076	1528.5
966.302	1550.5
966.528	1530.5
966.754	1558.5
966.98	1557.5
967.206	1528.5
967.431	1487.5
967.657	1575.5
967.883	1542.5
968.109	1540.5
968.334	1504.5
968.56	1447.5
968.785	1513.5
969.011	1440.5
969.236	1523.5
969.462	1470.5
969.687	1500.5
969.912	1521.5
970.138	1516.5
970.363	1442.5
970.588	1496.5
970.813	1461.5
971.038	1454.5
971.263	1484.5
971.488	1502.5
971.713	1520.5
971.938	1501.5
972.163	1407.5
972.388	1446.5
972.613	1425.5
972.838	1448.5
973.062	1439.5
973.287	1433.5
973.512	1343.5
973.736	1429.5
973.961	1402.5
974.185	1378.5
974.41	1448.5
974.634	1347.5
974.858	1364.5
975.083	1418.5
975.307	1411.5
975.531	1361.5
975.755	1289.5
975.98	1351.5
976.204	1289.5
976.428	1277.5
976.652	1280.5
976.876	1279.5
977.1	1313.5
977.324	1285.5
977.547	1365.5
977.771	1364.5
977.995	1332.5
978.219	1257.5
978.442	1381.5
978.666	1292.5
978.89	1300.5
979.113	1331.5
979.337	1313.5
979.56	1271.5
979.783	1360.5
980.007	1279.5
980.23	1286.5
980.453	1276.5
980.677	1305.5
980.9	1285.5
981.123	1220.5
981.346	1294.5
981.569	1291.5
981.792	1307.5
982.015	1248.5
982.238	1228.5
982.461	1273.5
982.684	1220.5
982.907	1238.5
983.129	1237.5
983.352	1282.5
983.575	1240.5
983.797	1242.5
984.02	1198.5
984.242	1210.5
984.465	1233.5
984.687	1262.5
984.91	1259.5
985.132	1267.5
985.354	1275.5
985.577	1241.5
985.799	1219.5
986.021	1158.5
986.243	1195.5
986.465	1213.5
986.687	1253.5
986.909	1288.5
987.131	1215.5
987.353	1227.5
987.575	1228.5
987.797	1202.5
988.019	1144.5
988.241	1195.5
988.462	1168.5
988.684	1209.5
988.906	1255.5
989.127	1268.5
989.349	1165.5
989.57	1191.5
989.792	1242.5
990.013	1239.5
990.234	1251.5
990.456	1262.5
990.677	1259.5
990.898	1185.5
991.119	1172.5
991.341	1227.5
991.562	1165.5
991.783	1215.5
992.004	1127.5
992.225	1136.5
992.446	1196.5
992.667	1109.5
992.887	1189.5
993.108	1096.5
993.329	1200.5
993.55	1164.5
993.77	1119.5
993.991	1138.5
994.212	1167.5
994.432	1152.5
994.653	1176.5
994.873	1173.5
995.093	1049.5
995.314	1099.5
995.534	1176.5
995.754	1201.5
995.975	1195.5
996.195	1101.5
996.415	1158.5
996.635	1149.5
996.855	1140.5
997.075	1139.5
997.295	1134.5
997.515	1092.5
997.735	1159.5
997.955	1132.5
998.174	1130.5
998.394	1113.5
998.614	1139.5
998.834	1109.5
999.053	1183.5
999.273	1139.5
999.492	1202.5
999.712	1144.5
999.931	1121.5
1000.151	1185.5
1000.37	1146.5
1000.589	1210.5
1000.809	1130.5
1001.028	1229.5
1001.247	1168.5
1001.466	1086.5
1001.685	1205.5
1001.904	1185.5
1002.123	1122.5
1002.342	1184.5
1002.561	1135.5
1002.78	1141.5
1002.999	1209.5
1003.218	1154.5
1003.436	1146.5
1003.655	1188.5
1003.874	1140.5
1004.092	1184.5
1004.311	1185.5
1004.53	1136.5
1004.748	1243.5
1004.966	1165.5
1005.185	1190.5
1005.403	1221.5
1005.622	1186.5
1005.84	1247.5
1006.058	1148.5
1006.276	1218.5
1006.494	1691.5
1006.712	1171.5
1006.931	1258.5
1007.149	1159.5
1007.367	1141.5
1007.584	1190.5
1007.802	1222.5
1008.02	1174.5
1008.238	1262.5
1008.456	1255.5
1008.673	1117.5
1008.891	1242.5
1009.109	1164.5
1009.326	1217.5
1009.544	1307.5
1009.761	1200.5
1009.979	1296.5
1010.196	1257.5
1010.413	1331.5
1010.631	1379.5
1010.848	1387.5
1011.065	1396.5
1011.282	1339.5
1011.5	1284.5
1011.717	1413.5
1011.934	1356.5
1012.151	1393.5
1012.368	1385.5
1012.585	1347.5
1012.801	1388.5
1013.018	1375.5
1013.235	1326.5
1013.452	1338.5
1013.669	1338.5
1013.885	1322.5
1014.102	1369.5
1014.318	1385.5
1014.535	1307.5
1014.751	1383.5
1014.968	1387.5
1015.184	1373.5
1015.401	1301.5
1015.617	1322.5
1015.833	1314.5
1016.049	1280.5
1016.266	1270.5
1016.482	1287.5
1016.698	1244.5
1016.914	1290.5
1017.13	1238.5
1017.346	1234.5
1017.562	1317.5
1017.778	1282.5
1017.993	1229.5
1018.209	1265.5
1018.425	1253.5
1018.641	1240.5
1018.856	1216.5
1019.072	1243.5
1019.288	1298.5
1019.503	1264.5
1019.719	1174.5
1019.934	1184.5
1020.149	1286.5
1020.365	1223.5
1020.58	1186.5
1020.795	1221.5
1021.011	1170.5
1021.226	1156.5
1021.441	1179.5
1021.656	1082.5
1021.871	1033.5
1022.086	1054.5
1022.301	1067.5
1022.516	1061.5
1022.731	1087.5
1022.946	1008.5
1023.16	1012.5
1023.375	967.5
1023.59	949.5
1023.804	923.5
1024.019	1022.5
1024.234	907.5
1024.448	948.5
1024.663	873.5
1024.877	896.5
1025.092	915.5
1025.306	936.5
1025.52	842.5
1025.734	927.5
1025.949	839.5
1026.163	818.5
1026.377	771.5
1026.591	808.5
1026.805	758.5
1027.019	757.5
1027.233	707.5
1027.447	681.5
1027.661	765.5
1027.875	726.5
1028.088	720.5
1028.302	681.5
1028.516	648.5
1028.73	649.5
1028.943	659.5
1029.157	608.5
1029.37	558.5
1029.584	-2.5
1029.797	-4.5
1030.011	1.5
1030.224	-2.5
