Data from QEP037381__272__11-05-56-589.txt Node

Date: Wed Dec 21 11:05:56 EST 2022
User: dcclab
Spectrometer: QEP03738
Trigger mode: 4
Integration Time (sec): 1.000000E1
Scans to average: 1
Electric dark correction enabled: true
Nonlinearity correction enabled: false
Boxcar width: 0
XAxis mode: Wavelengths
Number of Pixels in Spectrum: 1044
>>>>>Begin Spectral Data<<<<<
784.041	11.5
784.3	-0.5
784.558	0.5
784.817	-3.5
785.075	99870.5
785.334	17221.5
785.592	8109.5
785.851	5630.5
786.109	4229.5
786.368	3281.5
786.626	2676.5
786.884	2232.5
787.143	1880.5
787.401	1570.5
787.659	1407.5
787.917	1176.5
788.175	1076.5
788.433	911.5
788.691	858.5
788.949	771.5
789.207	739.5
789.465	633.5
789.723	609.5
789.98	566.5
790.238	588.5
790.496	554.5
790.753	539.5
791.011	570.5
791.268	502.5
791.526	484.5
791.783	503.5
792.041	483.5
792.298	391.5
792.556	484.5
792.813	448.5
793.07	422.5
793.327	400.5
793.584	489.5
793.841	402.5
794.099	432.5
794.356	492.5
794.613	379.5
794.869	425.5
795.126	389.5
795.383	363.5
795.64	402.5
795.897	337.5
796.153	393.5
796.41	383.5
796.667	356.5
796.923	375.5
797.18	356.5
797.436	391.5
797.693	355.5
797.949	407.5
798.206	434.5
798.462	346.5
798.718	406.5
798.974	371.5
799.231	416.5
799.487	399.5
799.743	395.5
799.999	408.5
800.255	400.5
800.511	380.5
800.767	404.5
801.023	376.5
801.279	400.5
801.534	394.5
801.79	439.5
802.046	383.5
802.302	470.5
802.557	465.5
802.813	490.5
803.068	488.5
803.324	606.5
803.579	689.5
803.835	843.5
804.09	1097.5
804.345	1315.5
804.601	1596.5
804.856	1918.5
805.111	2194.5
805.366	2338.5
805.621	2478.5
805.876	2575.5
806.131	2611.5
806.386	2625.5
806.641	2646.5
806.896	2708.5
807.151	2831.5
807.406	2825.5
807.661	2838.5
807.915	2908.5
808.17	2970.5
808.425	2974.5
808.679	3033.5
808.934	3098.5
809.188	3073.5
809.443	3144.5
809.697	3153.5
809.951	3164.5
810.206	3172.5
810.46	3251.5
810.714	3231.5
810.968	3325.5
811.223	3297.5
811.477	3341.5
811.731	3386.5
811.985	3303.5
812.239	3308.5
812.493	3371.5
812.747	3429.5
813	3367.5
813.254	3471.5
813.508	3444.5
813.762	3435.5
814.015	3450.5
814.269	3545.5
814.522	3527.5
814.776	3610.5
815.03	3654.5
815.283	3674.5
815.536	3754.5
815.79	3768.5
816.043	3837.5
816.296	3900.5
816.55	3944.5
816.803	3950.5
817.056	4096.5
817.309	4080.5
817.562	4130.5
817.815	4206.5
818.068	4154.5
818.321	4175.5
818.574	4263.5
818.827	4371.5
819.079	4360.5
819.332	4560.5
819.585	4552.5
819.838	4644.5
820.09	4590.5
820.343	4637.5
820.595	4656.5
820.848	4712.5
821.1	4727.5
821.353	4695.5
821.605	4690.5
821.857	4754.5
822.11	4602.5
822.362	4688.5
822.614	4631.5
822.866	4701.5
823.118	4661.5
823.37	4796.5
823.622	4721.5
823.874	4780.5
824.126	4796.5
824.378	4753.5
824.63	4795.5
824.882	4834.5
825.134	4790.5
825.385	4810.5
825.637	4762.5
825.888	4664.5
826.14	4688.5
826.392	4683.5
826.643	4626.5
826.895	4717.5
827.146	4599.5
827.397	4550.5
827.649	4685.5
827.9	4564.5
828.151	4586.5
828.402	4570.5
828.653	4632.5
828.905	4607.5
829.156	4686.5
829.407	4571.5
829.658	4625.5
829.909	4687.5
830.159	4721.5
830.41	4673.5
830.661	4677.5
830.912	4613.5
831.162	4566.5
831.413	4587.5
831.664	4629.5
831.914	4624.5
832.165	4626.5
832.415	4624.5
832.666	4639.5
832.916	4678.5
833.167	4598.5
833.417	4674.5
833.667	4629.5
833.917	4579.5
834.168	4670.5
834.418	4621.5
834.668	4640.5
834.918	4560.5
835.168	4562.5
835.418	4478.5
835.668	4550.5
835.918	4532.5
836.167	4548.5
836.417	4430.5
836.667	4513.5
836.917	4540.5
837.166	4481.5
837.416	4522.5
837.666	4503.5
837.915	4423.5
838.165	4435.5
838.414	4394.5
838.663	4385.5
838.913	4481.5
839.162	4382.5
839.411	4487.5
839.661	4455.5
839.91	4425.5
840.159	4454.5
840.408	4498.5
840.657	4415.5
840.906	4484.5
841.155	4538.5
841.404	4483.5
841.653	4470.5
841.902	4402.5
842.15	4466.5
842.399	4490.5
842.648	4495.5
842.897	4529.5
843.145	4389.5
843.394	4372.5
843.642	4338.5
843.891	4424.5
844.139	4362.5
844.388	4246.5
844.636	4224.5
844.884	4263.5
845.133	4235.5
845.381	4282.5
845.629	4337.5
845.877	4209.5
846.125	4240.5
846.373	4285.5
846.621	4224.5
846.869	4313.5
847.117	4255.5
847.365	4210.5
847.613	4214.5
847.861	4218.5
848.108	4236.5
848.356	4209.5
848.604	4174.5
848.851	4210.5
849.099	4213.5
849.346	4229.5
849.594	4306.5
849.841	4343.5
850.089	4376.5
850.336	4354.5
850.583	4445.5
850.831	4438.5
851.078	4452.5
851.325	4433.5
851.572	4518.5
851.819	4378.5
852.066	4244.5
852.313	4109.5
852.56	3984.5
852.807	4015.5
853.054	4032.5
853.301	4049.5
853.548	4069.5
853.794	4195.5
854.041	4140.5
854.288	4121.5
854.534	4248.5
854.781	4183.5
855.028	4150.5
855.274	4226.5
855.52	4148.5
855.767	4110.5
856.013	4146.5
856.26	4442.5
856.506	4091.5
856.752	4114.5
856.998	4074.5
857.244	4132.5
857.49	4132.5
857.736	4163.5
857.982	4155.5
858.228	4105.5
858.474	4023.5
858.72	4041.5
858.966	4003.5
859.212	4022.5
859.458	3919.5
859.703	3851.5
859.949	3821.5
860.195	3854.5
860.44	3820.5
860.686	3786.5
860.931	3844.5
861.177	3724.5
861.422	3780.5
861.667	3732.5
861.913	3711.5
862.158	3701.5
862.403	3792.5
862.648	3734.5
862.893	3811.5
863.138	3757.5
863.384	3698.5
863.629	3751.5
863.873	3776.5
864.118	3735.5
864.363	3690.5
864.608	3731.5
864.853	3805.5
865.098	3666.5
865.342	3703.5
865.587	3688.5
865.832	3725.5
866.076	3686.5
866.321	3662.5
866.565	3645.5
866.81	3581.5
867.054	3684.5
867.298	3635.5
867.543	3625.5
867.787	3648.5
868.031	3635.5
868.275	3651.5
868.519	3680.5
868.764	3671.5
869.008	3670.5
869.252	3721.5
869.496	3625.5
869.739	3664.5
869.983	3727.5
870.227	3711.5
870.471	3672.5
870.715	3734.5
870.958	3740.5
871.202	3690.5
871.446	3707.5
871.689	3741.5
871.933	3732.5
872.176	3708.5
872.42	3712.5
872.663	3696.5
872.906	3800.5
873.15	3733.5
873.393	3711.5
873.636	3773.5
873.879	3720.5
874.122	3734.5
874.366	3604.5
874.609	3597.5
874.852	3559.5
875.095	3593.5
875.337	3514.5
875.58	3418.5
875.823	3504.5
876.066	3504.5
876.309	3503.5
876.551	3423.5
876.794	3402.5
877.037	3430.5
877.279	3367.5
877.522	3378.5
877.764	3430.5
878.007	3353.5
878.249	3413.5
878.491	3298.5
878.734	3385.5
878.976	3349.5
879.218	3289.5
879.46	3354.5
879.702	3283.5
879.945	3254.5
880.187	3232.5
880.429	3207.5
880.671	3177.5
880.912	3216.5
881.154	3164.5
881.396	3105.5
881.638	3173.5
881.88	3170.5
882.121	3125.5
882.363	3195.5
882.605	3215.5
882.846	3182.5
883.088	3200.5
883.329	3182.5
883.571	3192.5
883.812	3296.5
884.053	3400.5
884.295	3517.5
884.536	3691.5
884.777	3627.5
885.018	3644.5
885.259	3630.5
885.5	3526.5
885.742	3755.5
885.982	3531.5
886.223	3458.5
886.464	3405.5
886.705	3312.5
886.946	3305.5
887.187	3140.5
887.428	3161.5
887.668	3075.5
887.909	3043.5
888.15	2980.5
888.39	3017.5
888.631	3035.5
888.871	2952.5
889.111	2926.5
889.352	2876.5
889.592	2854.5
889.833	2848.5
890.073	2864.5
890.313	2869.5
890.553	2697.5
890.793	2811.5
891.033	2712.5
891.273	2713.5
891.513	2767.5
891.753	2789.5
891.993	2717.5
892.233	2805.5
892.473	2832.5
892.713	2762.5
892.952	2727.5
893.192	2794.5
893.432	2746.5
893.671	2852.5
893.911	2791.5
894.15	2788.5
894.39	2708.5
894.629	2721.5
894.869	2757.5
895.108	2729.5
895.347	2683.5
895.587	2714.5
895.826	2719.5
896.065	2714.5
896.304	2769.5
896.543	2736.5
896.782	2661.5
897.021	2771.5
897.26	2771.5
897.499	2856.5
897.738	2857.5
897.977	2787.5
898.216	2758.5
898.454	2722.5
898.693	2645.5
898.932	2735.5
899.17	2729.5
899.409	2728.5
899.647	2737.5
899.886	2684.5
900.124	2779.5
900.363	2677.5
900.601	2741.5
900.839	2763.5
901.078	2806.5
901.316	2851.5
901.554	2849.5
901.792	2893.5
902.03	2851.5
902.268	2895.5
902.506	2941.5
902.744	2884.5
902.982	2807.5
903.22	2752.5
903.458	2699.5
903.695	2688.5
903.933	2615.5
904.171	2523.5
904.409	2459.5
904.646	2459.5
904.884	2418.5
905.121	2440.5
905.359	2382.5
905.596	2382.5
905.833	2279.5
906.071	2249.5
906.308	2329.5
906.545	2268.5
906.783	2215.5
907.02	2251.5
907.257	2229.5
907.494	2209.5
907.731	2225.5
907.968	2263.5
908.205	2170.5
908.442	2161.5
908.679	2186.5
908.915	2137.5
909.152	2170.5
909.389	2072.5
909.626	2083.5
909.862	2075.5
910.099	2106.5
910.335	2149.5
910.572	2028.5
910.808	2076.5
911.045	2053.5
911.281	2017.5
911.518	2075.5
911.754	2041.5
911.99	2004.5
912.226	2018.5
912.463	1983.5
912.699	1985.5
912.935	1948.5
913.171	1948.5
913.407	1920.5
913.643	1984.5
913.879	1972.5
914.114	1908.5
914.35	1894.5
914.586	1900.5
914.822	1870.5
915.057	1928.5
915.293	1790.5
915.529	1783.5
915.764	1883.5
916	1858.5
916.235	1866.5
916.471	1862.5
916.706	1782.5
916.941	1863.5
917.177	1794.5
917.412	1850.5
917.647	1827.5
917.882	1809.5
918.117	1869.5
918.352	1806.5
918.588	1871.5
918.823	1772.5
919.057	1785.5
919.292	1714.5
919.527	1829.5
919.762	1724.5
919.997	1772.5
920.232	1720.5
920.466	1750.5
920.701	1634.5
920.935	1710.5
921.17	1679.5
921.405	1660.5
921.639	1705.5
921.873	1682.5
922.108	1674.5
922.342	1712.5
922.576	1622.5
922.811	1643.5
923.045	1693.5
923.279	1711.5
923.513	1585.5
923.747	1659.5
923.981	1639.5
924.215	1627.5
924.449	1596.5
924.683	1571.5
924.917	1582.5
925.151	1563.5
925.385	1675.5
925.618	1635.5
925.852	1611.5
926.086	1570.5
926.319	1633.5
926.553	1583.5
926.786	1622.5
927.02	1565.5
927.253	1644.5
927.486	1629.5
927.72	1547.5
927.953	1650.5
928.186	1574.5
928.42	1596.5
928.653	1548.5
928.886	1546.5
929.119	1589.5
929.352	1581.5
929.585	1580.5
929.818	1534.5
930.051	1567.5
930.284	1558.5
930.516	1466.5
930.749	1513.5
930.982	1556.5
931.215	1543.5
931.447	1457.5
931.68	1484.5
931.912	1487.5
932.145	1480.5
932.377	1500.5
932.61	1648.5
932.842	1425.5
933.074	1515.5
933.307	1487.5
933.539	1552.5
933.771	1537.5
934.003	1523.5
934.236	1583.5
934.468	1595.5
934.7	1538.5
934.932	1530.5
935.164	1482.5
935.395	1468.5
935.627	1539.5
935.859	1503.5
936.091	1449.5
936.323	1535.5
936.554	1521.5
936.786	1504.5
937.017	1450.5
937.249	1475.5
937.481	1436.5
937.712	1512.5
937.943	1471.5
938.175	1465.5
938.406	1466.5
938.637	1520.5
938.869	1448.5
939.1	1504.5
939.331	1446.5
939.562	1476.5
939.793	1482.5
940.024	1506.5
940.255	1520.5
940.486	1449.5
940.717	1477.5
940.948	1474.5
941.179	1424.5
941.409	1450.5
941.64	1430.5
941.871	1426.5
942.102	1422.5
942.332	1437.5
942.563	1450.5
942.793	1463.5
943.024	1367.5
943.254	1440.5
943.484	1480.5
943.715	1475.5
943.945	1462.5
944.175	1390.5
944.405	1380.5
944.636	1401.5
944.866	1456.5
945.096	1462.5
945.326	1364.5
945.556	1420.5
945.786	1447.5
946.016	1408.5
946.245	1381.5
946.475	1366.5
946.705	1371.5
946.935	1396.5
947.164	1393.5
947.394	1349.5
947.624	1381.5
947.853	1405.5
948.083	1372.5
948.312	1334.5
948.542	1327.5
948.771	1346.5
949	1313.5
949.23	1340.5
949.459	1349.5
949.688	1401.5
949.917	1352.5
950.146	1357.5
950.375	1414.5
950.604	1323.5
950.833	1423.5
951.062	1373.5
951.291	1342.5
951.52	1313.5
951.749	1332.5
951.978	1307.5
952.206	1308.5
952.435	1297.5
952.664	1370.5
952.892	1343.5
953.121	1347.5
953.349	1370.5
953.578	1339.5
953.806	1335.5
954.035	1257.5
954.263	1320.5
954.491	1271.5
954.719	1335.5
954.948	1283.5
955.176	1252.5
955.404	1213.5
955.632	1288.5
955.86	1289.5
956.088	1287.5
956.316	1299.5
956.544	1325.5
956.772	1273.5
956.999	1281.5
957.227	1336.5
957.455	1262.5
957.683	1271.5
957.91	1233.5
958.138	1228.5
958.365	1229.5
958.593	1248.5
958.82	1176.5
959.048	1278.5
959.275	1238.5
959.502	1246.5
959.73	1243.5
959.957	1258.5
960.184	1291.5
960.411	1255.5
960.638	1327.5
960.865	1244.5
961.092	1274.5
961.319	1183.5
961.546	1246.5
961.773	1285.5
962	1214.5
962.227	1261.5
962.454	1215.5
962.68	1237.5
962.907	1261.5
963.134	1199.5
963.36	1238.5
963.587	1254.5
963.813	1171.5
964.04	1234.5
964.266	1174.5
964.493	1274.5
964.719	1235.5
964.945	1247.5
965.171	1143.5
965.398	1220.5
965.624	1215.5
965.85	1180.5
966.076	1157.5
966.302	1207.5
966.528	1170.5
966.754	1202.5
966.98	1213.5
967.206	1206.5
967.431	1130.5
967.657	1212.5
967.883	1201.5
968.109	1189.5
968.334	1129.5
968.56	1149.5
968.785	1166.5
969.011	1114.5
969.236	1164.5
969.462	1113.5
969.687	1162.5
969.912	1182.5
970.138	1215.5
970.363	1119.5
970.588	1164.5
970.813	1129.5
971.038	1108.5
971.263	1142.5
971.488	1149.5
971.713	1195.5
971.938	1150.5
972.163	1078.5
972.388	1136.5
972.613	1116.5
972.838	1108.5
973.062	1103.5
973.287	1119.5
973.512	1043.5
973.736	1087.5
973.961	1088.5
974.185	1074.5
974.41	1133.5
974.634	1031.5
974.858	1064.5
975.083	1096.5
975.307	1117.5
975.531	1046.5
975.755	1042.5
975.98	1039.5
976.204	991.5
976.428	961.5
976.652	1007.5
976.876	985.5
977.1	1034.5
977.324	1001.5
977.547	1054.5
977.771	1063.5
977.995	1029.5
978.219	975.5
978.442	1105.5
978.666	1047.5
978.89	1027.5
979.113	1037.5
979.337	1030.5
979.56	1004.5
979.783	1088.5
980.007	982.5
980.23	1033.5
980.453	969.5
980.677	1041.5
980.9	1033.5
981.123	950.5
981.346	1023.5
981.569	1021.5
981.792	1050.5
982.015	1005.5
982.238	955.5
982.461	1006.5
982.684	970.5
982.907	940.5
983.129	957.5
983.352	1032.5
983.575	996.5
983.797	1001.5
984.02	961.5
984.242	968.5
984.465	963.5
984.687	1013.5
984.91	1020.5
985.132	999.5
985.354	1045.5
985.577	995.5
985.799	994.5
986.021	918.5
986.243	950.5
986.465	961.5
986.687	1040.5
986.909	1065.5
987.131	966.5
987.353	952.5
987.575	995.5
987.797	973.5
988.019	921.5
988.241	982.5
988.462	925.5
988.684	999.5
988.906	1045.5
989.127	1058.5
989.349	918.5
989.57	983.5
989.792	1021.5
990.013	1036.5
990.234	1037.5
990.456	1051.5
990.677	1023.5
990.898	976.5
991.119	980.5
991.341	1030.5
991.562	967.5
991.783	983.5
992.004	938.5
992.225	927.5
992.446	971.5
992.667	903.5
992.887	985.5
993.108	906.5
993.329	1036.5
993.55	974.5
993.77	942.5
993.991	932.5
994.212	960.5
994.432	955.5
994.653	957.5
994.873	989.5
995.093	861.5
995.314	906.5
995.534	988.5
995.754	1009.5
995.975	1022.5
996.195	923.5
996.415	973.5
996.635	975.5
996.855	997.5
997.075	954.5
997.295	971.5
997.515	923.5
997.735	995.5
997.955	958.5
998.174	957.5
998.394	939.5
998.614	1013.5
998.834	957.5
999.053	1013.5
999.273	984.5
999.492	1042.5
999.712	971.5
999.931	933.5
1000.151	996.5
1000.37	967.5
1000.589	1047.5
1000.809	966.5
1001.028	1079.5
1001.247	1031.5
1001.466	911.5
1001.685	1059.5
1001.904	999.5
1002.123	1001.5
1002.342	1002.5
1002.561	961.5
1002.78	1004.5
1002.999	1068.5
1003.218	1015.5
1003.436	993.5
1003.655	1024.5
1003.874	985.5
1004.092	1000.5
1004.311	1049.5
1004.53	1015.5
1004.748	1105.5
1004.966	1010.5
1005.185	1079.5
1005.403	1063.5
1005.622	1021.5
1005.84	1123.5
1006.058	1016.5
1006.276	1066.5
1006.494	1535.5
1006.712	1056.5
1006.931	1107.5
1007.149	1038.5
1007.367	1041.5
1007.584	1072.5
1007.802	1108.5
1008.02	1068.5
1008.238	1144.5
1008.456	1149.5
1008.673	1014.5
1008.891	1142.5
1009.109	1088.5
1009.326	1151.5
1009.544	1220.5
1009.761	1147.5
1009.979	1248.5
1010.196	1246.5
1010.413	1333.5
1010.631	1404.5
1010.848	1418.5
1011.065	1412.5
1011.282	1371.5
1011.5	1325.5
1011.717	1444.5
1011.934	1379.5
1012.151	1414.5
1012.368	1406.5
1012.585	1372.5
1012.801	1422.5
1013.018	1365.5
1013.235	1339.5
1013.452	1380.5
1013.669	1379.5
1013.885	1340.5
1014.102	1418.5
1014.318	1382.5
1014.535	1339.5
1014.751	1385.5
1014.968	1407.5
1015.184	1391.5
1015.401	1351.5
1015.617	1372.5
1015.833	1319.5
1016.049	1313.5
1016.266	1310.5
1016.482	1327.5
1016.698	1258.5
1016.914	1321.5
1017.13	1272.5
1017.346	1238.5
1017.562	1348.5
1017.778	1288.5
1017.993	1227.5
1018.209	1324.5
1018.425	1283.5
1018.641	1251.5
1018.856	1223.5
1019.072	1268.5
1019.288	1312.5
1019.503	1250.5
1019.719	1193.5
1019.934	1207.5
1020.149	1272.5
1020.365	1206.5
1020.58	1171.5
1020.795	1223.5
1021.011	1151.5
1021.226	1144.5
1021.441	1167.5
1021.656	1074.5
1021.871	1033.5
1022.086	1030.5
1022.301	1044.5
1022.516	1026.5
1022.731	1047.5
1022.946	978.5
1023.16	979.5
1023.375	951.5
1023.59	925.5
1023.804	913.5
1024.019	980.5
1024.234	889.5
1024.448	915.5
1024.663	840.5
1024.877	841.5
1025.092	877.5
1025.306	894.5
1025.52	803.5
1025.734	885.5
1025.949	812.5
1026.163	785.5
1026.377	726.5
1026.591	801.5
1026.805	717.5
1027.019	713.5
1027.233	690.5
1027.447	630.5
1027.661	738.5
1027.875	683.5
1028.088	709.5
1028.302	623.5
1028.516	638.5
1028.73	610.5
1028.943	609.5
1029.157	573.5
1029.37	544.5
1029.584	-2.5
1029.797	-2.5
1030.011	0.5
1030.224	-3.5
