Data from QEP037381__313__11-12-46-591.txt Node

Date: Wed Dec 21 11:12:46 EST 2022
User: dcclab
Spectrometer: QEP03738
Trigger mode: 4
Integration Time (sec): 1.000000E1
Scans to average: 1
Electric dark correction enabled: true
Nonlinearity correction enabled: false
Boxcar width: 0
XAxis mode: Wavelengths
Number of Pixels in Spectrum: 1044
>>>>>Begin Spectral Data<<<<<
784.041	10.38
784.3	-1.62
784.558	-2.62
784.817	-6.62
785.075	101085.38
785.334	16698.38
785.592	7551.38
785.851	5160.38
786.109	3914.38
786.368	3047.38
786.626	2440.38
786.884	2020.38
787.143	1707.38
787.401	1395.38
787.659	1263.38
787.917	1089.38
788.175	1004.38
788.433	883.38
788.691	798.38
788.949	735.38
789.207	708.38
789.465	618.38
789.723	582.38
789.98	548.38
790.238	580.38
790.496	540.38
790.753	526.38
791.011	589.38
791.268	495.38
791.526	494.38
791.783	489.38
792.041	480.38
792.298	393.38
792.556	474.38
792.813	464.38
793.07	428.38
793.327	406.38
793.584	501.38
793.841	421.38
794.099	433.38
794.356	482.38
794.613	388.38
794.869	441.38
795.126	382.38
795.383	362.38
795.64	387.38
795.897	337.38
796.153	396.38
796.41	388.38
796.667	360.38
796.923	371.38
797.18	376.38
797.436	404.38
797.693	364.38
797.949	402.38
798.206	452.38
798.462	350.38
798.718	408.38
798.974	377.38
799.231	415.38
799.487	394.38
799.743	412.38
799.999	424.38
800.255	421.38
800.511	389.38
800.767	425.38
801.023	386.38
801.279	422.38
801.534	424.38
801.79	442.38
802.046	433.38
802.302	502.38
802.557	484.38
802.813	560.38
803.068	557.38
803.324	719.38
803.579	857.38
803.835	1066.38
804.09	1450.38
804.345	1793.38
804.601	2241.38
804.856	2763.38
805.111	3139.38
805.366	3430.38
805.621	3647.38
805.876	3796.38
806.131	3850.38
806.386	3912.38
806.641	3901.38
806.896	3999.38
807.151	4152.38
807.406	4164.38
807.661	4258.38
807.915	4341.38
808.17	4409.38
808.425	4433.38
808.679	4435.38
808.934	4564.38
809.188	4625.38
809.443	4631.38
809.697	4714.38
809.951	4734.38
810.206	4749.38
810.46	4858.38
810.714	4891.38
810.968	4958.38
811.223	4930.38
811.477	4975.38
811.731	5061.38
811.985	5041.38
812.239	5078.38
812.493	5120.38
812.747	5136.38
813	5141.38
813.254	5206.38
813.508	5255.38
813.762	5248.38
814.015	5285.38
814.269	5310.38
814.522	5384.38
814.776	5451.38
815.03	5520.38
815.283	5595.38
815.536	5721.38
815.79	5783.38
816.043	5849.38
816.296	5924.38
816.55	6029.38
816.803	6013.38
817.056	6239.38
817.309	6329.38
817.562	6301.38
817.815	6405.38
818.068	6381.38
818.321	6507.38
818.574	6568.38
818.827	6678.38
819.079	6805.38
819.332	7009.38
819.585	7023.38
819.838	7212.38
820.09	7135.38
820.343	7278.38
820.595	7286.38
820.848	7367.38
821.1	7382.38
821.353	7312.38
821.605	7307.38
821.857	7376.38
822.11	7234.38
822.362	7339.38
822.614	7271.38
822.866	7332.38
823.118	7308.38
823.37	7468.38
823.622	7455.38
823.874	7528.38
824.126	7511.38
824.378	7528.38
824.63	7533.38
824.882	7557.38
825.134	7549.38
825.385	7588.38
825.637	7541.38
825.888	7445.38
826.14	7438.38
826.392	7389.38
826.643	7441.38
826.895	7387.38
827.146	7372.38
827.397	7300.38
827.649	7390.38
827.9	7262.38
828.151	7337.38
828.402	7323.38
828.653	7366.38
828.905	7435.38
829.156	7467.38
829.407	7350.38
829.658	7416.38
829.909	7473.38
830.159	7495.38
830.41	7479.38
830.661	7442.38
830.912	7415.38
831.162	7378.38
831.413	7401.38
831.664	7420.38
831.914	7373.38
832.165	7422.38
832.415	7424.38
832.666	7376.38
832.916	7401.38
833.167	7392.38
833.417	7451.38
833.667	7378.38
833.917	7340.38
834.168	7418.38
834.418	7388.38
834.668	7367.38
834.918	7320.38
835.168	7301.38
835.418	7227.38
835.668	7303.38
835.918	7339.38
836.167	7292.38
836.417	7202.38
836.667	7270.38
836.917	7301.38
837.166	7207.38
837.416	7254.38
837.666	7260.38
837.915	7175.38
838.165	7239.38
838.414	7134.38
838.663	7118.38
838.913	7209.38
839.162	7134.38
839.411	7169.38
839.661	7141.38
839.91	7153.38
840.159	7133.38
840.408	7150.38
840.657	7162.38
840.906	7269.38
841.155	7230.38
841.404	7224.38
841.653	7226.38
841.902	7206.38
842.15	7187.38
842.399	7324.38
842.648	7235.38
842.897	7251.38
843.145	7174.38
843.394	7117.38
843.642	7100.38
843.891	7061.38
844.139	7061.38
844.388	6969.38
844.636	6908.38
844.884	6958.38
845.133	6898.38
845.381	6973.38
845.629	6999.38
845.877	6945.38
846.125	6959.38
846.373	6997.38
846.621	6906.38
846.869	6965.38
847.117	6914.38
847.365	6834.38
847.613	6866.38
847.861	6875.38
848.108	6851.38
848.356	6865.38
848.604	6823.38
848.851	6837.38
849.099	6910.38
849.346	6919.38
849.594	7010.38
849.841	7038.38
850.089	7084.38
850.336	7105.38
850.583	7088.38
850.831	7180.38
851.078	7098.38
851.325	7143.38
851.572	7245.38
851.819	7099.38
852.066	6842.38
852.313	6737.38
852.56	6628.38
852.807	6566.38
853.054	6548.38
853.301	6612.38
853.548	6676.38
853.794	6758.38
854.041	6769.38
854.288	6756.38
854.534	6914.38
854.781	6865.38
855.028	6780.38
855.274	6878.38
855.52	6812.38
855.767	6721.38
856.013	6751.38
856.26	7109.38
856.506	6669.38
856.752	6674.38
856.998	6658.38
857.244	6661.38
857.49	6826.38
857.736	6820.38
857.982	6847.38
858.228	6827.38
858.474	6740.38
858.72	6694.38
858.966	6654.38
859.212	6587.38
859.458	6462.38
859.703	6413.38
859.949	6334.38
860.195	6355.38
860.44	6315.38
860.686	6290.38
860.931	6339.38
861.177	6197.38
861.422	6214.38
861.667	6198.38
861.913	6162.38
862.158	6251.38
862.403	6377.38
862.648	6278.38
862.893	6347.38
863.138	6284.38
863.384	6300.38
863.629	6300.38
863.873	6314.38
864.118	6243.38
864.363	6180.38
864.608	6315.38
864.853	6285.38
865.098	6192.38
865.342	6191.38
865.587	6193.38
865.832	6245.38
866.076	6128.38
866.321	6116.38
866.565	6170.38
866.81	6047.38
867.054	6098.38
867.298	6086.38
867.543	6051.38
867.787	6151.38
868.031	6063.38
868.275	6066.38
868.519	6066.38
868.764	6052.38
869.008	6032.38
869.252	6123.38
869.496	6111.38
869.739	6076.38
869.983	6083.38
870.227	6119.38
870.471	6056.38
870.715	6175.38
870.958	6183.38
871.202	6133.38
871.446	6167.38
871.689	6191.38
871.933	6171.38
872.176	6111.38
872.42	6210.38
872.663	6166.38
872.906	6163.38
873.15	6166.38
873.393	6123.38
873.636	6166.38
873.879	6097.38
874.122	6083.38
874.366	5981.38
874.609	5937.38
874.852	5843.38
875.095	5844.38
875.337	5821.38
875.58	5716.38
875.823	5760.38
876.066	5789.38
876.309	5832.38
876.551	5723.38
876.794	5699.38
877.037	5724.38
877.279	5683.38
877.522	5719.38
877.764	5737.38
878.007	5656.38
878.249	5716.38
878.491	5651.38
878.734	5722.38
878.976	5628.38
879.218	5606.38
879.46	5619.38
879.702	5612.38
879.945	5519.38
880.187	5461.38
880.429	5436.38
880.671	5430.38
880.912	5430.38
881.154	5398.38
881.396	5306.38
881.638	5352.38
881.88	5372.38
882.121	5317.38
882.363	5349.38
882.605	5391.38
882.846	5391.38
883.088	5406.38
883.329	5440.38
883.571	5452.38
883.812	5507.38
884.053	5586.38
884.295	5748.38
884.536	5898.38
884.777	5858.38
885.018	5848.38
885.259	5834.38
885.5	5707.38
885.742	5962.38
885.982	5674.38
886.223	5581.38
886.464	5595.38
886.705	5499.38
886.946	5483.38
887.187	5306.38
887.428	5272.38
887.668	5204.38
887.909	5134.38
888.15	5098.38
888.39	5116.38
888.631	5137.38
888.871	5012.38
889.111	4994.38
889.352	4955.38
889.592	4919.38
889.833	4862.38
890.073	4848.38
890.313	4933.38
890.553	4759.38
890.793	4827.38
891.033	4781.38
891.273	4720.38
891.513	4720.38
891.753	4751.38
891.993	4711.38
892.233	4738.38
892.473	4857.38
892.713	4816.38
892.952	4741.38
893.192	4812.38
893.432	4803.38
893.671	4819.38
893.911	4779.38
894.15	4774.38
894.39	4720.38
894.629	4677.38
894.869	4717.38
895.108	4652.38
895.347	4631.38
895.587	4686.38
895.826	4656.38
896.065	4601.38
896.304	4623.38
896.543	4658.38
896.782	4556.38
897.021	4605.38
897.26	4626.38
897.499	4679.38
897.738	4738.38
897.977	4639.38
898.216	4607.38
898.454	4580.38
898.693	4481.38
898.932	4588.38
899.17	4506.38
899.409	4562.38
899.647	4516.38
899.886	4486.38
900.124	4532.38
900.363	4496.38
900.601	4582.38
900.839	4566.38
901.078	4614.38
901.316	4623.38
901.554	4663.38
901.792	4686.38
902.03	4669.38
902.268	4711.38
902.506	4763.38
902.744	4668.38
902.982	4669.38
903.22	4551.38
903.458	4438.38
903.695	4468.38
903.933	4354.38
904.171	4252.38
904.409	4163.38
904.646	4168.38
904.884	4090.38
905.121	4083.38
905.359	4023.38
905.596	3990.38
905.833	3867.38
906.071	3892.38
906.308	3960.38
906.545	3933.38
906.783	3859.38
907.02	3893.38
907.257	3821.38
907.494	3861.38
907.731	3908.38
907.968	3863.38
908.205	3784.38
908.442	3769.38
908.679	3787.38
908.915	3751.38
909.152	3727.38
909.389	3651.38
909.626	3647.38
909.862	3578.38
910.099	3653.38
910.335	3638.38
910.572	3527.38
910.808	3596.38
911.045	3516.38
911.281	3491.38
911.518	3636.38
911.754	3540.38
911.99	3516.38
912.226	3508.38
912.463	3434.38
912.699	3406.38
912.935	3415.38
913.171	3439.38
913.407	3360.38
913.643	3416.38
913.879	3368.38
914.114	3324.38
914.35	3283.38
914.586	3256.38
914.822	3199.38
915.057	3284.38
915.293	3124.38
915.529	3159.38
915.764	3233.38
916	3243.38
916.235	3191.38
916.471	3228.38
916.706	3168.38
916.941	3176.38
917.177	3178.38
917.412	3207.38
917.647	3206.38
917.882	3156.38
918.117	3198.38
918.352	3161.38
918.588	3218.38
918.823	3149.38
919.057	3118.38
919.292	3012.38
919.527	3125.38
919.762	3024.38
919.997	3056.38
920.232	2980.38
920.466	3004.38
920.701	2884.38
920.935	2958.38
921.17	2911.38
921.405	2877.38
921.639	2943.38
921.873	2876.38
922.108	2912.38
922.342	2921.38
922.576	2856.38
922.811	2855.38
923.045	2909.38
923.279	2931.38
923.513	2800.38
923.747	2877.38
923.981	2835.38
924.215	2777.38
924.449	2828.38
924.683	2728.38
924.917	2718.38
925.151	2721.38
925.385	2805.38
925.618	2772.38
925.852	2760.38
926.086	2699.38
926.319	2724.38
926.553	2743.38
926.786	2756.38
927.02	2736.38
927.253	2792.38
927.486	2790.38
927.72	2688.38
927.953	2769.38
928.186	2739.38
928.42	2753.38
928.653	2693.38
928.886	2677.38
929.119	2720.38
929.352	2697.38
929.585	2665.38
929.818	2603.38
930.051	2657.38
930.284	2626.38
930.516	2575.38
930.749	2548.38
930.982	2636.38
931.215	2600.38
931.447	2541.38
931.68	2547.38
931.912	2574.38
932.145	2561.38
932.377	2588.38
932.61	2726.38
932.842	2530.38
933.074	2587.38
933.307	2542.38
933.539	2647.38
933.771	2624.38
934.003	2575.38
934.236	2605.38
934.468	2599.38
934.7	2556.38
934.932	2606.38
935.164	2562.38
935.395	2539.38
935.627	2544.38
935.859	2559.38
936.091	2491.38
936.323	2569.38
936.554	2572.38
936.786	2541.38
937.017	2482.38
937.249	2558.38
937.481	2433.38
937.712	2539.38
937.943	2533.38
938.175	2494.38
938.406	2454.38
938.637	2571.38
938.869	2473.38
939.1	2479.38
939.331	2481.38
939.562	2499.38
939.793	2495.38
940.024	2502.38
940.255	2504.38
940.486	2451.38
940.717	2471.38
940.948	2450.38
941.179	2393.38
941.409	2398.38
941.64	2408.38
941.871	2428.38
942.102	2418.38
942.332	2454.38
942.563	2474.38
942.793	2458.38
943.024	2384.38
943.254	2433.38
943.484	2471.38
943.715	2467.38
943.945	2465.38
944.175	2376.38
944.405	2338.38
944.636	2405.38
944.866	2400.38
945.096	2481.38
945.326	2389.38
945.556	2483.38
945.786	2444.38
946.016	2364.38
946.245	2357.38
946.475	2366.38
946.705	2397.38
946.935	2397.38
947.164	2384.38
947.394	2345.38
947.624	2335.38
947.853	2352.38
948.083	2339.38
948.312	2301.38
948.542	2246.38
948.771	2229.38
949	2252.38
949.23	2280.38
949.459	2248.38
949.688	2358.38
949.917	2269.38
950.146	2290.38
950.375	2348.38
950.604	2237.38
950.833	2358.38
951.062	2366.38
951.291	2269.38
951.52	2292.38
951.749	2290.38
951.978	2227.38
952.206	2223.38
952.435	2234.38
952.664	2295.38
952.892	2289.38
953.121	2273.38
953.349	2275.38
953.578	2281.38
953.806	2237.38
954.035	2154.38
954.263	2241.38
954.491	2144.38
954.719	2221.38
954.948	2183.38
955.176	2165.38
955.404	2140.38
955.632	2167.38
955.86	2204.38
956.088	2167.38
956.316	2190.38
956.544	2173.38
956.772	2141.38
956.999	2101.38
957.227	2216.38
957.455	2127.38
957.683	2115.38
957.91	2075.38
958.138	2092.38
958.365	2077.38
958.593	2075.38
958.82	2038.38
959.048	2105.38
959.275	2069.38
959.502	2072.38
959.73	2072.38
959.957	2078.38
960.184	2163.38
960.411	2068.38
960.638	2132.38
960.865	2065.38
961.092	2103.38
961.319	2007.38
961.546	2093.38
961.773	2087.38
962	2057.38
962.227	2080.38
962.454	2047.38
962.68	2055.38
962.907	2056.38
963.134	2000.38
963.36	2032.38
963.587	2042.38
963.813	2028.38
964.04	2046.38
964.266	1945.38
964.493	2038.38
964.719	1988.38
964.945	2030.38
965.171	1900.38
965.398	1991.38
965.624	2000.38
965.85	1909.38
966.076	1930.38
966.302	1966.38
966.528	1927.38
966.754	1945.38
966.98	1924.38
967.206	1941.38
967.431	1889.38
967.657	1961.38
967.883	1931.38
968.109	1917.38
968.334	1902.38
968.56	1900.38
968.785	1883.38
969.011	1847.38
969.236	1912.38
969.462	1846.38
969.687	1863.38
969.912	1923.38
970.138	1919.38
970.363	1840.38
970.588	1860.38
970.813	1834.38
971.038	1829.38
971.263	1889.38
971.488	1883.38
971.713	1926.38
971.938	1879.38
972.163	1764.38
972.388	1807.38
972.613	1817.38
972.838	1798.38
973.062	1802.38
973.287	1785.38
973.512	1748.38
973.736	1773.38
973.961	1765.38
974.185	1717.38
974.41	1811.38
974.634	1683.38
974.858	1705.38
975.083	1753.38
975.307	1790.38
975.531	1721.38
975.755	1681.38
975.98	1695.38
976.204	1642.38
976.428	1643.38
976.652	1662.38
976.876	1605.38
977.1	1674.38
977.324	1634.38
977.547	1689.38
977.771	1678.38
977.995	1663.38
978.219	1619.38
978.442	1721.38
978.666	1632.38
978.89	1636.38
979.113	1662.38
979.337	1629.38
979.56	1613.38
979.783	1701.38
980.007	1587.38
980.23	1623.38
980.453	1608.38
980.677	1660.38
980.9	1612.38
981.123	1530.38
981.346	1617.38
981.569	1605.38
981.792	1632.38
982.015	1599.38
982.238	1566.38
982.461	1571.38
982.684	1558.38
982.907	1526.38
983.129	1518.38
983.352	1590.38
983.575	1570.38
983.797	1564.38
984.02	1518.38
984.242	1523.38
984.465	1523.38
984.687	1544.38
984.91	1575.38
985.132	1552.38
985.354	1562.38
985.577	1524.38
985.799	1526.38
986.021	1463.38
986.243	1472.38
986.465	1491.38
986.687	1533.38
986.909	1562.38
987.131	1541.38
987.353	1484.38
987.575	1528.38
987.797	1480.38
988.019	1438.38
988.241	1493.38
988.462	1468.38
988.684	1493.38
988.906	1524.38
989.127	1567.38
989.349	1443.38
989.57	1467.38
989.792	1501.38
990.013	1530.38
990.234	1516.38
990.456	1550.38
990.677	1532.38
990.898	1476.38
991.119	1478.38
991.341	1500.38
991.562	1422.38
991.783	1468.38
992.004	1427.38
992.225	1396.38
992.446	1452.38
992.667	1369.38
992.887	1462.38
993.108	1363.38
993.329	1487.38
993.55	1427.38
993.77	1387.38
993.991	1391.38
994.212	1419.38
994.432	1422.38
994.653	1396.38
994.873	1398.38
995.093	1278.38
995.314	1353.38
995.534	1430.38
995.754	1425.38
995.975	1453.38
996.195	1342.38
996.415	1394.38
996.635	1378.38
996.855	1418.38
997.075	1390.38
997.295	1369.38
997.515	1355.38
997.735	1408.38
997.955	1373.38
998.174	1391.38
998.394	1353.38
998.614	1391.38
998.834	1345.38
999.053	1440.38
999.273	1396.38
999.492	1453.38
999.712	1382.38
999.931	1323.38
1000.151	1377.38
1000.37	1377.38
1000.589	1424.38
1000.809	1327.38
1001.028	1464.38
1001.247	1375.38
1001.466	1284.38
1001.685	1441.38
1001.904	1387.38
1002.123	1364.38
1002.342	1398.38
1002.561	1342.38
1002.78	1355.38
1002.999	1439.38
1003.218	1356.38
1003.436	1336.38
1003.655	1405.38
1003.874	1335.38
1004.092	1377.38
1004.311	1406.38
1004.53	1339.38
1004.748	1446.38
1004.966	1365.38
1005.185	1421.38
1005.403	1416.38
1005.622	1358.38
1005.84	1443.38
1006.058	1366.38
1006.276	1362.38
1006.494	1894.38
1006.712	1377.38
1006.931	1450.38
1007.149	1348.38
1007.367	1360.38
1007.584	1377.38
1007.802	1431.38
1008.02	1397.38
1008.238	1482.38
1008.456	1452.38
1008.673	1333.38
1008.891	1468.38
1009.109	1423.38
1009.326	1501.38
1009.544	1553.38
1009.761	1480.38
1009.979	1579.38
1010.196	1581.38
1010.413	1686.38
1010.631	1722.38
1010.848	1782.38
1011.065	1812.38
1011.282	1740.38
1011.5	1692.38
1011.717	1796.38
1011.934	1744.38
1012.151	1768.38
1012.368	1770.38
1012.585	1679.38
1012.801	1748.38
1013.018	1715.38
1013.235	1691.38
1013.452	1738.38
1013.669	1722.38
1013.885	1709.38
1014.102	1763.38
1014.318	1732.38
1014.535	1677.38
1014.751	1711.38
1014.968	1719.38
1015.184	1750.38
1015.401	1665.38
1015.617	1723.38
1015.833	1616.38
1016.049	1629.38
1016.266	1645.38
1016.482	1627.38
1016.698	1588.38
1016.914	1617.38
1017.13	1535.38
1017.346	1558.38
1017.562	1617.38
1017.778	1580.38
1017.993	1565.38
1018.209	1601.38
1018.425	1607.38
1018.641	1544.38
1018.856	1540.38
1019.072	1553.38
1019.288	1613.38
1019.503	1569.38
1019.719	1463.38
1019.934	1502.38
1020.149	1567.38
1020.365	1482.38
1020.58	1471.38
1020.795	1508.38
1021.011	1463.38
1021.226	1434.38
1021.441	1451.38
1021.656	1342.38
1021.871	1270.38
1022.086	1293.38
1022.301	1257.38
1022.516	1270.38
1022.731	1303.38
1022.946	1218.38
1023.16	1197.38
1023.375	1173.38
1023.59	1173.38
1023.804	1110.38
1024.019	1232.38
1024.234	1067.38
1024.448	1104.38
1024.663	1021.38
1024.877	1053.38
1025.092	1086.38
1025.306	1076.38
1025.52	974.38
1025.734	1058.38
1025.949	983.38
1026.163	963.38
1026.377	896.38
1026.591	949.38
1026.805	878.38
1027.019	894.38
1027.233	837.38
1027.447	795.38
1027.661	878.38
1027.875	807.38
1028.088	832.38
1028.302	766.38
1028.516	755.38
1028.73	742.38
1028.943	722.38
1029.157	695.38
1029.37	640.38
1029.584	-2.62
1029.797	0.38
1030.011	0.38
1030.224	2.38
