Data from QEP037381__289__11-08-46-589.txt Node

Date: Wed Dec 21 11:08:46 EST 2022
User: dcclab
Spectrometer: QEP03738
Trigger mode: 4
Integration Time (sec): 1.000000E1
Scans to average: 1
Electric dark correction enabled: true
Nonlinearity correction enabled: false
Boxcar width: 0
XAxis mode: Wavelengths
Number of Pixels in Spectrum: 1044
>>>>>Begin Spectral Data<<<<<
784.041	11.5
784.3	-0.5
784.558	-2.5
784.817	-3.5
785.075	99061.5
785.334	17453.5
785.592	8309.5
785.851	5803.5
786.109	4355.5
786.368	3380.5
786.626	2762.5
786.884	2281.5
787.143	1909.5
787.401	1618.5
787.659	1430.5
787.917	1229.5
788.175	1107.5
788.433	970.5
788.691	866.5
788.949	795.5
789.207	763.5
789.465	638.5
789.723	637.5
789.98	573.5
790.238	595.5
790.496	567.5
790.753	544.5
791.011	570.5
791.268	520.5
791.526	502.5
791.783	506.5
792.041	504.5
792.298	429.5
792.556	467.5
792.813	449.5
793.07	427.5
793.327	424.5
793.584	500.5
793.841	420.5
794.099	438.5
794.356	503.5
794.613	388.5
794.869	433.5
795.126	391.5
795.383	395.5
795.64	390.5
795.897	357.5
796.153	425.5
796.41	381.5
796.667	383.5
796.923	368.5
797.18	377.5
797.436	409.5
797.693	369.5
797.949	407.5
798.206	437.5
798.462	356.5
798.718	413.5
798.974	381.5
799.231	411.5
799.487	404.5
799.743	398.5
799.999	414.5
800.255	410.5
800.511	385.5
800.767	410.5
801.023	402.5
801.279	414.5
801.534	419.5
801.79	434.5
802.046	411.5
802.302	481.5
802.557	473.5
802.813	525.5
803.068	530.5
803.324	667.5
803.579	747.5
803.835	985.5
804.09	1281.5
804.345	1580.5
804.601	1906.5
804.856	2315.5
805.111	2614.5
805.366	2793.5
805.621	3006.5
805.876	3100.5
806.131	3165.5
806.386	3204.5
806.641	3225.5
806.896	3272.5
807.151	3431.5
807.406	3410.5
807.661	3491.5
807.915	3555.5
808.17	3622.5
808.425	3677.5
808.679	3675.5
808.934	3775.5
809.188	3798.5
809.443	3874.5
809.697	3934.5
809.951	3921.5
810.206	3957.5
810.46	4063.5
810.714	4040.5
810.968	4092.5
811.223	4058.5
811.477	4160.5
811.731	4181.5
811.985	4182.5
812.239	4195.5
812.493	4206.5
812.747	4224.5
813	4182.5
813.254	4240.5
813.508	4302.5
813.762	4309.5
814.015	4250.5
814.269	4388.5
814.522	4436.5
814.776	4500.5
815.03	4514.5
815.283	4574.5
815.536	4726.5
815.79	4809.5
816.043	4828.5
816.296	4904.5
816.55	4970.5
816.803	4962.5
817.056	5140.5
817.309	5151.5
817.562	5205.5
817.815	5298.5
818.068	5285.5
818.321	5316.5
818.574	5419.5
818.827	5518.5
819.079	5593.5
819.332	5773.5
819.585	5788.5
819.838	5947.5
820.09	5871.5
820.343	5964.5
820.595	5902.5
820.848	5985.5
821.1	5986.5
821.353	6018.5
821.605	5979.5
821.857	6043.5
822.11	5894.5
822.362	5944.5
822.614	5951.5
822.866	5995.5
823.118	5967.5
823.37	6109.5
823.622	6047.5
823.874	6083.5
824.126	6189.5
824.378	6124.5
824.63	6078.5
824.882	6199.5
825.134	6146.5
825.385	6169.5
825.637	6095.5
825.888	6091.5
826.14	6053.5
826.392	6025.5
826.643	5999.5
826.895	6036.5
827.146	5917.5
827.397	5931.5
827.649	5973.5
827.9	5865.5
828.151	5918.5
828.402	5898.5
828.653	5996.5
828.905	5987.5
829.156	6036.5
829.407	5968.5
829.658	6009.5
829.909	6075.5
830.159	6089.5
830.41	6125.5
830.661	6068.5
830.912	5995.5
831.162	6021.5
831.413	6042.5
831.664	6041.5
831.914	6000.5
832.165	6054.5
832.415	6004.5
832.666	6057.5
832.916	6067.5
833.167	5943.5
833.417	6030.5
833.667	6021.5
833.917	5973.5
834.168	6045.5
834.418	6009.5
834.668	5992.5
834.918	5939.5
835.168	5996.5
835.418	5882.5
835.668	5914.5
835.918	5868.5
836.167	5853.5
836.417	5822.5
836.667	5845.5
836.917	5944.5
837.166	5856.5
837.416	5886.5
837.666	5905.5
837.915	5840.5
838.165	5846.5
838.414	5808.5
838.663	5798.5
838.913	5828.5
839.162	5808.5
839.411	5885.5
839.661	5842.5
839.91	5866.5
840.159	5825.5
840.408	5839.5
840.657	5869.5
840.906	5897.5
841.155	5909.5
841.404	5925.5
841.653	5908.5
841.902	5830.5
842.15	5914.5
842.399	5943.5
842.648	5939.5
842.897	5864.5
843.145	5845.5
843.394	5802.5
843.642	5732.5
843.891	5743.5
844.139	5779.5
844.388	5612.5
844.636	5557.5
844.884	5682.5
845.133	5625.5
845.381	5647.5
845.629	5657.5
845.877	5654.5
846.125	5648.5
846.373	5705.5
846.621	5612.5
846.869	5670.5
847.117	5602.5
847.365	5620.5
847.613	5572.5
847.861	5560.5
848.108	5604.5
848.356	5614.5
848.604	5572.5
848.851	5545.5
849.099	5633.5
849.346	5622.5
849.594	5714.5
849.841	5766.5
850.089	5753.5
850.336	5829.5
850.583	5847.5
850.831	5865.5
851.078	5885.5
851.325	5875.5
851.572	5946.5
851.819	5809.5
852.066	5593.5
852.313	5427.5
852.56	5381.5
852.807	5354.5
853.054	5323.5
853.301	5413.5
853.548	5459.5
853.794	5525.5
854.041	5523.5
854.288	5513.5
854.534	5644.5
854.781	5597.5
855.028	5506.5
855.274	5640.5
855.52	5561.5
855.767	5551.5
856.013	5559.5
856.26	5853.5
856.506	5489.5
856.752	5497.5
856.998	5501.5
857.244	5460.5
857.49	5537.5
857.736	5578.5
857.982	5588.5
858.228	5509.5
858.474	5458.5
858.72	5435.5
858.966	5393.5
859.212	5378.5
859.458	5257.5
859.703	5275.5
859.949	5090.5
860.195	5148.5
860.44	5144.5
860.686	5115.5
860.931	5198.5
861.177	5070.5
861.422	5063.5
861.667	4971.5
861.913	5055.5
862.158	5044.5
862.403	5112.5
862.648	5114.5
862.893	5147.5
863.138	5100.5
863.384	5093.5
863.629	5095.5
863.873	5067.5
864.118	5071.5
864.363	4949.5
864.608	5056.5
864.853	5062.5
865.098	5052.5
865.342	5018.5
865.587	4978.5
865.832	5008.5
866.076	4956.5
866.321	4969.5
866.565	4997.5
866.81	4829.5
867.054	4960.5
867.298	4917.5
867.543	4865.5
867.787	4962.5
868.031	4928.5
868.275	4944.5
868.519	4967.5
868.764	4983.5
869.008	4896.5
869.252	4981.5
869.496	4905.5
869.739	4941.5
869.983	5009.5
870.227	5003.5
870.471	5033.5
870.715	5076.5
870.958	5090.5
871.202	5050.5
871.446	5074.5
871.689	5027.5
871.933	5101.5
872.176	5098.5
872.42	4993.5
872.663	5033.5
872.906	5149.5
873.15	5057.5
873.393	4996.5
873.636	5125.5
873.879	5094.5
874.122	4997.5
874.366	4893.5
874.609	4916.5
874.852	4820.5
875.095	4747.5
875.337	4767.5
875.58	4665.5
875.823	4740.5
876.066	4760.5
876.309	4739.5
876.551	4616.5
876.794	4634.5
877.037	4687.5
877.279	4646.5
877.522	4632.5
877.764	4663.5
878.007	4566.5
878.249	4597.5
878.491	4583.5
878.734	4543.5
878.976	4618.5
879.218	4477.5
879.46	4569.5
879.702	4498.5
879.945	4470.5
880.187	4381.5
880.429	4407.5
880.671	4363.5
880.912	4324.5
881.154	4336.5
881.396	4251.5
881.638	4385.5
881.88	4367.5
882.121	4310.5
882.363	4387.5
882.605	4439.5
882.846	4375.5
883.088	4381.5
883.329	4411.5
883.571	4406.5
883.812	4520.5
884.053	4688.5
884.295	4844.5
884.536	5022.5
884.777	4943.5
885.018	4922.5
885.259	4913.5
885.5	4838.5
885.742	5012.5
885.982	4813.5
886.223	4703.5
886.464	4671.5
886.705	4540.5
886.946	4511.5
887.187	4370.5
887.428	4334.5
887.668	4245.5
887.909	4179.5
888.15	4060.5
888.39	4112.5
888.631	4125.5
888.871	4073.5
889.111	4039.5
889.352	3977.5
889.592	3892.5
889.833	3882.5
890.073	3887.5
890.313	3943.5
890.553	3805.5
890.793	3813.5
891.033	3803.5
891.273	3793.5
891.513	3787.5
891.753	3853.5
891.993	3812.5
892.233	3855.5
892.473	3919.5
892.713	3844.5
892.952	3822.5
893.192	3873.5
893.432	3839.5
893.671	3843.5
893.911	3840.5
894.15	3815.5
894.39	3797.5
894.629	3763.5
894.869	3802.5
895.108	3773.5
895.347	3689.5
895.587	3787.5
895.826	3744.5
896.065	3734.5
896.304	3750.5
896.543	3802.5
896.782	3705.5
897.021	3754.5
897.26	3826.5
897.499	3845.5
897.738	3855.5
897.977	3772.5
898.216	3751.5
898.454	3764.5
898.693	3702.5
898.932	3779.5
899.17	3740.5
899.409	3705.5
899.647	3697.5
899.886	3700.5
900.124	3729.5
900.363	3688.5
900.601	3789.5
900.839	3792.5
901.078	3823.5
901.316	3900.5
901.554	3921.5
901.792	3995.5
902.03	3980.5
902.268	3972.5
902.506	3976.5
902.744	3958.5
902.982	3931.5
903.22	3793.5
903.458	3724.5
903.695	3747.5
903.933	3605.5
904.171	3488.5
904.409	3434.5
904.646	3448.5
904.884	3308.5
905.121	3327.5
905.359	3293.5
905.596	3269.5
905.833	3175.5
906.071	3170.5
906.308	3181.5
906.545	3149.5
906.783	3085.5
907.02	3135.5
907.257	3066.5
907.494	3111.5
907.731	3118.5
907.968	3095.5
908.205	3060.5
908.442	3049.5
908.679	3053.5
908.915	3010.5
909.152	2984.5
909.389	2921.5
909.626	2927.5
909.862	2907.5
910.099	2888.5
910.335	2924.5
910.572	2814.5
910.808	2850.5
911.045	2843.5
911.281	2843.5
911.518	2892.5
911.754	2842.5
911.99	2803.5
912.226	2817.5
912.463	2736.5
912.699	2755.5
912.935	2704.5
913.171	2721.5
913.407	2711.5
913.643	2715.5
913.879	2670.5
914.114	2659.5
914.35	2605.5
914.586	2616.5
914.822	2547.5
915.057	2654.5
915.293	2512.5
915.529	2488.5
915.764	2594.5
916	2536.5
916.235	2530.5
916.471	2564.5
916.706	2489.5
916.941	2543.5
917.177	2522.5
917.412	2576.5
917.647	2526.5
917.882	2511.5
918.117	2584.5
918.352	2558.5
918.588	2584.5
918.823	2473.5
919.057	2478.5
919.292	2403.5
919.527	2479.5
919.762	2429.5
919.997	2475.5
920.232	2400.5
920.466	2399.5
920.701	2280.5
920.935	2374.5
921.17	2314.5
921.405	2318.5
921.639	2347.5
921.873	2326.5
922.108	2317.5
922.342	2326.5
922.576	2301.5
922.811	2294.5
923.045	2317.5
923.279	2361.5
923.513	2214.5
923.747	2364.5
923.981	2260.5
924.215	2244.5
924.449	2248.5
924.683	2217.5
924.917	2209.5
925.151	2229.5
925.385	2280.5
925.618	2219.5
925.852	2221.5
926.086	2157.5
926.319	2228.5
926.553	2171.5
926.786	2215.5
927.02	2180.5
927.253	2242.5
927.486	2241.5
927.72	2156.5
927.953	2226.5
928.186	2182.5
928.42	2209.5
928.653	2185.5
928.886	2172.5
929.119	2164.5
929.352	2157.5
929.585	2170.5
929.818	2105.5
930.051	2160.5
930.284	2161.5
930.516	2056.5
930.749	2096.5
930.982	2105.5
931.215	2110.5
931.447	2034.5
931.68	2060.5
931.912	2052.5
932.145	2049.5
932.377	2062.5
932.61	2213.5
932.842	2025.5
933.074	2075.5
933.307	2041.5
933.539	2117.5
933.771	2122.5
934.003	2104.5
934.236	2167.5
934.468	2147.5
934.7	2091.5
934.932	2145.5
935.164	2067.5
935.395	2046.5
935.627	2079.5
935.859	2081.5
936.091	2019.5
936.323	2085.5
936.554	2104.5
936.786	2061.5
937.017	1999.5
937.249	2065.5
937.481	1991.5
937.712	2059.5
937.943	2062.5
938.175	2033.5
938.406	2044.5
938.637	2094.5
938.869	2015.5
939.1	2067.5
939.331	2007.5
939.562	2054.5
939.793	2032.5
940.024	2053.5
940.255	2062.5
940.486	1986.5
940.717	2004.5
940.948	1992.5
941.179	1952.5
941.409	1953.5
941.64	1956.5
941.871	1997.5
942.102	1972.5
942.332	1982.5
942.563	2018.5
942.793	2010.5
943.024	1923.5
943.254	1978.5
943.484	2032.5
943.715	2030.5
943.945	1994.5
944.175	1926.5
944.405	1956.5
944.636	1937.5
944.866	1965.5
945.096	1987.5
945.326	1908.5
945.556	1968.5
945.786	2011.5
946.016	1937.5
946.245	1883.5
946.475	1907.5
946.705	1930.5
946.935	1894.5
947.164	1911.5
947.394	1863.5
947.624	1918.5
947.853	1915.5
948.083	1913.5
948.312	1885.5
948.542	1823.5
948.771	1814.5
949	1824.5
949.23	1828.5
949.459	1859.5
949.688	1888.5
949.917	1867.5
950.146	1866.5
950.375	1918.5
950.604	1831.5
950.833	1904.5
951.062	1907.5
951.291	1854.5
951.52	1844.5
951.749	1837.5
951.978	1815.5
952.206	1846.5
952.435	1832.5
952.664	1881.5
952.892	1846.5
953.121	1846.5
953.349	1850.5
953.578	1840.5
953.806	1823.5
954.035	1778.5
954.263	1797.5
954.491	1779.5
954.719	1824.5
954.948	1771.5
955.176	1772.5
955.404	1673.5
955.632	1755.5
955.86	1777.5
956.088	1769.5
956.316	1787.5
956.544	1774.5
956.772	1729.5
956.999	1756.5
957.227	1808.5
957.455	1704.5
957.683	1732.5
957.91	1686.5
958.138	1692.5
958.365	1688.5
958.593	1705.5
958.82	1641.5
959.048	1739.5
959.275	1707.5
959.502	1683.5
959.73	1653.5
959.957	1730.5
960.184	1764.5
960.411	1673.5
960.638	1732.5
960.865	1689.5
961.092	1714.5
961.319	1612.5
961.546	1702.5
961.773	1732.5
962	1698.5
962.227	1701.5
962.454	1642.5
962.68	1674.5
962.907	1687.5
963.134	1644.5
963.36	1655.5
963.587	1675.5
963.813	1604.5
964.04	1659.5
964.266	1578.5
964.493	1694.5
964.719	1643.5
964.945	1675.5
965.171	1549.5
965.398	1623.5
965.624	1650.5
965.85	1570.5
966.076	1570.5
966.302	1605.5
966.528	1598.5
966.754	1609.5
966.98	1602.5
967.206	1570.5
967.431	1561.5
967.657	1628.5
967.883	1614.5
968.109	1603.5
968.334	1566.5
968.56	1539.5
968.785	1555.5
969.011	1511.5
969.236	1586.5
969.462	1508.5
969.687	1503.5
969.912	1623.5
970.138	1584.5
970.363	1498.5
970.588	1540.5
970.813	1530.5
971.038	1500.5
971.263	1567.5
971.488	1542.5
971.713	1567.5
971.938	1574.5
972.163	1442.5
972.388	1507.5
972.613	1505.5
972.838	1520.5
973.062	1491.5
973.287	1475.5
973.512	1429.5
973.736	1467.5
973.961	1444.5
974.185	1418.5
974.41	1500.5
974.634	1424.5
974.858	1413.5
975.083	1446.5
975.307	1488.5
975.531	1414.5
975.755	1365.5
975.98	1377.5
976.204	1365.5
976.428	1341.5
976.652	1347.5
976.876	1347.5
977.1	1386.5
977.324	1357.5
977.547	1395.5
977.771	1407.5
977.995	1382.5
978.219	1335.5
978.442	1425.5
978.666	1386.5
978.89	1384.5
979.113	1393.5
979.337	1367.5
979.56	1323.5
979.783	1425.5
980.007	1324.5
980.23	1325.5
980.453	1331.5
980.677	1359.5
980.9	1348.5
981.123	1273.5
981.346	1363.5
981.569	1334.5
981.792	1381.5
982.015	1332.5
982.238	1296.5
982.461	1317.5
982.684	1283.5
982.907	1276.5
983.129	1274.5
983.352	1322.5
983.575	1320.5
983.797	1331.5
984.02	1306.5
984.242	1284.5
984.465	1261.5
984.687	1315.5
984.91	1328.5
985.132	1300.5
985.354	1322.5
985.577	1338.5
985.799	1290.5
986.021	1204.5
986.243	1266.5
986.465	1263.5
986.687	1313.5
986.909	1337.5
987.131	1286.5
987.353	1258.5
987.575	1308.5
987.797	1280.5
988.019	1220.5
988.241	1242.5
988.462	1232.5
988.684	1276.5
988.906	1307.5
989.127	1347.5
989.349	1214.5
989.57	1250.5
989.792	1305.5
990.013	1296.5
990.234	1302.5
990.456	1311.5
990.677	1323.5
990.898	1246.5
991.119	1258.5
991.341	1304.5
991.562	1248.5
991.783	1278.5
992.004	1221.5
992.225	1210.5
992.446	1258.5
992.667	1158.5
992.887	1266.5
993.108	1161.5
993.329	1300.5
993.55	1252.5
993.77	1194.5
993.991	1201.5
994.212	1219.5
994.432	1208.5
994.653	1227.5
994.873	1213.5
995.093	1127.5
995.314	1168.5
995.534	1229.5
995.754	1273.5
995.975	1284.5
996.195	1173.5
996.415	1227.5
996.635	1217.5
996.855	1226.5
997.075	1208.5
997.295	1208.5
997.515	1192.5
997.735	1254.5
997.955	1209.5
998.174	1205.5
998.394	1180.5
998.614	1231.5
998.834	1182.5
999.053	1249.5
999.273	1223.5
999.492	1285.5
999.712	1208.5
999.931	1183.5
1000.151	1211.5
1000.37	1212.5
1000.589	1281.5
1000.809	1196.5
1001.028	1309.5
1001.247	1246.5
1001.466	1146.5
1001.685	1297.5
1001.904	1220.5
1002.123	1204.5
1002.342	1221.5
1002.561	1174.5
1002.78	1204.5
1002.999	1292.5
1003.218	1213.5
1003.436	1187.5
1003.655	1239.5
1003.874	1206.5
1004.092	1209.5
1004.311	1256.5
1004.53	1236.5
1004.748	1287.5
1004.966	1212.5
1005.185	1289.5
1005.403	1254.5
1005.622	1246.5
1005.84	1304.5
1006.058	1218.5
1006.276	1267.5
1006.494	1757.5
1006.712	1245.5
1006.931	1300.5
1007.149	1240.5
1007.367	1248.5
1007.584	1286.5
1007.802	1348.5
1008.02	1258.5
1008.238	1362.5
1008.456	1349.5
1008.673	1247.5
1008.891	1372.5
1009.109	1329.5
1009.326	1416.5
1009.544	1491.5
1009.761	1397.5
1009.979	1531.5
1010.196	1547.5
1010.413	1664.5
1010.631	1731.5
1010.848	1789.5
1011.065	1782.5
1011.282	1742.5
1011.5	1697.5
1011.717	1809.5
1011.934	1738.5
1012.151	1786.5
1012.368	1774.5
1012.585	1716.5
1012.801	1819.5
1013.018	1753.5
1013.235	1691.5
1013.452	1738.5
1013.669	1751.5
1013.885	1720.5
1014.102	1779.5
1014.318	1758.5
1014.535	1745.5
1014.751	1787.5
1014.968	1763.5
1015.184	1789.5
1015.401	1719.5
1015.617	1720.5
1015.833	1668.5
1016.049	1673.5
1016.266	1652.5
1016.482	1679.5
1016.698	1605.5
1016.914	1648.5
1017.13	1614.5
1017.346	1615.5
1017.562	1699.5
1017.778	1638.5
1017.993	1586.5
1018.209	1622.5
1018.425	1644.5
1018.641	1552.5
1018.856	1573.5
1019.072	1603.5
1019.288	1652.5
1019.503	1594.5
1019.719	1516.5
1019.934	1543.5
1020.149	1610.5
1020.365	1547.5
1020.58	1490.5
1020.795	1505.5
1021.011	1449.5
1021.226	1413.5
1021.441	1444.5
1021.656	1362.5
1021.871	1287.5
1022.086	1300.5
1022.301	1272.5
1022.516	1291.5
1022.731	1353.5
1022.946	1214.5
1023.16	1193.5
1023.375	1162.5
1023.59	1186.5
1023.804	1119.5
1024.019	1222.5
1024.234	1086.5
1024.448	1126.5
1024.663	1033.5
1024.877	1032.5
1025.092	1048.5
1025.306	1056.5
1025.52	962.5
1025.734	1063.5
1025.949	980.5
1026.163	933.5
1026.377	883.5
1026.591	932.5
1026.805	846.5
1027.019	840.5
1027.233	826.5
1027.447	763.5
1027.661	860.5
1027.875	825.5
1028.088	811.5
1028.302	748.5
1028.516	740.5
1028.73	735.5
1028.943	724.5
1029.157	673.5
1029.37	640.5
1029.584	-3.5
1029.797	1.5
1030.011	-0.5
1030.224	-2.5
