Data from QEP037381__282__11-07-36-589.txt Node

Date: Wed Dec 21 11:07:36 EST 2022
User: dcclab
Spectrometer: QEP03738
Trigger mode: 4
Integration Time (sec): 1.000000E1
Scans to average: 1
Electric dark correction enabled: true
Nonlinearity correction enabled: false
Boxcar width: 0
XAxis mode: Wavelengths
Number of Pixels in Spectrum: 1044
>>>>>Begin Spectral Data<<<<<
784.041	10.88
784.3	-0.12
784.558	-4.12
784.817	-3.12
785.075	93573.88
785.334	16769.88
785.592	8061.88
785.851	5632.88
786.109	4270.88
786.368	3361.88
786.626	2675.88
786.884	2293.88
787.143	1897.88
787.401	1585.88
787.659	1452.88
787.917	1200.88
788.175	1109.88
788.433	953.88
788.691	857.88
788.949	772.88
789.207	745.88
789.465	627.88
789.723	598.88
789.98	564.88
790.238	583.88
790.496	566.88
790.753	528.88
791.011	585.88
791.268	503.88
791.526	486.88
791.783	513.88
792.041	479.88
792.298	396.88
792.556	461.88
792.813	444.88
793.07	415.88
793.327	411.88
793.584	483.88
793.841	400.88
794.099	440.88
794.356	479.88
794.613	372.88
794.869	424.88
795.126	387.88
795.383	371.88
795.64	387.88
795.897	343.88
796.153	390.88
796.41	386.88
796.667	370.88
796.923	376.88
797.18	375.88
797.436	387.88
797.693	353.88
797.949	411.88
798.206	429.88
798.462	337.88
798.718	405.88
798.974	377.88
799.231	407.88
799.487	398.88
799.743	396.88
799.999	416.88
800.255	399.88
800.511	394.88
800.767	413.88
801.023	406.88
801.279	408.88
801.534	420.88
801.79	423.88
802.046	421.88
802.302	463.88
802.557	472.88
802.813	505.88
803.068	500.88
803.324	622.88
803.579	728.88
803.835	900.88
804.09	1186.88
804.345	1407.88
804.601	1761.88
804.856	2155.88
805.111	2439.88
805.366	2699.88
805.621	2811.88
805.876	2920.88
806.131	2946.88
806.386	3001.88
806.641	3009.88
806.896	3121.88
807.151	3159.88
807.406	3151.88
807.661	3233.88
807.915	3341.88
808.17	3364.88
808.425	3412.88
808.679	3430.88
808.934	3513.88
809.188	3508.88
809.443	3551.88
809.697	3669.88
809.951	3612.88
810.206	3683.88
810.46	3735.88
810.714	3754.88
810.968	3813.88
811.223	3791.88
811.477	3852.88
811.731	3935.88
811.985	3847.88
812.239	3861.88
812.493	3923.88
812.747	3946.88
813	3894.88
813.254	3996.88
813.508	4043.88
813.762	4021.88
814.015	4047.88
814.269	4034.88
814.522	4128.88
814.776	4196.88
815.03	4284.88
815.283	4308.88
815.536	4407.88
815.79	4456.88
816.043	4481.88
816.296	4552.88
816.55	4600.88
816.803	4600.88
817.056	4803.88
817.309	4749.88
817.562	4832.88
817.815	4867.88
818.068	4894.88
818.321	4970.88
818.574	5006.88
818.827	5146.88
819.079	5220.88
819.332	5339.88
819.585	5393.88
819.838	5478.88
820.09	5505.88
820.343	5520.88
820.595	5468.88
820.848	5557.88
821.1	5613.88
821.353	5533.88
821.605	5563.88
821.857	5666.88
822.11	5539.88
822.362	5568.88
822.614	5590.88
822.866	5550.88
823.118	5558.88
823.37	5681.88
823.622	5688.88
823.874	5723.88
824.126	5733.88
824.378	5706.88
824.63	5777.88
824.882	5779.88
825.134	5731.88
825.385	5703.88
825.637	5684.88
825.888	5647.88
826.14	5617.88
826.392	5588.88
826.643	5540.88
826.895	5582.88
827.146	5532.88
827.397	5537.88
827.649	5509.88
827.9	5481.88
828.151	5505.88
828.402	5576.88
828.653	5635.88
828.905	5594.88
829.156	5610.88
829.407	5618.88
829.658	5610.88
829.909	5661.88
830.159	5637.88
830.41	5610.88
830.661	5620.88
830.912	5569.88
831.162	5522.88
831.413	5558.88
831.664	5587.88
831.914	5563.88
832.165	5618.88
832.415	5596.88
832.666	5571.88
832.916	5610.88
833.167	5579.88
833.417	5646.88
833.667	5553.88
833.917	5545.88
834.168	5629.88
834.418	5578.88
834.668	5593.88
834.918	5480.88
835.168	5538.88
835.418	5430.88
835.668	5503.88
835.918	5475.88
836.167	5473.88
836.417	5390.88
836.667	5455.88
836.917	5523.88
837.166	5421.88
837.416	5445.88
837.666	5467.88
837.915	5457.88
838.165	5410.88
838.414	5341.88
838.663	5292.88
838.913	5395.88
839.162	5350.88
839.411	5503.88
839.661	5370.88
839.91	5439.88
840.159	5383.88
840.408	5344.88
840.657	5369.88
840.906	5448.88
841.155	5449.88
841.404	5404.88
841.653	5417.88
841.902	5417.88
842.15	5401.88
842.399	5503.88
842.648	5404.88
842.897	5467.88
843.145	5354.88
843.394	5342.88
843.642	5268.88
843.891	5269.88
844.139	5282.88
844.388	5254.88
844.636	5131.88
844.884	5225.88
845.133	5151.88
845.381	5238.88
845.629	5197.88
845.877	5220.88
846.125	5137.88
846.373	5201.88
846.621	5203.88
846.869	5207.88
847.117	5172.88
847.365	5144.88
847.613	5127.88
847.861	5146.88
848.108	5156.88
848.356	5131.88
848.604	5128.88
848.851	5108.88
849.099	5172.88
849.346	5155.88
849.594	5217.88
849.841	5324.88
850.089	5292.88
850.336	5325.88
850.583	5378.88
850.831	5359.88
851.078	5373.88
851.325	5351.88
851.572	5541.88
851.819	5336.88
852.066	5173.88
852.313	5003.88
852.56	4973.88
852.807	4897.88
853.054	4898.88
853.301	4914.88
853.548	4959.88
853.794	5084.88
854.041	5077.88
854.288	5009.88
854.534	5129.88
854.781	5062.88
855.028	5084.88
855.274	5119.88
855.52	5074.88
855.767	5025.88
856.013	5034.88
856.26	5366.88
856.506	5009.88
856.752	5060.88
856.998	5020.88
857.244	5015.88
857.49	5021.88
857.736	5037.88
857.982	5072.88
858.228	5052.88
858.474	4959.88
858.72	4953.88
858.966	5004.88
859.212	4910.88
859.458	4816.88
859.703	4778.88
859.949	4698.88
860.195	4716.88
860.44	4729.88
860.686	4692.88
860.931	4716.88
861.177	4611.88
861.422	4637.88
861.667	4568.88
861.913	4547.88
862.158	4594.88
862.403	4634.88
862.648	4642.88
862.893	4716.88
863.138	4664.88
863.384	4623.88
863.629	4664.88
863.873	4657.88
864.118	4645.88
864.363	4585.88
864.608	4635.88
864.853	4691.88
865.098	4580.88
865.342	4589.88
865.587	4534.88
865.832	4579.88
866.076	4566.88
866.321	4479.88
866.565	4528.88
866.81	4382.88
867.054	4477.88
867.298	4511.88
867.543	4466.88
867.787	4500.88
868.031	4482.88
868.275	4499.88
868.519	4487.88
868.764	4494.88
869.008	4441.88
869.252	4561.88
869.496	4514.88
869.739	4496.88
869.983	4505.88
870.227	4550.88
870.471	4493.88
870.715	4569.88
870.958	4575.88
871.202	4608.88
871.446	4540.88
871.689	4552.88
871.933	4583.88
872.176	4577.88
872.42	4528.88
872.663	4568.88
872.906	4535.88
873.15	4529.88
873.393	4516.88
873.636	4572.88
873.879	4570.88
874.122	4492.88
874.366	4421.88
874.609	4420.88
874.852	4326.88
875.095	4317.88
875.337	4333.88
875.58	4243.88
875.823	4262.88
876.066	4272.88
876.309	4349.88
876.551	4215.88
876.794	4185.88
877.037	4298.88
877.279	4188.88
877.522	4150.88
877.764	4207.88
878.007	4131.88
878.249	4177.88
878.491	4136.88
878.734	4227.88
878.976	4156.88
879.218	4062.88
879.46	4098.88
879.702	4148.88
879.945	4043.88
880.187	3977.88
880.429	3967.88
880.671	3972.88
880.912	3992.88
881.154	3975.88
881.396	3908.88
881.638	3950.88
881.88	3953.88
882.121	3892.88
882.363	3927.88
882.605	4009.88
882.846	3973.88
883.088	3963.88
883.329	3993.88
883.571	3952.88
883.812	4036.88
884.053	4165.88
884.295	4253.88
884.536	4448.88
884.777	4340.88
885.018	4367.88
885.259	4344.88
885.5	4253.88
885.742	4476.88
885.982	4238.88
886.223	4164.88
886.464	4108.88
886.705	4036.88
886.946	4026.88
887.187	3892.88
887.428	3919.88
887.668	3811.88
887.909	3710.88
888.15	3695.88
888.39	3742.88
888.631	3715.88
888.871	3693.88
889.111	3638.88
889.352	3612.88
889.592	3538.88
889.833	3525.88
890.073	3538.88
890.313	3588.88
890.553	3413.88
890.793	3476.88
891.033	3458.88
891.273	3437.88
891.513	3436.88
891.753	3490.88
891.993	3441.88
892.233	3449.88
892.473	3513.88
892.713	3548.88
892.952	3455.88
893.192	3492.88
893.432	3507.88
893.671	3563.88
893.911	3497.88
894.15	3478.88
894.39	3372.88
894.629	3440.88
894.869	3452.88
895.108	3391.88
895.347	3354.88
895.587	3402.88
895.826	3351.88
896.065	3370.88
896.304	3397.88
896.543	3443.88
896.782	3349.88
897.021	3419.88
897.26	3452.88
897.499	3447.88
897.738	3524.88
897.977	3421.88
898.216	3418.88
898.454	3343.88
898.693	3326.88
898.932	3331.88
899.17	3342.88
899.409	3324.88
899.647	3315.88
899.886	3319.88
900.124	3364.88
900.363	3345.88
900.601	3402.88
900.839	3374.88
901.078	3420.88
901.316	3425.88
901.554	3488.88
901.792	3502.88
902.03	3478.88
902.268	3506.88
902.506	3557.88
902.744	3457.88
902.982	3455.88
903.22	3307.88
903.458	3282.88
903.695	3225.88
903.933	3215.88
904.171	3125.88
904.409	3059.88
904.646	3076.88
904.884	2998.88
905.121	2979.88
905.359	2928.88
905.596	2923.88
905.833	2853.88
906.071	2837.88
906.308	2889.88
906.545	2880.88
906.783	2810.88
907.02	2810.88
907.257	2763.88
907.494	2796.88
907.731	2788.88
907.968	2830.88
908.205	2758.88
908.442	2692.88
908.679	2729.88
908.915	2685.88
909.152	2698.88
909.389	2637.88
909.626	2628.88
909.862	2626.88
910.099	2588.88
910.335	2651.88
910.572	2570.88
910.808	2597.88
911.045	2554.88
911.281	2543.88
911.518	2641.88
911.754	2571.88
911.99	2583.88
912.226	2563.88
912.463	2506.88
912.699	2485.88
912.935	2486.88
913.171	2477.88
913.407	2422.88
913.643	2500.88
913.879	2460.88
914.114	2416.88
914.35	2364.88
914.586	2359.88
914.822	2350.88
915.057	2406.88
915.293	2304.88
915.529	2248.88
915.764	2343.88
916	2331.88
916.235	2342.88
916.471	2343.88
916.706	2297.88
916.941	2308.88
917.177	2325.88
917.412	2337.88
917.647	2338.88
917.882	2308.88
918.117	2307.88
918.352	2282.88
918.588	2381.88
918.823	2261.88
919.057	2264.88
919.292	2134.88
919.527	2266.88
919.762	2187.88
919.997	2244.88
920.232	2167.88
920.466	2198.88
920.701	2109.88
920.935	2167.88
921.17	2121.88
921.405	2059.88
921.639	2126.88
921.873	2101.88
922.108	2140.88
922.342	2139.88
922.576	2048.88
922.811	2055.88
923.045	2130.88
923.279	2115.88
923.513	2034.88
923.747	2112.88
923.981	2084.88
924.215	2032.88
924.449	2025.88
924.683	1974.88
924.917	2000.88
925.151	1969.88
925.385	2058.88
925.618	2014.88
925.852	2031.88
926.086	1940.88
926.319	1978.88
926.553	1993.88
926.786	1997.88
927.02	1972.88
927.253	2047.88
927.486	2020.88
927.72	1937.88
927.953	1987.88
928.186	1942.88
928.42	2002.88
928.653	1936.88
928.886	1927.88
929.119	2017.88
929.352	1987.88
929.585	1972.88
929.818	1898.88
930.051	1926.88
930.284	1966.88
930.516	1844.88
930.749	1875.88
930.982	1943.88
931.215	1896.88
931.447	1841.88
931.68	1855.88
931.912	1835.88
932.145	1867.88
932.377	1870.88
932.61	2030.88
932.842	1816.88
933.074	1903.88
933.307	1856.88
933.539	1936.88
933.771	1924.88
934.003	1860.88
934.236	1967.88
934.468	1975.88
934.7	1845.88
934.932	1887.88
935.164	1886.88
935.395	1837.88
935.627	1856.88
935.859	1872.88
936.091	1798.88
936.323	1870.88
936.554	1912.88
936.786	1846.88
937.017	1823.88
937.249	1843.88
937.481	1781.88
937.712	1865.88
937.943	1835.88
938.175	1822.88
938.406	1818.88
938.637	1894.88
938.869	1798.88
939.1	1829.88
939.331	1799.88
939.562	1862.88
939.793	1823.88
940.024	1842.88
940.255	1894.88
940.486	1802.88
940.717	1817.88
940.948	1792.88
941.179	1766.88
941.409	1772.88
941.64	1740.88
941.871	1772.88
942.102	1760.88
942.332	1772.88
942.563	1834.88
942.793	1801.88
943.024	1753.88
943.254	1778.88
943.484	1829.88
943.715	1838.88
943.945	1800.88
944.175	1735.88
944.405	1734.88
944.636	1756.88
944.866	1792.88
945.096	1796.88
945.326	1719.88
945.556	1800.88
945.786	1810.88
946.016	1784.88
946.245	1708.88
946.475	1720.88
946.705	1713.88
946.935	1731.88
947.164	1716.88
947.394	1679.88
947.624	1697.88
947.853	1733.88
948.083	1720.88
948.312	1699.88
948.542	1638.88
948.771	1607.88
949	1687.88
949.23	1663.88
949.459	1704.88
949.688	1746.88
949.917	1680.88
950.146	1702.88
950.375	1739.88
950.604	1635.88
950.833	1730.88
951.062	1728.88
951.291	1678.88
951.52	1639.88
951.749	1677.88
951.978	1626.88
952.206	1649.88
952.435	1650.88
952.664	1671.88
952.892	1697.88
953.121	1655.88
953.349	1698.88
953.578	1627.88
953.806	1638.88
954.035	1590.88
954.263	1634.88
954.491	1585.88
954.719	1639.88
954.948	1602.88
955.176	1585.88
955.404	1532.88
955.632	1575.88
955.86	1601.88
956.088	1603.88
956.316	1625.88
956.544	1623.88
956.772	1579.88
956.999	1544.88
957.227	1629.88
957.455	1562.88
957.683	1577.88
957.91	1523.88
958.138	1544.88
958.365	1535.88
958.593	1541.88
958.82	1463.88
959.048	1567.88
959.275	1541.88
959.502	1517.88
959.73	1514.88
959.957	1559.88
960.184	1567.88
960.411	1524.88
960.638	1615.88
960.865	1517.88
961.092	1555.88
961.319	1477.88
961.546	1571.88
961.773	1579.88
962	1525.88
962.227	1548.88
962.454	1501.88
962.68	1510.88
962.907	1526.88
963.134	1452.88
963.36	1497.88
963.587	1509.88
963.813	1469.88
964.04	1527.88
964.266	1446.88
964.493	1543.88
964.719	1521.88
964.945	1525.88
965.171	1433.88
965.398	1464.88
965.624	1488.88
965.85	1416.88
966.076	1447.88
966.302	1458.88
966.528	1443.88
966.754	1469.88
966.98	1485.88
967.206	1446.88
967.431	1401.88
967.657	1481.88
967.883	1461.88
968.109	1452.88
968.334	1389.88
968.56	1384.88
968.785	1410.88
969.011	1356.88
969.236	1435.88
969.462	1385.88
969.687	1399.88
969.912	1429.88
970.138	1468.88
970.363	1357.88
970.588	1399.88
970.813	1371.88
971.038	1351.88
971.263	1410.88
971.488	1394.88
971.713	1399.88
971.938	1419.88
972.163	1333.88
972.388	1347.88
972.613	1340.88
972.838	1374.88
973.062	1357.88
973.287	1334.88
973.512	1279.88
973.736	1347.88
973.961	1306.88
974.185	1306.88
974.41	1353.88
974.634	1273.88
974.858	1299.88
975.083	1323.88
975.307	1324.88
975.531	1314.88
975.755	1237.88
975.98	1269.88
976.204	1226.88
976.428	1216.88
976.652	1219.88
976.876	1211.88
977.1	1250.88
977.324	1220.88
977.547	1281.88
977.771	1275.88
977.995	1262.88
978.219	1181.88
978.442	1315.88
978.666	1242.88
978.89	1245.88
979.113	1238.88
979.337	1261.88
979.56	1199.88
979.783	1286.88
980.007	1169.88
980.23	1235.88
980.453	1198.88
980.677	1254.88
980.9	1228.88
981.123	1163.88
981.346	1248.88
981.569	1229.88
981.792	1249.88
982.015	1202.88
982.238	1175.88
982.461	1198.88
982.684	1162.88
982.907	1161.88
983.129	1159.88
983.352	1192.88
983.575	1179.88
983.797	1182.88
984.02	1150.88
984.242	1166.88
984.465	1166.88
984.687	1198.88
984.91	1212.88
985.132	1192.88
985.354	1205.88
985.577	1191.88
985.799	1193.88
986.021	1092.88
986.243	1155.88
986.465	1147.88
986.687	1220.88
986.909	1243.88
987.131	1174.88
987.353	1154.88
987.575	1176.88
987.797	1185.88
988.019	1074.88
988.241	1160.88
988.462	1119.88
988.684	1177.88
988.906	1201.88
989.127	1219.88
989.349	1128.88
989.57	1169.88
989.792	1185.88
990.013	1198.88
990.234	1199.88
990.456	1194.88
990.677	1183.88
990.898	1137.88
991.119	1155.88
991.341	1176.88
991.562	1111.88
991.783	1150.88
992.004	1107.88
992.225	1077.88
992.446	1166.88
992.667	1048.88
992.887	1150.88
993.108	1035.88
993.329	1188.88
993.55	1131.88
993.77	1091.88
993.991	1085.88
994.212	1132.88
994.432	1117.88
994.653	1138.88
994.873	1124.88
995.093	992.88
995.314	1071.88
995.534	1126.88
995.754	1142.88
995.975	1172.88
996.195	1080.88
996.415	1138.88
996.635	1106.88
996.855	1111.88
997.075	1095.88
997.295	1093.88
997.515	1083.88
997.735	1121.88
997.955	1103.88
998.174	1090.88
998.394	1059.88
998.614	1144.88
998.834	1087.88
999.053	1149.88
999.273	1103.88
999.492	1169.88
999.712	1103.88
999.931	1092.88
1000.151	1122.88
1000.37	1108.88
1000.589	1163.88
1000.809	1090.88
1001.028	1187.88
1001.247	1158.88
1001.466	1064.88
1001.685	1192.88
1001.904	1142.88
1002.123	1119.88
1002.342	1134.88
1002.561	1069.88
1002.78	1111.88
1002.999	1181.88
1003.218	1129.88
1003.436	1122.88
1003.655	1148.88
1003.874	1096.88
1004.092	1108.88
1004.311	1161.88
1004.53	1126.88
1004.748	1198.88
1004.966	1117.88
1005.185	1185.88
1005.403	1181.88
1005.622	1120.88
1005.84	1225.88
1006.058	1132.88
1006.276	1154.88
1006.494	1633.88
1006.712	1177.88
1006.931	1213.88
1007.149	1144.88
1007.367	1151.88
1007.584	1166.88
1007.802	1219.88
1008.02	1157.88
1008.238	1260.88
1008.456	1254.88
1008.673	1133.88
1008.891	1235.88
1009.109	1186.88
1009.326	1218.88
1009.544	1316.88
1009.761	1230.88
1009.979	1286.88
1010.196	1331.88
1010.413	1404.88
1010.631	1455.88
1010.848	1511.88
1011.065	1515.88
1011.282	1464.88
1011.5	1383.88
1011.717	1521.88
1011.934	1452.88
1012.151	1486.88
1012.368	1429.88
1012.585	1409.88
1012.801	1475.88
1013.018	1436.88
1013.235	1392.88
1013.452	1420.88
1013.669	1440.88
1013.885	1426.88
1014.102	1471.88
1014.318	1413.88
1014.535	1416.88
1014.751	1441.88
1014.968	1454.88
1015.184	1467.88
1015.401	1390.88
1015.617	1423.88
1015.833	1359.88
1016.049	1387.88
1016.266	1375.88
1016.482	1384.88
1016.698	1317.88
1016.914	1355.88
1017.13	1335.88
1017.346	1338.88
1017.562	1386.88
1017.778	1329.88
1017.993	1310.88
1018.209	1348.88
1018.425	1326.88
1018.641	1311.88
1018.856	1274.88
1019.072	1336.88
1019.288	1344.88
1019.503	1312.88
1019.719	1252.88
1019.934	1254.88
1020.149	1347.88
1020.365	1285.88
1020.58	1216.88
1020.795	1292.88
1021.011	1215.88
1021.226	1204.88
1021.441	1218.88
1021.656	1111.88
1021.871	1083.88
1022.086	1067.88
1022.301	1074.88
1022.516	1086.88
1022.731	1114.88
1022.946	1019.88
1023.16	1036.88
1023.375	1012.88
1023.59	980.88
1023.804	941.88
1024.019	1035.88
1024.234	927.88
1024.448	963.88
1024.663	893.88
1024.877	909.88
1025.092	908.88
1025.306	939.88
1025.52	820.88
1025.734	934.88
1025.949	844.88
1026.163	834.88
1026.377	790.88
1026.591	819.88
1026.805	757.88
1027.019	774.88
1027.233	731.88
1027.447	668.88
1027.661	777.88
1027.875	720.88
1028.088	719.88
1028.302	650.88
1028.516	647.88
1028.73	673.88
1028.943	646.88
1029.157	595.88
1029.37	576.88
1029.584	-1.12
1029.797	-4.12
1030.011	0.88
1030.224	0.88
