Data from QEP037381__244__11-01-16-588.txt Node

Date: Wed Dec 21 11:01:16 EST 2022
User: dcclab
Spectrometer: QEP03738
Trigger mode: 4
Integration Time (sec): 1.000000E1
Scans to average: 1
Electric dark correction enabled: true
Nonlinearity correction enabled: false
Boxcar width: 0
XAxis mode: Wavelengths
Number of Pixels in Spectrum: 1044
>>>>>Begin Spectral Data<<<<<
784.041	14.25
784.3	-0.75
784.558	-2.75
784.817	-0.75
785.075	90076.25
785.334	15609.25
785.592	7246.25
785.851	5030.25
786.109	3824.25
786.368	2956.25
786.626	2394.25
786.884	1989.25
787.143	1686.25
787.401	1395.25
787.659	1279.25
787.917	1058.25
788.175	978.25
788.433	848.25
788.691	778.25
788.949	713.25
789.207	701.25
789.465	587.25
789.723	586.25
789.98	518.25
790.238	563.25
790.496	528.25
790.753	495.25
791.011	555.25
791.268	497.25
791.526	477.25
791.783	490.25
792.041	468.25
792.298	389.25
792.556	468.25
792.813	435.25
793.07	413.25
793.327	397.25
793.584	483.25
793.841	403.25
794.099	422.25
794.356	494.25
794.613	385.25
794.869	419.25
795.126	385.25
795.383	358.25
795.64	394.25
795.897	336.25
796.153	401.25
796.41	370.25
796.667	366.25
796.923	370.25
797.18	386.25
797.436	397.25
797.693	358.25
797.949	397.25
798.206	428.25
798.462	335.25
798.718	395.25
798.974	365.25
799.231	395.25
799.487	390.25
799.743	397.25
799.999	406.25
800.255	399.25
800.511	373.25
800.767	416.25
801.023	390.25
801.279	416.25
801.534	421.25
801.79	423.25
802.046	411.25
802.302	476.25
802.557	472.25
802.813	531.25
803.068	538.25
803.324	675.25
803.579	774.25
803.835	973.25
804.09	1292.25
804.345	1587.25
804.601	1983.25
804.856	2398.25
805.111	2773.25
805.366	2963.25
805.621	3149.25
805.876	3255.25
806.131	3331.25
806.386	3387.25
806.641	3387.25
806.896	3482.25
807.151	3572.25
807.406	3599.25
807.661	3679.25
807.915	3722.25
808.17	3808.25
808.425	3816.25
808.679	3865.25
808.934	3960.25
809.188	3972.25
809.443	4044.25
809.697	4109.25
809.951	4113.25
810.206	4117.25
810.46	4169.25
810.714	4228.25
810.968	4284.25
811.223	4279.25
811.477	4294.25
811.731	4358.25
811.985	4315.25
812.239	4300.25
812.493	4361.25
812.747	4447.25
813	4409.25
813.254	4466.25
813.508	4485.25
813.762	4529.25
814.015	4500.25
814.269	4583.25
814.522	4623.25
814.776	4700.25
815.03	4741.25
815.283	4820.25
815.536	4930.25
815.79	4954.25
816.043	4974.25
816.296	5050.25
816.55	5174.25
816.803	5146.25
817.056	5341.25
817.309	5339.25
817.562	5372.25
817.815	5472.25
818.068	5504.25
818.321	5551.25
818.574	5624.25
818.827	5721.25
819.079	5762.25
819.332	5992.25
819.585	5993.25
819.838	6116.25
820.09	6058.25
820.343	6183.25
820.595	6108.25
820.848	6202.25
821.1	6240.25
821.353	6270.25
821.605	6261.25
821.857	6317.25
822.11	6224.25
822.362	6256.25
822.614	6198.25
822.866	6249.25
823.118	6158.25
823.37	6366.25
823.622	6336.25
823.874	6312.25
824.126	6412.25
824.378	6360.25
824.63	6469.25
824.882	6463.25
825.134	6385.25
825.385	6408.25
825.637	6332.25
825.888	6269.25
826.14	6273.25
826.392	6224.25
826.643	6194.25
826.895	6244.25
827.146	6187.25
827.397	6180.25
827.649	6232.25
827.9	6183.25
828.151	6150.25
828.402	6183.25
828.653	6172.25
828.905	6242.25
829.156	6300.25
829.407	6218.25
829.658	6296.25
829.909	6267.25
830.159	6292.25
830.41	6238.25
830.661	6194.25
830.912	6152.25
831.162	6118.25
831.413	6140.25
831.664	6170.25
831.914	6182.25
832.165	6154.25
832.415	6173.25
832.666	6183.25
832.916	6223.25
833.167	6133.25
833.417	6208.25
833.667	6147.25
833.917	6125.25
834.168	6132.25
834.418	6176.25
834.668	6105.25
834.918	6097.25
835.168	6127.25
835.418	6016.25
835.668	6079.25
835.918	6039.25
836.167	6069.25
836.417	5955.25
836.667	6021.25
836.917	5999.25
837.166	6024.25
837.416	5990.25
837.666	6019.25
837.915	5961.25
838.165	5968.25
838.414	5840.25
838.663	5836.25
838.913	5944.25
839.162	5848.25
839.411	5925.25
839.661	5877.25
839.91	5825.25
840.159	5840.25
840.408	5912.25
840.657	5886.25
840.906	5878.25
841.155	5937.25
841.404	5893.25
841.653	5933.25
841.902	5912.25
842.15	5971.25
842.399	5865.25
842.648	5873.25
842.897	5881.25
843.145	5766.25
843.394	5775.25
843.642	5769.25
843.891	5847.25
844.139	5702.25
844.388	5668.25
844.636	5646.25
844.884	5661.25
845.133	5633.25
845.381	5626.25
845.629	5637.25
845.877	5637.25
846.125	5613.25
846.373	5653.25
846.621	5578.25
846.869	5669.25
847.117	5526.25
847.365	5573.25
847.613	5569.25
847.861	5549.25
848.108	5628.25
848.356	5546.25
848.604	5504.25
848.851	5528.25
849.099	5562.25
849.346	5557.25
849.594	5637.25
849.841	5660.25
850.089	5704.25
850.336	5664.25
850.583	5755.25
850.831	5753.25
851.078	5787.25
851.325	5792.25
851.572	5903.25
851.819	5783.25
852.066	5530.25
852.313	5354.25
852.56	5339.25
852.807	5251.25
853.054	5282.25
853.301	5311.25
853.548	5304.25
853.794	5511.25
854.041	5417.25
854.288	5429.25
854.534	5521.25
854.781	5468.25
855.028	5409.25
855.274	5458.25
855.52	5364.25
855.767	5293.25
856.013	5327.25
856.26	5636.25
856.506	5277.25
856.752	5306.25
856.998	5300.25
857.244	5253.25
857.49	5350.25
857.736	5346.25
857.982	5352.25
858.228	5378.25
858.474	5247.25
858.72	5219.25
858.966	5237.25
859.212	5203.25
859.458	5097.25
859.703	5108.25
859.949	5030.25
860.195	5023.25
860.44	5001.25
860.686	4970.25
860.931	4953.25
861.177	4909.25
861.422	4972.25
861.667	4860.25
861.913	4895.25
862.158	4926.25
862.403	4992.25
862.648	4979.25
862.893	5001.25
863.138	4989.25
863.384	4973.25
863.629	4960.25
863.873	4935.25
864.118	4954.25
864.363	4895.25
864.608	4947.25
864.853	4927.25
865.098	4897.25
865.342	4895.25
865.587	4869.25
865.832	4871.25
866.076	4798.25
866.321	4799.25
866.565	4842.25
866.81	4721.25
867.054	4797.25
867.298	4771.25
867.543	4736.25
867.787	4788.25
868.031	4747.25
868.275	4728.25
868.519	4746.25
868.764	4767.25
869.008	4716.25
869.252	4732.25
869.496	4693.25
869.739	4681.25
869.983	4757.25
870.227	4776.25
870.471	4687.25
870.715	4726.25
870.958	4716.25
871.202	4736.25
871.446	4769.25
871.689	4721.25
871.933	4752.25
872.176	4755.25
872.42	4703.25
872.663	4697.25
872.906	4783.25
873.15	4695.25
873.393	4615.25
873.636	4712.25
873.879	4633.25
874.122	4600.25
874.366	4551.25
874.609	4514.25
874.852	4470.25
875.095	4511.25
875.337	4464.25
875.58	4368.25
875.823	4406.25
876.066	4449.25
876.309	4456.25
876.551	4372.25
876.794	4287.25
877.037	4388.25
877.279	4326.25
877.522	4319.25
877.764	4402.25
878.007	4336.25
878.249	4379.25
878.491	4342.25
878.734	4372.25
878.976	4304.25
879.218	4240.25
879.46	4308.25
879.702	4329.25
879.945	4234.25
880.187	4162.25
880.429	4159.25
880.671	4143.25
880.912	4106.25
881.154	4143.25
881.396	4014.25
881.638	4136.25
881.88	4072.25
882.121	4091.25
882.363	4126.25
882.605	4142.25
882.846	4073.25
883.088	4072.25
883.329	4060.25
883.571	4022.25
883.812	4098.25
884.053	4137.25
884.295	4260.25
884.536	4392.25
884.777	4270.25
885.018	4296.25
885.259	4295.25
885.5	4169.25
885.742	4444.25
885.982	4221.25
886.223	4120.25
886.464	4101.25
886.705	4053.25
886.946	4086.25
887.187	3983.25
887.428	4009.25
887.668	3905.25
887.909	3831.25
888.15	3782.25
888.39	3816.25
888.631	3888.25
888.871	3848.25
889.111	3743.25
889.352	3721.25
889.592	3657.25
889.833	3715.25
890.073	3624.25
890.313	3740.25
890.553	3635.25
890.793	3601.25
891.033	3608.25
891.273	3592.25
891.513	3579.25
891.753	3633.25
891.993	3581.25
892.233	3578.25
892.473	3653.25
892.713	3625.25
892.952	3578.25
893.192	3639.25
893.432	3608.25
893.671	3658.25
893.911	3604.25
894.15	3604.25
894.39	3500.25
894.629	3551.25
894.869	3529.25
895.108	3540.25
895.347	3473.25
895.587	3514.25
895.826	3454.25
896.065	3431.25
896.304	3496.25
896.543	3549.25
896.782	3436.25
897.021	3522.25
897.26	3513.25
897.499	3575.25
897.738	3569.25
897.977	3519.25
898.216	3418.25
898.454	3412.25
898.693	3375.25
898.932	3378.25
899.17	3413.25
899.409	3347.25
899.647	3353.25
899.886	3298.25
900.124	3344.25
900.363	3349.25
900.601	3394.25
900.839	3397.25
901.078	3420.25
901.316	3422.25
901.554	3424.25
901.792	3482.25
902.03	3408.25
902.268	3444.25
902.506	3448.25
902.744	3437.25
902.982	3382.25
903.22	3338.25
903.458	3245.25
903.695	3264.25
903.933	3194.25
904.171	3118.25
904.409	3076.25
904.646	3073.25
904.884	2980.25
905.121	3054.25
905.359	2998.25
905.596	2934.25
905.833	2834.25
906.071	2915.25
906.308	2928.25
906.545	2921.25
906.783	2868.25
907.02	2871.25
907.257	2809.25
907.494	2856.25
907.731	2846.25
907.968	2871.25
908.205	2785.25
908.442	2771.25
908.679	2810.25
908.915	2779.25
909.152	2790.25
909.389	2682.25
909.626	2689.25
909.862	2669.25
910.099	2684.25
910.335	2721.25
910.572	2592.25
910.808	2661.25
911.045	2600.25
911.281	2610.25
911.518	2692.25
911.754	2612.25
911.99	2610.25
912.226	2601.25
912.463	2530.25
912.699	2563.25
912.935	2550.25
913.171	2496.25
913.407	2481.25
913.643	2511.25
913.879	2492.25
914.114	2488.25
914.35	2395.25
914.586	2435.25
914.822	2366.25
915.057	2455.25
915.293	2331.25
915.529	2326.25
915.764	2418.25
916	2386.25
916.235	2415.25
916.471	2360.25
916.706	2258.25
916.941	2347.25
917.177	2316.25
917.412	2350.25
917.647	2326.25
917.882	2295.25
918.117	2355.25
918.352	2391.25
918.588	2384.25
918.823	2285.25
919.057	2300.25
919.292	2219.25
919.527	2311.25
919.762	2195.25
919.997	2259.25
920.232	2162.25
920.466	2230.25
920.701	2102.25
920.935	2172.25
921.17	2118.25
921.405	2087.25
921.639	2149.25
921.873	2121.25
922.108	2116.25
922.342	2122.25
922.576	2077.25
922.811	2086.25
923.045	2116.25
923.279	2107.25
923.513	2010.25
923.747	2126.25
923.981	2082.25
924.215	2019.25
924.449	2046.25
924.683	2012.25
924.917	2011.25
925.151	2017.25
925.385	2076.25
925.618	2013.25
925.852	2019.25
926.086	1925.25
926.319	2017.25
926.553	1984.25
926.786	2022.25
927.02	2003.25
927.253	2025.25
927.486	2021.25
927.72	1986.25
927.953	2038.25
928.186	1967.25
928.42	1999.25
928.653	1929.25
928.886	1932.25
929.119	1973.25
929.352	1952.25
929.585	1945.25
929.818	1919.25
930.051	1937.25
930.284	1941.25
930.516	1853.25
930.749	1885.25
930.982	1935.25
931.215	1913.25
931.447	1822.25
931.68	1864.25
931.912	1849.25
932.145	1866.25
932.377	1864.25
932.61	1996.25
932.842	1797.25
933.074	1885.25
933.307	1806.25
933.539	1924.25
933.771	1876.25
934.003	1859.25
934.236	1922.25
934.468	1929.25
934.7	1826.25
934.932	1871.25
935.164	1825.25
935.395	1820.25
935.627	1867.25
935.859	1837.25
936.091	1794.25
936.323	1865.25
936.554	1878.25
936.786	1844.25
937.017	1773.25
937.249	1818.25
937.481	1745.25
937.712	1807.25
937.943	1808.25
938.175	1792.25
938.406	1771.25
938.637	1851.25
938.869	1761.25
939.1	1801.25
939.331	1786.25
939.562	1812.25
939.793	1800.25
940.024	1837.25
940.255	1832.25
940.486	1787.25
940.717	1752.25
940.948	1744.25
941.179	1714.25
941.409	1741.25
941.64	1722.25
941.871	1764.25
942.102	1756.25
942.332	1749.25
942.563	1778.25
942.793	1756.25
943.024	1676.25
943.254	1752.25
943.484	1792.25
943.715	1819.25
943.945	1745.25
944.175	1723.25
944.405	1664.25
944.636	1677.25
944.866	1779.25
945.096	1747.25
945.326	1715.25
945.556	1721.25
945.786	1770.25
946.016	1729.25
946.245	1662.25
946.475	1652.25
946.705	1660.25
946.935	1687.25
947.164	1670.25
947.394	1635.25
947.624	1668.25
947.853	1705.25
948.083	1666.25
948.312	1622.25
948.542	1596.25
948.771	1576.25
949	1611.25
949.23	1622.25
949.459	1632.25
949.688	1670.25
949.917	1653.25
950.146	1640.25
950.375	1703.25
950.604	1585.25
950.833	1699.25
951.062	1676.25
951.291	1628.25
951.52	1594.25
951.749	1623.25
951.978	1599.25
952.206	1597.25
952.435	1591.25
952.664	1614.25
952.892	1635.25
953.121	1612.25
953.349	1637.25
953.578	1620.25
953.806	1562.25
954.035	1541.25
954.263	1589.25
954.491	1520.25
954.719	1584.25
954.948	1547.25
955.176	1547.25
955.404	1478.25
955.632	1550.25
955.86	1570.25
956.088	1565.25
956.316	1555.25
956.544	1600.25
956.772	1524.25
956.999	1486.25
957.227	1587.25
957.455	1506.25
957.683	1496.25
957.91	1461.25
958.138	1475.25
958.365	1468.25
958.593	1481.25
958.82	1449.25
959.048	1518.25
959.275	1467.25
959.502	1482.25
959.73	1475.25
959.957	1523.25
960.184	1558.25
960.411	1478.25
960.638	1571.25
960.865	1488.25
961.092	1505.25
961.319	1382.25
961.546	1499.25
961.773	1481.25
962	1459.25
962.227	1492.25
962.454	1447.25
962.68	1462.25
962.907	1491.25
963.134	1409.25
963.36	1447.25
963.587	1470.25
963.813	1420.25
964.04	1477.25
964.266	1392.25
964.493	1460.25
964.719	1467.25
964.945	1464.25
965.171	1360.25
965.398	1431.25
965.624	1457.25
965.85	1357.25
966.076	1391.25
966.302	1432.25
966.528	1381.25
966.754	1405.25
966.98	1405.25
967.206	1431.25
967.431	1310.25
967.657	1427.25
967.883	1418.25
968.109	1385.25
968.334	1333.25
968.56	1335.25
968.785	1342.25
969.011	1334.25
969.236	1361.25
969.462	1312.25
969.687	1339.25
969.912	1371.25
970.138	1387.25
970.363	1311.25
970.588	1358.25
970.813	1325.25
971.038	1310.25
971.263	1343.25
971.488	1334.25
971.713	1391.25
971.938	1348.25
972.163	1242.25
972.388	1311.25
972.613	1289.25
972.838	1315.25
973.062	1304.25
973.287	1292.25
973.512	1246.25
973.736	1274.25
973.961	1262.25
974.185	1236.25
974.41	1291.25
974.634	1216.25
974.858	1220.25
975.083	1270.25
975.307	1273.25
975.531	1214.25
975.755	1166.25
975.98	1235.25
976.204	1149.25
976.428	1163.25
976.652	1169.25
976.876	1167.25
977.1	1187.25
977.324	1152.25
977.547	1241.25
977.771	1217.25
977.995	1190.25
978.219	1151.25
978.442	1250.25
978.666	1203.25
978.89	1204.25
979.113	1192.25
979.337	1191.25
979.56	1134.25
979.783	1246.25
980.007	1136.25
980.23	1159.25
980.453	1129.25
980.677	1178.25
980.9	1177.25
981.123	1078.25
981.346	1189.25
981.569	1170.25
981.792	1203.25
982.015	1120.25
982.238	1145.25
982.461	1150.25
982.684	1116.25
982.907	1078.25
983.129	1088.25
983.352	1146.25
983.575	1119.25
983.797	1155.25
984.02	1095.25
984.242	1100.25
984.465	1098.25
984.687	1122.25
984.91	1155.25
985.132	1138.25
985.354	1143.25
985.577	1123.25
985.799	1124.25
986.021	1042.25
986.243	1079.25
986.465	1079.25
986.687	1142.25
986.909	1176.25
987.131	1119.25
987.353	1088.25
987.575	1130.25
987.797	1065.25
988.019	1036.25
988.241	1100.25
988.462	1055.25
988.684	1115.25
988.906	1140.25
989.127	1162.25
989.349	1046.25
989.57	1076.25
989.792	1135.25
990.013	1129.25
990.234	1112.25
990.456	1163.25
990.677	1132.25
990.898	1071.25
991.119	1098.25
991.341	1126.25
991.562	1078.25
991.783	1095.25
992.004	1033.25
992.225	1006.25
992.446	1057.25
992.667	996.25
992.887	1097.25
993.108	980.25
993.329	1127.25
993.55	1063.25
993.77	1014.25
993.991	1033.25
994.212	1060.25
994.432	1046.25
994.653	1076.25
994.873	1064.25
995.093	964.25
995.314	992.25
995.534	1070.25
995.754	1089.25
995.975	1108.25
996.195	1012.25
996.415	1085.25
996.635	1032.25
996.855	1062.25
997.075	1028.25
997.295	1038.25
997.515	995.25
997.735	1050.25
997.955	1024.25
998.174	1034.25
998.394	982.25
998.614	1057.25
998.834	1002.25
999.053	1065.25
999.273	1045.25
999.492	1109.25
999.712	1055.25
999.931	1000.25
1000.151	1068.25
1000.37	1029.25
1000.589	1105.25
1000.809	1020.25
1001.028	1149.25
1001.247	1091.25
1001.466	986.25
1001.685	1118.25
1001.904	1076.25
1002.123	1049.25
1002.342	1072.25
1002.561	1044.25
1002.78	1044.25
1002.999	1136.25
1003.218	1063.25
1003.436	1040.25
1003.655	1093.25
1003.874	1051.25
1004.092	1075.25
1004.311	1119.25
1004.53	1069.25
1004.748	1163.25
1004.966	1039.25
1005.185	1118.25
1005.403	1101.25
1005.622	1108.25
1005.84	1143.25
1006.058	1069.25
1006.276	1091.25
1006.494	1575.25
1006.712	1116.25
1006.931	1169.25
1007.149	1064.25
1007.367	1062.25
1007.584	1087.25
1007.802	1130.25
1008.02	1076.25
1008.238	1173.25
1008.456	1167.25
1008.673	1017.25
1008.891	1104.25
1009.109	1070.25
1009.326	1131.25
1009.544	1190.25
1009.761	1091.25
1009.979	1181.25
1010.196	1147.25
1010.413	1214.25
1010.631	1253.25
1010.848	1272.25
1011.065	1262.25
1011.282	1210.25
1011.5	1177.25
1011.717	1285.25
1011.934	1224.25
1012.151	1252.25
1012.368	1231.25
1012.585	1204.25
1012.801	1231.25
1013.018	1196.25
1013.235	1162.25
1013.452	1193.25
1013.669	1202.25
1013.885	1179.25
1014.102	1198.25
1014.318	1177.25
1014.535	1124.25
1014.751	1175.25
1014.968	1150.25
1015.184	1214.25
1015.401	1130.25
1015.617	1178.25
1015.833	1106.25
1016.049	1157.25
1016.266	1123.25
1016.482	1120.25
1016.698	1073.25
1016.914	1132.25
1017.13	1083.25
1017.346	1083.25
1017.562	1176.25
1017.778	1090.25
1017.993	1067.25
1018.209	1135.25
1018.425	1129.25
1018.641	1065.25
1018.856	1041.25
1019.072	1077.25
1019.288	1136.25
1019.503	1095.25
1019.719	1016.25
1019.934	1017.25
1020.149	1090.25
1020.365	1056.25
1020.58	1025.25
1020.795	1051.25
1021.011	1008.25
1021.226	1009.25
1021.441	1017.25
1021.656	981.25
1021.871	891.25
1022.086	925.25
1022.301	900.25
1022.516	922.25
1022.731	979.25
1022.946	858.25
1023.16	883.25
1023.375	859.25
1023.59	837.25
1023.804	803.25
1024.019	921.25
1024.234	780.25
1024.448	860.25
1024.663	778.25
1024.877	807.25
1025.092	813.25
1025.306	826.25
1025.52	737.25
1025.734	847.25
1025.949	743.25
1026.163	748.25
1026.377	674.25
1026.591	735.25
1026.805	683.25
1027.019	666.25
1027.233	633.25
1027.447	591.25
1027.661	697.25
1027.875	636.25
1028.088	652.25
1028.302	588.25
1028.516	598.25
1028.73	593.25
1028.943	582.25
1029.157	535.25
1029.37	512.25
1029.584	0.25
1029.797	-2.75
1030.011	-3.75
1030.224	-3.75
