Data from QEP037381__307__11-11-46-590.txt Node

Date: Wed Dec 21 11:11:46 EST 2022
User: dcclab
Spectrometer: QEP03738
Trigger mode: 4
Integration Time (sec): 1.000000E1
Scans to average: 1
Electric dark correction enabled: true
Nonlinearity correction enabled: false
Boxcar width: 0
XAxis mode: Wavelengths
Number of Pixels in Spectrum: 1044
>>>>>Begin Spectral Data<<<<<
784.041	10.62
784.3	-0.38
784.558	-2.38
784.817	-2.38
785.075	98739.62
785.334	17579.62
785.592	8338.62
785.851	5786.62
786.109	4375.62
786.368	3405.62
786.626	2728.62
786.884	2249.62
787.143	1884.62
787.401	1550.62
787.659	1388.62
787.917	1163.62
788.175	1088.62
788.433	943.62
788.691	856.62
788.949	785.62
789.207	752.62
789.465	633.62
789.723	608.62
789.98	573.62
790.238	593.62
790.496	567.62
790.753	544.62
791.011	595.62
791.268	524.62
791.526	492.62
791.783	532.62
792.041	515.62
792.298	405.62
792.556	470.62
792.813	458.62
793.07	431.62
793.327	421.62
793.584	505.62
793.841	420.62
794.099	441.62
794.356	486.62
794.613	400.62
794.869	443.62
795.126	394.62
795.383	386.62
795.64	400.62
795.897	350.62
796.153	404.62
796.41	389.62
796.667	380.62
796.923	370.62
797.18	364.62
797.436	401.62
797.693	363.62
797.949	438.62
798.206	447.62
798.462	354.62
798.718	389.62
798.974	385.62
799.231	433.62
799.487	408.62
799.743	398.62
799.999	422.62
800.255	410.62
800.511	393.62
800.767	429.62
801.023	410.62
801.279	427.62
801.534	420.62
801.79	447.62
802.046	445.62
802.302	512.62
802.557	513.62
802.813	578.62
803.068	614.62
803.324	783.62
803.579	931.62
803.835	1181.62
804.09	1597.62
804.345	2035.62
804.601	2499.62
804.856	2998.62
805.111	3499.62
805.366	3790.62
805.621	4028.62
805.876	4164.62
806.131	4279.62
806.386	4303.62
806.641	4375.62
806.896	4481.62
807.151	4643.62
807.406	4609.62
807.661	4738.62
807.915	4827.62
808.17	4897.62
808.425	4983.62
808.679	5014.62
808.934	5146.62
809.188	5132.62
809.443	5262.62
809.697	5365.62
809.951	5323.62
810.206	5353.62
810.46	5514.62
810.714	5538.62
810.968	5613.62
811.223	5645.62
811.477	5685.62
811.731	5749.62
811.985	5688.62
812.239	5699.62
812.493	5781.62
812.747	5852.62
813	5834.62
813.254	5847.62
813.508	5937.62
813.762	5960.62
814.015	5989.62
814.269	6058.62
814.522	6108.62
814.776	6222.62
815.03	6216.62
815.283	6339.62
815.536	6473.62
815.79	6522.62
816.043	6696.62
816.296	6847.62
816.55	6831.62
816.803	6958.62
817.056	7181.62
817.309	7150.62
817.562	7224.62
817.815	7393.62
818.068	7354.62
818.321	7466.62
818.574	7544.62
818.827	7732.62
819.079	7854.62
819.332	8022.62
819.585	8120.62
819.838	8293.62
820.09	8191.62
820.343	8264.62
820.595	8256.62
820.848	8391.62
821.1	8510.62
821.353	8448.62
821.605	8373.62
821.857	8516.62
822.11	8402.62
822.362	8406.62
822.614	8420.62
822.866	8384.62
823.118	8423.62
823.37	8589.62
823.622	8561.62
823.874	8557.62
824.126	8634.62
824.378	8662.62
824.63	8688.62
824.882	8660.62
825.134	8636.62
825.385	8641.62
825.637	8602.62
825.888	8570.62
826.14	8563.62
826.392	8529.62
826.643	8459.62
826.895	8531.62
827.146	8524.62
827.397	8436.62
827.649	8467.62
827.9	8342.62
828.151	8398.62
828.402	8410.62
828.653	8436.62
828.905	8475.62
829.156	8575.62
829.407	8487.62
829.658	8563.62
829.909	8657.62
830.159	8734.62
830.41	8602.62
830.661	8520.62
830.912	8516.62
831.162	8531.62
831.413	8550.62
831.664	8578.62
831.914	8545.62
832.165	8542.62
832.415	8572.62
832.666	8537.62
832.916	8556.62
833.167	8585.62
833.417	8597.62
833.667	8541.62
833.917	8578.62
834.168	8603.62
834.418	8503.62
834.668	8484.62
834.918	8431.62
835.168	8478.62
835.418	8380.62
835.668	8424.62
835.918	8413.62
836.167	8368.62
836.417	8362.62
836.667	8294.62
836.917	8395.62
837.166	8371.62
837.416	8435.62
837.666	8399.62
837.915	8354.62
838.165	8416.62
838.414	8293.62
838.663	8327.62
838.913	8343.62
839.162	8337.62
839.411	8488.62
839.661	8284.62
839.91	8347.62
840.159	8373.62
840.408	8414.62
840.657	8378.62
840.906	8494.62
841.155	8530.62
841.404	8413.62
841.653	8413.62
841.902	8437.62
842.15	8484.62
842.399	8592.62
842.648	8530.62
842.897	8479.62
843.145	8367.62
843.394	8327.62
843.642	8353.62
843.891	8332.62
844.139	8202.62
844.388	8202.62
844.636	8121.62
844.884	8189.62
845.133	8099.62
845.381	8146.62
845.629	8232.62
845.877	8155.62
846.125	8233.62
846.373	8250.62
846.621	8161.62
846.869	8228.62
847.117	8109.62
847.365	8105.62
847.613	8086.62
847.861	8076.62
848.108	8124.62
848.356	8071.62
848.604	8099.62
848.851	8077.62
849.099	8154.62
849.346	8185.62
849.594	8303.62
849.841	8319.62
850.089	8341.62
850.336	8396.62
850.583	8520.62
850.831	8464.62
851.078	8383.62
851.325	8395.62
851.572	8573.62
851.819	8415.62
852.066	8108.62
852.313	7936.62
852.56	7824.62
852.807	7781.62
853.054	7739.62
853.301	7775.62
853.548	7873.62
853.794	7976.62
854.041	7902.62
854.288	7964.62
854.534	8115.62
854.781	8153.62
855.028	8057.62
855.274	8042.62
855.52	8037.62
855.767	7990.62
856.013	8069.62
856.26	8337.62
856.506	7956.62
856.752	8013.62
856.998	7965.62
857.244	8017.62
857.49	8058.62
857.736	8039.62
857.982	8126.62
858.228	8135.62
858.474	7922.62
858.72	7907.62
858.966	7885.62
859.212	7740.62
859.458	7681.62
859.703	7538.62
859.949	7550.62
860.195	7578.62
860.44	7473.62
860.686	7475.62
860.931	7504.62
861.177	7457.62
861.422	7364.62
861.667	7271.62
861.913	7332.62
862.158	7291.62
862.403	7410.62
862.648	7364.62
862.893	7445.62
863.138	7410.62
863.384	7386.62
863.629	7360.62
863.873	7365.62
864.118	7391.62
864.363	7327.62
864.608	7389.62
864.853	7412.62
865.098	7320.62
865.342	7315.62
865.587	7174.62
865.832	7306.62
866.076	7248.62
866.321	7230.62
866.565	7293.62
866.81	7144.62
867.054	7227.62
867.298	7172.62
867.543	7161.62
867.787	7253.62
868.031	7160.62
868.275	7202.62
868.519	7227.62
868.764	7198.62
869.008	7262.62
869.252	7220.62
869.496	7279.62
869.739	7303.62
869.983	7341.62
870.227	7380.62
870.471	7339.62
870.715	7467.62
870.958	7532.62
871.202	7498.62
871.446	7482.62
871.689	7566.62
871.933	7514.62
872.176	7489.62
872.42	7413.62
872.663	7424.62
872.906	7468.62
873.15	7459.62
873.393	7404.62
873.636	7498.62
873.879	7414.62
874.122	7362.62
874.366	7243.62
874.609	7141.62
874.852	7074.62
875.095	7082.62
875.337	7062.62
875.58	6936.62
875.823	6920.62
876.066	7032.62
876.309	7058.62
876.551	6891.62
876.794	6829.62
877.037	6890.62
877.279	6863.62
877.522	6810.62
877.764	6844.62
878.007	6763.62
878.249	6783.62
878.491	6776.62
878.734	6871.62
878.976	6746.62
879.218	6620.62
879.46	6669.62
879.702	6615.62
879.945	6638.62
880.187	6453.62
880.429	6496.62
880.671	6385.62
880.912	6441.62
881.154	6448.62
881.396	6339.62
881.638	6470.62
881.88	6456.62
882.121	6445.62
882.363	6467.62
882.605	6516.62
882.846	6503.62
883.088	6445.62
883.329	6489.62
883.571	6564.62
883.812	6704.62
884.053	6901.62
884.295	7114.62
884.536	7398.62
884.777	7319.62
885.018	7245.62
885.259	7245.62
885.5	7140.62
885.742	7374.62
885.982	7126.62
886.223	6980.62
886.464	6937.62
886.705	6786.62
886.946	6732.62
887.187	6497.62
887.428	6441.62
887.668	6264.62
887.909	6194.62
888.15	6033.62
888.39	6056.62
888.631	6039.62
888.871	5926.62
889.111	5956.62
889.352	5911.62
889.592	5800.62
889.833	5719.62
890.073	5720.62
890.313	5779.62
890.553	5647.62
890.793	5635.62
891.033	5578.62
891.273	5628.62
891.513	5592.62
891.753	5661.62
891.993	5570.62
892.233	5637.62
892.473	5696.62
892.713	5652.62
892.952	5629.62
893.192	5664.62
893.432	5684.62
893.671	5747.62
893.911	5665.62
894.15	5627.62
894.39	5535.62
894.629	5580.62
894.869	5576.62
895.108	5545.62
895.347	5479.62
895.587	5560.62
895.826	5515.62
896.065	5486.62
896.304	5535.62
896.543	5536.62
896.782	5469.62
897.021	5537.62
897.26	5529.62
897.499	5549.62
897.738	5582.62
897.977	5548.62
898.216	5539.62
898.454	5531.62
898.693	5427.62
898.932	5437.62
899.17	5422.62
899.409	5430.62
899.647	5476.62
899.886	5424.62
900.124	5562.62
900.363	5486.62
900.601	5566.62
900.839	5622.62
901.078	5636.62
901.316	5744.62
901.554	5793.62
901.792	5868.62
902.03	5869.62
902.268	5906.62
902.506	5942.62
902.744	5826.62
902.982	5803.62
903.22	5625.62
903.458	5540.62
903.695	5441.62
903.933	5293.62
904.171	5188.62
904.409	5076.62
904.646	5049.62
904.884	4912.62
905.121	4884.62
905.359	4812.62
905.596	4765.62
905.833	4648.62
906.071	4636.62
906.308	4666.62
906.545	4665.62
906.783	4585.62
907.02	4587.62
907.257	4506.62
907.494	4535.62
907.731	4593.62
907.968	4574.62
908.205	4479.62
908.442	4405.62
908.679	4480.62
908.915	4404.62
909.152	4413.62
909.389	4268.62
909.626	4343.62
909.862	4289.62
910.099	4290.62
910.335	4325.62
910.572	4226.62
910.808	4227.62
911.045	4233.62
911.281	4214.62
911.518	4232.62
911.754	4152.62
911.99	4162.62
912.226	4108.62
912.463	4094.62
912.699	4042.62
912.935	4070.62
913.171	3999.62
913.407	3971.62
913.643	4012.62
913.879	3938.62
914.114	3909.62
914.35	3860.62
914.586	3845.62
914.822	3809.62
915.057	3872.62
915.293	3693.62
915.529	3718.62
915.764	3788.62
916	3799.62
916.235	3757.62
916.471	3822.62
916.706	3731.62
916.941	3705.62
917.177	3718.62
917.412	3769.62
917.647	3747.62
917.882	3705.62
918.117	3757.62
918.352	3692.62
918.588	3770.62
918.823	3680.62
919.057	3691.62
919.292	3561.62
919.527	3634.62
919.762	3579.62
919.997	3629.62
920.232	3519.62
920.466	3560.62
920.701	3390.62
920.935	3470.62
921.17	3455.62
921.405	3425.62
921.639	3455.62
921.873	3386.62
922.108	3414.62
922.342	3396.62
922.576	3327.62
922.811	3350.62
923.045	3423.62
923.279	3427.62
923.513	3261.62
923.747	3386.62
923.981	3327.62
924.215	3266.62
924.449	3222.62
924.683	3189.62
924.917	3222.62
925.151	3263.62
925.385	3292.62
925.618	3244.62
925.852	3219.62
926.086	3178.62
926.319	3264.62
926.553	3269.62
926.786	3246.62
927.02	3198.62
927.253	3231.62
927.486	3266.62
927.72	3186.62
927.953	3235.62
928.186	3220.62
928.42	3206.62
928.653	3109.62
928.886	3172.62
929.119	3188.62
929.352	3156.62
929.585	3142.62
929.818	3140.62
930.051	3125.62
930.284	3123.62
930.516	3007.62
930.749	3035.62
930.982	3085.62
931.215	3043.62
931.447	2998.62
931.68	3022.62
931.912	2965.62
932.145	2984.62
932.377	2997.62
932.61	3146.62
932.842	2967.62
933.074	3006.62
933.307	2975.62
933.539	3087.62
933.771	3058.62
934.003	3030.62
934.236	3086.62
934.468	3088.62
934.7	3018.62
934.932	3067.62
935.164	2972.62
935.395	2956.62
935.627	3035.62
935.859	2996.62
936.091	2961.62
936.323	3022.62
936.554	3037.62
936.786	2946.62
937.017	2894.62
937.249	2938.62
937.481	2884.62
937.712	2987.62
937.943	2961.62
938.175	2920.62
938.406	2945.62
938.637	3000.62
938.869	2909.62
939.1	2971.62
939.331	2893.62
939.562	2942.62
939.793	2955.62
940.024	2923.62
940.255	2939.62
940.486	2875.62
940.717	2876.62
940.948	2886.62
941.179	2828.62
941.409	2868.62
941.64	2833.62
941.871	2865.62
942.102	2815.62
942.332	2789.62
942.563	2882.62
942.793	2882.62
943.024	2820.62
943.254	2871.62
943.484	2871.62
943.715	2930.62
943.945	2902.62
944.175	2799.62
944.405	2789.62
944.636	2816.62
944.866	2880.62
945.096	2883.62
945.326	2796.62
945.556	2836.62
945.786	2854.62
946.016	2779.62
946.245	2769.62
946.475	2746.62
946.705	2772.62
946.935	2762.62
947.164	2729.62
947.394	2697.62
947.624	2713.62
947.853	2753.62
948.083	2746.62
948.312	2692.62
948.542	2617.62
948.771	2639.62
949	2641.62
949.23	2658.62
949.459	2695.62
949.688	2714.62
949.917	2675.62
950.146	2668.62
950.375	2776.62
950.604	2631.62
950.833	2740.62
951.062	2728.62
951.291	2721.62
951.52	2615.62
951.749	2661.62
951.978	2586.62
952.206	2655.62
952.435	2622.62
952.664	2676.62
952.892	2658.62
953.121	2658.62
953.349	2656.62
953.578	2635.62
953.806	2625.62
954.035	2525.62
954.263	2593.62
954.491	2535.62
954.719	2563.62
954.948	2533.62
955.176	2536.62
955.404	2484.62
955.632	2508.62
955.86	2551.62
956.088	2524.62
956.316	2559.62
956.544	2563.62
956.772	2486.62
956.999	2499.62
957.227	2561.62
957.455	2465.62
957.683	2493.62
957.91	2426.62
958.138	2407.62
958.365	2424.62
958.593	2418.62
958.82	2382.62
959.048	2425.62
959.275	2399.62
959.502	2410.62
959.73	2407.62
959.957	2426.62
960.184	2429.62
960.411	2384.62
960.638	2438.62
960.865	2363.62
961.092	2390.62
961.319	2312.62
961.546	2444.62
961.773	2430.62
962	2341.62
962.227	2443.62
962.454	2423.62
962.68	2358.62
962.907	2387.62
963.134	2297.62
963.36	2320.62
963.587	2355.62
963.813	2289.62
964.04	2336.62
964.266	2240.62
964.493	2369.62
964.719	2342.62
964.945	2289.62
965.171	2225.62
965.398	2295.62
965.624	2284.62
965.85	2227.62
966.076	2197.62
966.302	2254.62
966.528	2239.62
966.754	2247.62
966.98	2251.62
967.206	2197.62
967.431	2156.62
967.657	2228.62
967.883	2215.62
968.109	2192.62
968.334	2149.62
968.56	2156.62
968.785	2204.62
969.011	2121.62
969.236	2175.62
969.462	2140.62
969.687	2165.62
969.912	2175.62
970.138	2176.62
970.363	2139.62
970.588	2154.62
970.813	2122.62
971.038	2089.62
971.263	2101.62
971.488	2144.62
971.713	2158.62
971.938	2155.62
972.163	2056.62
972.388	2047.62
972.613	2061.62
972.838	2070.62
973.062	2058.62
973.287	2064.62
973.512	1991.62
973.736	2039.62
973.961	2026.62
974.185	1998.62
974.41	2047.62
974.634	1947.62
974.858	1980.62
975.083	2029.62
975.307	2029.62
975.531	1976.62
975.755	1932.62
975.98	1939.62
976.204	1877.62
976.428	1879.62
976.652	1916.62
976.876	1885.62
977.1	1884.62
977.324	1866.62
977.547	1933.62
977.771	1948.62
977.995	1886.62
978.219	1824.62
978.442	1971.62
978.666	1877.62
978.89	1862.62
979.113	1874.62
979.337	1883.62
979.56	1838.62
979.783	1927.62
980.007	1815.62
980.23	1879.62
980.453	1841.62
980.677	1859.62
980.9	1856.62
981.123	1762.62
981.346	1849.62
981.569	1821.62
981.792	1858.62
982.015	1802.62
982.238	1749.62
982.461	1818.62
982.684	1761.62
982.907	1757.62
983.129	1763.62
983.352	1792.62
983.575	1786.62
983.797	1769.62
984.02	1733.62
984.242	1727.62
984.465	1748.62
984.687	1764.62
984.91	1790.62
985.132	1772.62
985.354	1757.62
985.577	1725.62
985.799	1726.62
986.021	1661.62
986.243	1687.62
986.465	1709.62
986.687	1762.62
986.909	1767.62
987.131	1721.62
987.353	1681.62
987.575	1718.62
987.797	1685.62
988.019	1631.62
988.241	1691.62
988.462	1636.62
988.684	1685.62
988.906	1735.62
989.127	1748.62
989.349	1638.62
989.57	1688.62
989.792	1716.62
990.013	1709.62
990.234	1716.62
990.456	1734.62
990.677	1733.62
990.898	1681.62
991.119	1665.62
991.341	1699.62
991.562	1625.62
991.783	1696.62
992.004	1608.62
992.225	1621.62
992.446	1661.62
992.667	1556.62
992.887	1659.62
993.108	1545.62
993.329	1661.62
993.55	1645.62
993.77	1545.62
993.991	1537.62
994.212	1630.62
994.432	1594.62
994.653	1619.62
994.873	1595.62
995.093	1469.62
995.314	1538.62
995.534	1600.62
995.754	1605.62
995.975	1644.62
996.195	1537.62
996.415	1587.62
996.635	1576.62
996.855	1564.62
997.075	1556.62
997.295	1556.62
997.515	1538.62
997.735	1616.62
997.955	1585.62
998.174	1581.62
998.394	1537.62
998.614	1591.62
998.834	1525.62
999.053	1609.62
999.273	1568.62
999.492	1636.62
999.712	1559.62
999.931	1513.62
1000.151	1574.62
1000.37	1540.62
1000.589	1597.62
1000.809	1512.62
1001.028	1630.62
1001.247	1556.62
1001.466	1458.62
1001.685	1608.62
1001.904	1529.62
1002.123	1522.62
1002.342	1540.62
1002.561	1469.62
1002.78	1531.62
1002.999	1600.62
1003.218	1511.62
1003.436	1474.62
1003.655	1550.62
1003.874	1500.62
1004.092	1488.62
1004.311	1563.62
1004.53	1498.62
1004.748	1594.62
1004.966	1499.62
1005.185	1567.62
1005.403	1549.62
1005.622	1511.62
1005.84	1637.62
1006.058	1534.62
1006.276	1551.62
1006.494	2025.62
1006.712	1560.62
1006.931	1595.62
1007.149	1542.62
1007.367	1512.62
1007.584	1569.62
1007.802	1620.62
1008.02	1555.62
1008.238	1704.62
1008.456	1697.62
1008.673	1586.62
1008.891	1701.62
1009.109	1656.62
1009.326	1742.62
1009.544	1835.62
1009.761	1803.62
1009.979	1929.62
1010.196	1941.62
1010.413	2067.62
1010.631	2185.62
1010.848	2247.62
1011.065	2298.62
1011.282	2260.62
1011.5	2182.62
1011.717	2294.62
1011.934	2237.62
1012.151	2273.62
1012.368	2242.62
1012.585	2211.62
1012.801	2287.62
1013.018	2230.62
1013.235	2244.62
1013.452	2267.62
1013.669	2277.62
1013.885	2278.62
1014.102	2314.62
1014.318	2289.62
1014.535	2244.62
1014.751	2273.62
1014.968	2264.62
1015.184	2332.62
1015.401	2191.62
1015.617	2259.62
1015.833	2186.62
1016.049	2185.62
1016.266	2183.62
1016.482	2172.62
1016.698	2112.62
1016.914	2176.62
1017.13	2077.62
1017.346	2097.62
1017.562	2196.62
1017.778	2097.62
1017.993	2075.62
1018.209	2122.62
1018.425	2092.62
1018.641	2109.62
1018.856	2068.62
1019.072	2098.62
1019.288	2137.62
1019.503	2093.62
1019.719	2059.62
1019.934	2043.62
1020.149	2127.62
1020.365	2035.62
1020.58	1956.62
1020.795	1967.62
1021.011	1877.62
1021.226	1869.62
1021.441	1865.62
1021.656	1772.62
1021.871	1693.62
1022.086	1659.62
1022.301	1625.62
1022.516	1601.62
1022.731	1676.62
1022.946	1563.62
1023.16	1527.62
1023.375	1465.62
1023.59	1463.62
1023.804	1407.62
1024.019	1509.62
1024.234	1351.62
1024.448	1404.62
1024.663	1309.62
1024.877	1307.62
1025.092	1327.62
1025.306	1306.62
1025.52	1201.62
1025.734	1302.62
1025.949	1178.62
1026.163	1164.62
1026.377	1086.62
1026.591	1125.62
1026.805	1042.62
1027.019	1034.62
1027.233	994.62
1027.447	955.62
1027.661	1045.62
1027.875	992.62
1028.088	974.62
1028.302	899.62
1028.516	906.62
1028.73	900.62
1028.943	870.62
1029.157	812.62
1029.37	759.62
1029.584	-2.38
1029.797	1.62
1030.011	-3.38
1030.224	-1.38
