Data from QEP037381__322__11-14-16-591.txt Node

Date: Wed Dec 21 11:14:16 EST 2022
User: dcclab
Spectrometer: QEP03738
Trigger mode: 4
Integration Time (sec): 1.000000E1
Scans to average: 1
Electric dark correction enabled: true
Nonlinearity correction enabled: false
Boxcar width: 0
XAxis mode: Wavelengths
Number of Pixels in Spectrum: 1044
>>>>>Begin Spectral Data<<<<<
784.041	11.25
784.3	0.25
784.558	-0.75
784.817	-3.75
785.075	98457.25
785.334	16895.25
785.592	7824.25
785.851	5409.25
786.109	4097.25
786.368	3184.25
786.626	2557.25
786.884	2112.25
787.143	1763.25
787.401	1437.25
787.659	1325.25
787.917	1140.25
788.175	1024.25
788.433	906.25
788.691	816.25
788.949	743.25
789.207	727.25
789.465	646.25
789.723	605.25
789.98	554.25
790.238	594.25
790.496	559.25
790.753	547.25
791.011	574.25
791.268	501.25
791.526	503.25
791.783	509.25
792.041	489.25
792.298	408.25
792.556	467.25
792.813	454.25
793.07	439.25
793.327	422.25
793.584	503.25
793.841	417.25
794.099	441.25
794.356	502.25
794.613	389.25
794.869	425.25
795.126	393.25
795.383	395.25
795.64	400.25
795.897	359.25
796.153	409.25
796.41	401.25
796.667	374.25
796.923	397.25
797.18	386.25
797.436	408.25
797.693	375.25
797.949	416.25
798.206	430.25
798.462	359.25
798.718	411.25
798.974	386.25
799.231	408.25
799.487	407.25
799.743	408.25
799.999	438.25
800.255	419.25
800.511	391.25
800.767	443.25
801.023	409.25
801.279	429.25
801.534	438.25
801.79	458.25
802.046	445.25
802.302	525.25
802.557	536.25
802.813	592.25
803.068	609.25
803.324	814.25
803.579	983.25
803.835	1286.25
804.09	1760.25
804.345	2214.25
804.601	2842.25
804.856	3458.25
805.111	3981.25
805.366	4408.25
805.621	4625.25
805.876	4856.25
806.131	4966.25
806.386	5046.25
806.641	5142.25
806.896	5190.25
807.151	5411.25
807.406	5419.25
807.661	5557.25
807.915	5672.25
808.17	5760.25
808.425	5795.25
808.679	5840.25
808.934	5953.25
809.188	6021.25
809.443	6113.25
809.697	6239.25
809.951	6240.25
810.206	6291.25
810.46	6410.25
810.714	6461.25
810.968	6590.25
811.223	6575.25
811.477	6626.25
811.731	6700.25
811.985	6693.25
812.239	6686.25
812.493	6818.25
812.747	6837.25
813	6891.25
813.254	6947.25
813.508	7007.25
813.762	7001.25
814.015	7037.25
814.269	7133.25
814.522	7192.25
814.776	7285.25
815.03	7380.25
815.283	7512.25
815.536	7704.25
815.79	7769.25
816.043	7886.25
816.296	8054.25
816.55	8128.25
816.803	8239.25
817.056	8408.25
817.309	8483.25
817.562	8571.25
817.815	8757.25
818.068	8738.25
818.321	8860.25
818.574	8950.25
818.827	9150.25
819.079	9292.25
819.332	9555.25
819.585	9655.25
819.838	9801.25
820.09	9787.25
820.343	9950.25
820.595	9863.25
820.848	9984.25
821.1	10011.25
821.353	9986.25
821.605	9999.25
821.857	10053.25
822.11	10004.25
822.362	10030.25
822.614	9961.25
822.866	10075.25
823.118	9981.25
823.37	10146.25
823.622	10160.25
823.874	10197.25
824.126	10377.25
824.378	10249.25
824.63	10319.25
824.882	10365.25
825.134	10345.25
825.385	10271.25
825.637	10257.25
825.888	10286.25
826.14	10241.25
826.392	10221.25
826.643	10135.25
826.895	10125.25
827.146	9975.25
827.397	10061.25
827.649	10177.25
827.9	10077.25
828.151	10081.25
828.402	10129.25
828.653	10226.25
828.905	10190.25
829.156	10264.25
829.407	10234.25
829.658	10241.25
829.909	10398.25
830.159	10394.25
830.41	10328.25
830.661	10323.25
830.912	10244.25
831.162	10230.25
831.413	10224.25
831.664	10317.25
831.914	10276.25
832.165	10288.25
832.415	10238.25
832.666	10189.25
832.916	10314.25
833.167	10290.25
833.417	10365.25
833.667	10278.25
833.917	10158.25
834.168	10242.25
834.418	10260.25
834.668	10207.25
834.918	10126.25
835.168	10108.25
835.418	10079.25
835.668	10039.25
835.918	10105.25
836.167	10130.25
836.417	9975.25
836.667	10065.25
836.917	10093.25
837.166	10015.25
837.416	10110.25
837.666	10103.25
837.915	10063.25
838.165	10045.25
838.414	10071.25
838.663	9978.25
838.913	10058.25
839.162	10029.25
839.411	10120.25
839.661	10058.25
839.91	10026.25
840.159	10107.25
840.408	10206.25
840.657	10154.25
840.906	10148.25
841.155	10224.25
841.404	10154.25
841.653	10155.25
841.902	10134.25
842.15	10188.25
842.399	10271.25
842.648	10273.25
842.897	10205.25
843.145	10158.25
843.394	10053.25
843.642	10010.25
843.891	10026.25
844.139	9982.25
844.388	9879.25
844.636	9817.25
844.884	9907.25
845.133	9808.25
845.381	9832.25
845.629	9935.25
845.877	9931.25
846.125	9899.25
846.373	9880.25
846.621	9925.25
846.869	9892.25
847.117	9821.25
847.365	9747.25
847.613	9755.25
847.861	9772.25
848.108	9785.25
848.356	9772.25
848.604	9735.25
848.851	9826.25
849.099	9893.25
849.346	9888.25
849.594	10001.25
849.841	10071.25
850.089	10085.25
850.336	10189.25
850.583	10281.25
850.831	10240.25
851.078	10139.25
851.325	10135.25
851.572	10242.25
851.819	10101.25
852.066	9836.25
852.313	9619.25
852.56	9527.25
852.807	9410.25
853.054	9433.25
853.301	9422.25
853.548	9496.25
853.794	9715.25
854.041	9630.25
854.288	9665.25
854.534	9895.25
854.781	9751.25
855.028	9735.25
855.274	9816.25
855.52	9716.25
855.767	9651.25
856.013	9777.25
856.26	10045.25
856.506	9660.25
856.752	9728.25
856.998	9714.25
857.244	9683.25
857.49	9783.25
857.736	9783.25
857.982	9834.25
858.228	9852.25
858.474	9680.25
858.72	9567.25
858.966	9480.25
859.212	9516.25
859.458	9350.25
859.703	9291.25
859.949	9154.25
860.195	9152.25
860.44	9129.25
860.686	9123.25
860.931	9116.25
861.177	9055.25
861.422	9021.25
861.667	8929.25
861.913	8934.25
862.158	8975.25
862.403	9061.25
862.648	9100.25
862.893	9042.25
863.138	9093.25
863.384	8976.25
863.629	9087.25
863.873	9054.25
864.118	9095.25
864.363	8988.25
864.608	9002.25
864.853	9055.25
865.098	8969.25
865.342	8946.25
865.587	8905.25
865.832	8841.25
866.076	8938.25
866.321	8869.25
866.565	8822.25
866.81	8882.25
867.054	8799.25
867.298	8794.25
867.543	8785.25
867.787	8862.25
868.031	8860.25
868.275	8825.25
868.519	8843.25
868.764	8864.25
869.008	8893.25
869.252	8861.25
869.496	8803.25
869.739	8864.25
869.983	8993.25
870.227	8899.25
870.471	8922.25
870.715	8996.25
870.958	9074.25
871.202	9040.25
871.446	9158.25
871.689	9087.25
871.933	9118.25
872.176	9087.25
872.42	9045.25
872.663	9077.25
872.906	9088.25
873.15	9038.25
873.393	8975.25
873.636	9139.25
873.879	9019.25
874.122	8863.25
874.366	8741.25
874.609	8747.25
874.852	8622.25
875.095	8672.25
875.337	8574.25
875.58	8475.25
875.823	8538.25
876.066	8535.25
876.309	8501.25
876.551	8357.25
876.794	8338.25
877.037	8474.25
877.279	8372.25
877.522	8311.25
877.764	8337.25
878.007	8327.25
878.249	8358.25
878.491	8325.25
878.734	8314.25
878.976	8250.25
879.218	8162.25
879.46	8232.25
879.702	8150.25
879.945	8095.25
880.187	7957.25
880.429	7984.25
880.671	7952.25
880.912	7964.25
881.154	7938.25
881.396	7853.25
881.638	7964.25
881.88	8007.25
882.121	7950.25
882.363	7910.25
882.605	7940.25
882.846	7994.25
883.088	8075.25
883.329	7991.25
883.571	7968.25
883.812	8152.25
884.053	8374.25
884.295	8621.25
884.536	8842.25
884.777	8788.25
885.018	8707.25
885.259	8734.25
885.5	8654.25
885.742	8800.25
885.982	8632.25
886.223	8424.25
886.464	8411.25
886.705	8260.25
886.946	8152.25
887.187	7973.25
887.428	7908.25
887.668	7699.25
887.909	7716.25
888.15	7493.25
888.39	7508.25
888.631	7447.25
888.871	7399.25
889.111	7423.25
889.352	7277.25
889.592	7234.25
889.833	7205.25
890.073	7137.25
890.313	7142.25
890.553	6972.25
890.793	7083.25
891.033	7052.25
891.273	6952.25
891.513	6934.25
891.753	6951.25
891.993	6983.25
892.233	6966.25
892.473	7084.25
892.713	7015.25
892.952	7028.25
893.192	7079.25
893.432	6968.25
893.671	7077.25
893.911	7028.25
894.15	7009.25
894.39	6907.25
894.629	6962.25
894.869	6949.25
895.108	6918.25
895.347	6809.25
895.587	6870.25
895.826	6840.25
896.065	6845.25
896.304	6852.25
896.543	6944.25
896.782	6803.25
897.021	6867.25
897.26	6885.25
897.499	6973.25
897.738	6984.25
897.977	6861.25
898.216	6838.25
898.454	6773.25
898.693	6726.25
898.932	6711.25
899.17	6668.25
899.409	6686.25
899.647	6795.25
899.886	6730.25
900.124	6752.25
900.363	6785.25
900.601	6834.25
900.839	6845.25
901.078	6929.25
901.316	7002.25
901.554	7056.25
901.792	7111.25
902.03	7141.25
902.268	7145.25
902.506	7178.25
902.744	7070.25
902.982	7051.25
903.22	6807.25
903.458	6733.25
903.695	6645.25
903.933	6520.25
904.171	6353.25
904.409	6283.25
904.646	6247.25
904.884	6049.25
905.121	6063.25
905.359	5933.25
905.596	5894.25
905.833	5855.25
906.071	5849.25
906.308	5794.25
906.545	5768.25
906.783	5745.25
907.02	5710.25
907.257	5690.25
907.494	5713.25
907.731	5715.25
907.968	5706.25
908.205	5644.25
908.442	5642.25
908.679	5609.25
908.915	5551.25
909.152	5569.25
909.389	5464.25
909.626	5398.25
909.862	5356.25
910.099	5337.25
910.335	5379.25
910.572	5271.25
910.808	5338.25
911.045	5329.25
911.281	5249.25
911.518	5347.25
911.754	5285.25
911.99	5224.25
912.226	5204.25
912.463	5129.25
912.699	5168.25
912.935	5101.25
913.171	5038.25
913.407	5004.25
913.643	5043.25
913.879	4971.25
914.114	4926.25
914.35	4886.25
914.586	4866.25
914.822	4826.25
915.057	4900.25
915.293	4708.25
915.529	4714.25
915.764	4770.25
916	4727.25
916.235	4736.25
916.471	4736.25
916.706	4671.25
916.941	4715.25
917.177	4736.25
917.412	4720.25
917.647	4757.25
917.882	4701.25
918.117	4773.25
918.352	4688.25
918.588	4709.25
918.823	4632.25
919.057	4642.25
919.292	4484.25
919.527	4594.25
919.762	4467.25
919.997	4558.25
920.232	4470.25
920.466	4499.25
920.701	4265.25
920.935	4368.25
921.17	4340.25
921.405	4330.25
921.639	4354.25
921.873	4288.25
922.108	4330.25
922.342	4321.25
922.576	4240.25
922.811	4234.25
923.045	4253.25
923.279	4272.25
923.513	4135.25
923.747	4247.25
923.981	4132.25
924.215	4150.25
924.449	4154.25
924.683	4096.25
924.917	4123.25
925.151	4106.25
925.385	4148.25
925.618	4061.25
925.852	4099.25
926.086	4035.25
926.319	4070.25
926.553	4056.25
926.786	4088.25
927.02	4063.25
927.253	4093.25
927.486	4088.25
927.72	3997.25
927.953	4124.25
928.186	4011.25
928.42	4074.25
928.653	3998.25
928.886	3995.25
929.119	4011.25
929.352	3987.25
929.585	3970.25
929.818	3938.25
930.051	3864.25
930.284	3917.25
930.516	3779.25
930.749	3794.25
930.982	3859.25
931.215	3868.25
931.447	3770.25
931.68	3794.25
931.912	3783.25
932.145	3769.25
932.377	3845.25
932.61	3924.25
932.842	3763.25
933.074	3752.25
933.307	3736.25
933.539	3862.25
933.771	3849.25
934.003	3771.25
934.236	3863.25
934.468	3879.25
934.7	3831.25
934.932	3804.25
935.164	3762.25
935.395	3753.25
935.627	3760.25
935.859	3780.25
936.091	3757.25
936.323	3793.25
936.554	3794.25
936.786	3713.25
937.017	3703.25
937.249	3736.25
937.481	3679.25
937.712	3733.25
937.943	3709.25
938.175	3683.25
938.406	3692.25
938.637	3769.25
938.869	3637.25
939.1	3681.25
939.331	3651.25
939.562	3693.25
939.793	3683.25
940.024	3701.25
940.255	3684.25
940.486	3659.25
940.717	3609.25
940.948	3595.25
941.179	3568.25
941.409	3646.25
941.64	3583.25
941.871	3612.25
942.102	3596.25
942.332	3570.25
942.563	3647.25
942.793	3635.25
943.024	3540.25
943.254	3628.25
943.484	3634.25
943.715	3623.25
943.945	3650.25
944.175	3566.25
944.405	3538.25
944.636	3553.25
944.866	3625.25
945.096	3613.25
945.326	3546.25
945.556	3596.25
945.786	3585.25
946.016	3521.25
946.245	3423.25
946.475	3473.25
946.705	3480.25
946.935	3480.25
947.164	3493.25
947.394	3402.25
947.624	3443.25
947.853	3460.25
948.083	3428.25
948.312	3394.25
948.542	3330.25
948.771	3354.25
949	3338.25
949.23	3377.25
949.459	3367.25
949.688	3440.25
949.917	3390.25
950.146	3373.25
950.375	3416.25
950.604	3314.25
950.833	3404.25
951.062	3446.25
951.291	3362.25
951.52	3365.25
951.749	3394.25
951.978	3302.25
952.206	3321.25
952.435	3301.25
952.664	3337.25
952.892	3337.25
953.121	3317.25
953.349	3345.25
953.578	3303.25
953.806	3249.25
954.035	3216.25
954.263	3242.25
954.491	3203.25
954.719	3280.25
954.948	3181.25
955.176	3180.25
955.404	3133.25
955.632	3183.25
955.86	3199.25
956.088	3157.25
956.316	3179.25
956.544	3192.25
956.772	3144.25
956.999	3131.25
957.227	3192.25
957.455	3114.25
957.683	3112.25
957.91	3059.25
958.138	3049.25
958.365	3054.25
958.593	3050.25
958.82	2984.25
959.048	3082.25
959.275	3000.25
959.502	3003.25
959.73	2999.25
959.957	3046.25
960.184	3069.25
960.411	2998.25
960.638	3052.25
960.865	3010.25
961.092	3035.25
961.319	2920.25
961.546	3037.25
961.773	3020.25
962	2957.25
962.227	2997.25
962.454	3002.25
962.68	2965.25
962.907	3002.25
963.134	2930.25
963.36	2928.25
963.587	2980.25
963.813	2888.25
964.04	2907.25
964.266	2857.25
964.493	2952.25
964.719	2892.25
964.945	2883.25
965.171	2783.25
965.398	2869.25
965.624	2819.25
965.85	2829.25
966.076	2798.25
966.302	2804.25
966.528	2760.25
966.754	2790.25
966.98	2796.25
967.206	2802.25
967.431	2745.25
967.657	2801.25
967.883	2764.25
968.109	2800.25
968.334	2743.25
968.56	2713.25
968.785	2726.25
969.011	2695.25
969.236	2739.25
969.462	2663.25
969.687	2725.25
969.912	2703.25
970.138	2750.25
970.363	2648.25
970.588	2735.25
970.813	2657.25
971.038	2630.25
971.263	2689.25
971.488	2653.25
971.713	2678.25
971.938	2630.25
972.163	2557.25
972.388	2627.25
972.613	2591.25
972.838	2609.25
973.062	2611.25
973.287	2577.25
973.512	2494.25
973.736	2533.25
973.961	2540.25
974.185	2526.25
974.41	2541.25
974.634	2441.25
974.858	2487.25
975.083	2515.25
975.307	2500.25
975.531	2445.25
975.755	2376.25
975.98	2445.25
976.204	2402.25
976.428	2367.25
976.652	2363.25
976.876	2328.25
977.1	2398.25
977.324	2342.25
977.547	2388.25
977.771	2333.25
977.995	2330.25
978.219	2312.25
978.442	2393.25
978.666	2346.25
978.89	2327.25
979.113	2307.25
979.337	2338.25
979.56	2317.25
979.783	2374.25
980.007	2261.25
980.23	2303.25
980.453	2279.25
980.677	2315.25
980.9	2293.25
981.123	2234.25
981.346	2289.25
981.569	2227.25
981.792	2313.25
982.015	2269.25
982.238	2241.25
982.461	2201.25
982.684	2205.25
982.907	2166.25
983.129	2197.25
983.352	2193.25
983.575	2178.25
983.797	2207.25
984.02	2174.25
984.242	2130.25
984.465	2158.25
984.687	2193.25
984.91	2204.25
985.132	2155.25
985.354	2167.25
985.577	2146.25
985.799	2132.25
986.021	2020.25
986.243	2109.25
986.465	2107.25
986.687	2143.25
986.909	2154.25
987.131	2105.25
987.353	2074.25
987.575	2104.25
987.797	2086.25
988.019	2023.25
988.241	2063.25
988.462	1997.25
988.684	2119.25
988.906	2132.25
989.127	2169.25
989.349	2032.25
989.57	2025.25
989.792	2065.25
990.013	2101.25
990.234	2100.25
990.456	2129.25
990.677	2080.25
990.898	2046.25
991.119	2020.25
991.341	2034.25
991.562	1970.25
991.783	2051.25
992.004	1951.25
992.225	1952.25
992.446	1999.25
992.667	1894.25
992.887	1994.25
993.108	1854.25
993.329	1993.25
993.55	1929.25
993.77	1894.25
993.991	1870.25
994.212	1930.25
994.432	1910.25
994.653	1915.25
994.873	1919.25
995.093	1784.25
995.314	1853.25
995.534	1918.25
995.754	1925.25
995.975	1969.25
996.195	1836.25
996.415	1921.25
996.635	1872.25
996.855	1899.25
997.075	1864.25
997.295	1862.25
997.515	1862.25
997.735	1896.25
997.955	1884.25
998.174	1855.25
998.394	1836.25
998.614	1876.25
998.834	1863.25
999.053	1882.25
999.273	1855.25
999.492	1929.25
999.712	1835.25
999.931	1798.25
1000.151	1851.25
1000.37	1845.25
1000.589	1871.25
1000.809	1806.25
1001.028	1882.25
1001.247	1809.25
1001.466	1720.25
1001.685	1881.25
1001.904	1823.25
1002.123	1793.25
1002.342	1808.25
1002.561	1733.25
1002.78	1767.25
1002.999	1833.25
1003.218	1790.25
1003.436	1753.25
1003.655	1811.25
1003.874	1722.25
1004.092	1762.25
1004.311	1791.25
1004.53	1735.25
1004.748	1824.25
1004.966	1728.25
1005.185	1794.25
1005.403	1796.25
1005.622	1761.25
1005.84	1859.25
1006.058	1724.25
1006.276	1764.25
1006.494	2250.25
1006.712	1762.25
1006.931	1837.25
1007.149	1779.25
1007.367	1746.25
1007.584	1825.25
1007.802	1836.25
1008.02	1808.25
1008.238	1889.25
1008.456	1930.25
1008.673	1787.25
1008.891	1905.25
1009.109	1880.25
1009.326	1954.25
1009.544	2054.25
1009.761	2033.25
1009.979	2103.25
1010.196	2186.25
1010.413	2310.25
1010.631	2397.25
1010.848	2456.25
1011.065	2468.25
1011.282	2453.25
1011.5	2347.25
1011.717	2481.25
1011.934	2448.25
1012.151	2468.25
1012.368	2479.25
1012.585	2383.25
1012.801	2499.25
1013.018	2417.25
1013.235	2388.25
1013.452	2459.25
1013.669	2444.25
1013.885	2434.25
1014.102	2531.25
1014.318	2466.25
1014.535	2421.25
1014.751	2460.25
1014.968	2464.25
1015.184	2465.25
1015.401	2381.25
1015.617	2424.25
1015.833	2348.25
1016.049	2354.25
1016.266	2319.25
1016.482	2326.25
1016.698	2252.25
1016.914	2308.25
1017.13	2258.25
1017.346	2259.25
1017.562	2302.25
1017.778	2221.25
1017.993	2233.25
1018.209	2283.25
1018.425	2268.25
1018.641	2209.25
1018.856	2197.25
1019.072	2213.25
1019.288	2274.25
1019.503	2237.25
1019.719	2132.25
1019.934	2158.25
1020.149	2231.25
1020.365	2169.25
1020.58	2075.25
1020.795	2091.25
1021.011	2021.25
1021.226	1989.25
1021.441	1989.25
1021.656	1905.25
1021.871	1825.25
1022.086	1791.25
1022.301	1748.25
1022.516	1752.25
1022.731	1794.25
1022.946	1701.25
1023.16	1668.25
1023.375	1598.25
1023.59	1570.25
1023.804	1522.25
1024.019	1611.25
1024.234	1478.25
1024.448	1514.25
1024.663	1395.25
1024.877	1414.25
1025.092	1412.25
1025.306	1406.25
1025.52	1301.25
1025.734	1358.25
1025.949	1303.25
1026.163	1235.25
1026.377	1191.25
1026.591	1225.25
1026.805	1142.25
1027.019	1121.25
1027.233	1076.25
1027.447	1046.25
1027.661	1137.25
1027.875	1054.25
1028.088	1049.25
1028.302	1004.25
1028.516	955.25
1028.73	938.25
1028.943	935.25
1029.157	878.25
1029.37	814.25
1029.584	2.25
1029.797	-3.75
1030.011	-2.75
1030.224	-2.75
