Data from QEP037381__301__11-10-46-590.txt Node

Date: Wed Dec 21 11:10:46 EST 2022
User: dcclab
Spectrometer: QEP03738
Trigger mode: 4
Integration Time (sec): 1.000000E1
Scans to average: 1
Electric dark correction enabled: true
Nonlinearity correction enabled: false
Boxcar width: 0
XAxis mode: Wavelengths
Number of Pixels in Spectrum: 1044
>>>>>Begin Spectral Data<<<<<
784.041	13.12
784.3	-0.88
784.558	-3.88
784.817	-7.88
785.075	100794.12
785.334	17327.12
785.592	8101.12
785.851	5517.12
786.109	4188.12
786.368	3213.12
786.626	2649.12
786.884	2188.12
787.143	1794.12
787.401	1523.12
787.659	1330.12
787.917	1155.12
788.175	1076.12
788.433	939.12
788.691	837.12
788.949	771.12
789.207	730.12
789.465	629.12
789.723	622.12
789.98	573.12
790.238	596.12
790.496	550.12
790.753	527.12
791.011	575.12
791.268	504.12
791.526	491.12
791.783	503.12
792.041	501.12
792.298	405.12
792.556	466.12
792.813	436.12
793.07	415.12
793.327	420.12
793.584	505.12
793.841	411.12
794.099	426.12
794.356	494.12
794.613	395.12
794.869	438.12
795.126	386.12
795.383	363.12
795.64	387.12
795.897	351.12
796.153	392.12
796.41	392.12
796.667	379.12
796.923	374.12
797.18	380.12
797.436	394.12
797.693	360.12
797.949	409.12
798.206	430.12
798.462	348.12
798.718	407.12
798.974	361.12
799.231	407.12
799.487	399.12
799.743	396.12
799.999	431.12
800.255	413.12
800.511	395.12
800.767	419.12
801.023	394.12
801.279	408.12
801.534	416.12
801.79	435.12
802.046	407.12
802.302	474.12
802.557	472.12
802.813	529.12
803.068	529.12
803.324	669.12
803.579	762.12
803.835	954.12
804.09	1276.12
804.345	1562.12
804.601	1910.12
804.856	2312.12
805.111	2638.12
805.366	2895.12
805.621	3017.12
805.876	3152.12
806.131	3219.12
806.386	3283.12
806.641	3242.12
806.896	3330.12
807.151	3460.12
807.406	3473.12
807.661	3544.12
807.915	3615.12
808.17	3686.12
808.425	3712.12
808.679	3708.12
808.934	3836.12
809.188	3810.12
809.443	3875.12
809.697	3923.12
809.951	3921.12
810.206	3997.12
810.46	4042.12
810.714	4100.12
810.968	4200.12
811.223	4118.12
811.477	4223.12
811.731	4243.12
811.985	4192.12
812.239	4172.12
812.493	4251.12
812.747	4280.12
813	4243.12
813.254	4329.12
813.508	4386.12
813.762	4387.12
814.015	4391.12
814.269	4443.12
814.522	4520.12
814.776	4530.12
815.03	4620.12
815.283	4666.12
815.536	4758.12
815.79	4804.12
816.043	4900.12
816.296	4994.12
816.55	4985.12
816.803	5062.12
817.056	5213.12
817.309	5229.12
817.562	5245.12
817.815	5326.12
818.068	5341.12
818.321	5427.12
818.574	5489.12
818.827	5622.12
819.079	5666.12
819.332	5872.12
819.585	5863.12
819.838	5955.12
820.09	6001.12
820.343	6026.12
820.595	5967.12
820.848	6143.12
821.1	6108.12
821.353	6116.12
821.605	6068.12
821.857	6171.12
822.11	6022.12
822.362	6096.12
822.614	6059.12
822.866	6128.12
823.118	6087.12
823.37	6214.12
823.622	6175.12
823.874	6191.12
824.126	6293.12
824.378	6240.12
824.63	6250.12
824.882	6292.12
825.134	6239.12
825.385	6280.12
825.637	6162.12
825.888	6200.12
826.14	6197.12
826.392	6094.12
826.643	6075.12
826.895	6126.12
827.146	6047.12
827.397	6044.12
827.649	6040.12
827.9	6022.12
828.151	6023.12
828.402	6054.12
828.653	6118.12
828.905	6107.12
829.156	6116.12
829.407	6090.12
829.658	6120.12
829.909	6221.12
830.159	6170.12
830.41	6250.12
830.661	6106.12
830.912	6090.12
831.162	6098.12
831.413	6075.12
831.664	6084.12
831.914	6160.12
832.165	6148.12
832.415	6120.12
832.666	6131.12
832.916	6164.12
833.167	6120.12
833.417	6184.12
833.667	6113.12
833.917	6052.12
834.168	6087.12
834.418	6114.12
834.668	6076.12
834.918	6043.12
835.168	6020.12
835.418	5989.12
835.668	5964.12
835.918	6022.12
836.167	5987.12
836.417	5909.12
836.667	6027.12
836.917	6024.12
837.166	5934.12
837.416	5962.12
837.666	6021.12
837.915	5936.12
838.165	5917.12
838.414	5896.12
838.663	5848.12
838.913	5926.12
839.162	5874.12
839.411	5975.12
839.661	5903.12
839.91	5914.12
840.159	5889.12
840.408	5982.12
840.657	5932.12
840.906	5985.12
841.155	6028.12
841.404	5972.12
841.653	6011.12
841.902	5964.12
842.15	6036.12
842.399	6037.12
842.648	5994.12
842.897	6013.12
843.145	5892.12
843.394	5932.12
843.642	5831.12
843.891	5869.12
844.139	5810.12
844.388	5695.12
844.636	5722.12
844.884	5722.12
845.133	5735.12
845.381	5773.12
845.629	5798.12
845.877	5723.12
846.125	5736.12
846.373	5749.12
846.621	5752.12
846.869	5704.12
847.117	5668.12
847.365	5676.12
847.613	5686.12
847.861	6006.12
848.108	5767.12
848.356	5664.12
848.604	5678.12
848.851	5716.12
849.099	5686.12
849.346	5769.12
849.594	5732.12
849.841	5841.12
850.089	5806.12
850.336	5869.12
850.583	5873.12
850.831	5969.12
851.078	5930.12
851.325	5995.12
851.572	5989.12
851.819	5917.12
852.066	5679.12
852.313	5548.12
852.56	5479.12
852.807	5408.12
853.054	5415.12
853.301	5491.12
853.548	5496.12
853.794	5593.12
854.041	5598.12
854.288	5568.12
854.534	5760.12
854.781	5649.12
855.028	5584.12
855.274	5693.12
855.52	5618.12
855.767	5592.12
856.013	5641.12
856.26	5956.12
856.506	5556.12
856.752	5615.12
856.998	5591.12
857.244	5541.12
857.49	5625.12
857.736	5637.12
857.982	5634.12
858.228	5638.12
858.474	5540.12
858.72	5514.12
858.966	5514.12
859.212	5391.12
859.458	5330.12
859.703	5276.12
859.949	5239.12
860.195	5261.12
860.44	5212.12
860.686	5180.12
860.931	5226.12
861.177	5185.12
861.422	5136.12
861.667	5051.12
861.913	5075.12
862.158	5126.12
862.403	5158.12
862.648	5168.12
862.893	5221.12
863.138	5191.12
863.384	5155.12
863.629	5139.12
863.873	5149.12
864.118	5157.12
864.363	5113.12
864.608	5090.12
864.853	5135.12
865.098	5061.12
865.342	5082.12
865.587	5041.12
865.832	5119.12
866.076	5036.12
866.321	5072.12
866.565	5038.12
866.81	4970.12
867.054	4989.12
867.298	4963.12
867.543	4920.12
867.787	4990.12
868.031	4945.12
868.275	5000.12
868.519	4978.12
868.764	4986.12
869.008	5018.12
869.252	5006.12
869.496	5029.12
869.739	5004.12
869.983	5048.12
870.227	5114.12
870.471	5003.12
870.715	5121.12
870.958	5173.12
871.202	5085.12
871.446	5116.12
871.689	5115.12
871.933	5136.12
872.176	5130.12
872.42	5095.12
872.663	5111.12
872.906	5074.12
873.15	5119.12
873.393	5082.12
873.636	5159.12
873.879	5111.12
874.122	5106.12
874.366	4946.12
874.609	4936.12
874.852	4855.12
875.095	4868.12
875.337	4804.12
875.58	4756.12
875.823	4736.12
876.066	4803.12
876.309	4811.12
876.551	4685.12
876.794	4664.12
877.037	4731.12
877.279	4652.12
877.522	4662.12
877.764	4714.12
878.007	4625.12
878.249	4686.12
878.491	4573.12
878.734	4705.12
878.976	4647.12
879.218	4525.12
879.46	4581.12
879.702	4574.12
879.945	4505.12
880.187	4423.12
880.429	4386.12
880.671	4466.12
880.912	4406.12
881.154	4419.12
881.396	4326.12
881.638	4385.12
881.88	4360.12
882.121	4409.12
882.363	4375.12
882.605	4474.12
882.846	4375.12
883.088	4491.12
883.329	4423.12
883.571	4424.12
883.812	4557.12
884.053	4707.12
884.295	4863.12
884.536	5036.12
884.777	4960.12
885.018	4983.12
885.259	4947.12
885.5	4834.12
885.742	5054.12
885.982	4848.12
886.223	4706.12
886.464	4719.12
886.705	4595.12
886.946	4619.12
887.187	4426.12
887.428	4427.12
887.668	4306.12
887.909	4217.12
888.15	4160.12
888.39	4175.12
888.631	4148.12
888.871	4123.12
889.111	4065.12
889.352	4015.12
889.592	3954.12
889.833	3891.12
890.073	3901.12
890.313	3931.12
890.553	3809.12
890.793	3867.12
891.033	3813.12
891.273	3818.12
891.513	3866.12
891.753	3877.12
891.993	3803.12
892.233	3831.12
892.473	3935.12
892.713	3883.12
892.952	3855.12
893.192	3909.12
893.432	3889.12
893.671	3947.12
893.911	3898.12
894.15	3873.12
894.39	3793.12
894.629	3825.12
894.869	3810.12
895.108	3833.12
895.347	3784.12
895.587	3830.12
895.826	3776.12
896.065	3734.12
896.304	3794.12
896.543	3854.12
896.782	3727.12
897.021	3773.12
897.26	3801.12
897.499	3854.12
897.738	3902.12
897.977	3822.12
898.216	3785.12
898.454	3752.12
898.693	3716.12
898.932	3748.12
899.17	3715.12
899.409	3729.12
899.647	3696.12
899.886	3705.12
900.124	3784.12
900.363	3735.12
900.601	3774.12
900.839	3834.12
901.078	3806.12
901.316	3861.12
901.554	3886.12
901.792	3968.12
902.03	3909.12
902.268	3990.12
902.506	3988.12
902.744	3919.12
902.982	3912.12
903.22	3770.12
903.458	3727.12
903.695	3751.12
903.933	3599.12
904.171	3468.12
904.409	3440.12
904.646	3458.12
904.884	3347.12
905.121	3340.12
905.359	3316.12
905.596	3222.12
905.833	3190.12
906.071	3151.12
906.308	3236.12
906.545	3176.12
906.783	3114.12
907.02	3187.12
907.257	3118.12
907.494	3161.12
907.731	3139.12
907.968	3117.12
908.205	3056.12
908.442	3062.12
908.679	3078.12
908.915	3037.12
909.152	3019.12
909.389	2948.12
909.626	2955.12
909.862	2939.12
910.099	2923.12
910.335	2956.12
910.572	2885.12
910.808	2953.12
911.045	2878.12
911.281	2825.12
911.518	2912.12
911.754	2851.12
911.99	2840.12
912.226	2822.12
912.463	2778.12
912.699	2754.12
912.935	2743.12
913.171	2756.12
913.407	2696.12
913.643	2728.12
913.879	2706.12
914.114	2654.12
914.35	2664.12
914.586	2639.12
914.822	2596.12
915.057	2675.12
915.293	2509.12
915.529	2569.12
915.764	2640.12
916	2604.12
916.235	2614.12
916.471	2600.12
916.706	2532.12
916.941	2536.12
917.177	2570.12
917.412	2614.12
917.647	2600.12
917.882	2496.12
918.117	2559.12
918.352	2577.12
918.588	2607.12
918.823	2546.12
919.057	2549.12
919.292	2403.12
919.527	2561.12
919.762	2447.12
919.997	2478.12
920.232	2415.12
920.466	2439.12
920.701	2330.12
920.935	2337.12
921.17	2344.12
921.405	2342.12
921.639	2371.12
921.873	2335.12
922.108	2364.12
922.342	2371.12
922.576	2265.12
922.811	2290.12
923.045	2344.12
923.279	2371.12
923.513	2268.12
923.747	2330.12
923.981	2292.12
924.215	2288.12
924.449	2281.12
924.683	2211.12
924.917	2221.12
925.151	2227.12
925.385	2287.12
925.618	2257.12
925.852	2226.12
926.086	2169.12
926.319	2222.12
926.553	2216.12
926.786	2208.12
927.02	2193.12
927.253	2272.12
927.486	2290.12
927.72	2157.12
927.953	2207.12
928.186	2220.12
928.42	2222.12
928.653	2155.12
928.886	2169.12
929.119	2192.12
929.352	2161.12
929.585	2172.12
929.818	2131.12
930.051	2161.12
930.284	2149.12
930.516	2084.12
930.749	2102.12
930.982	2148.12
931.215	2131.12
931.447	2060.12
931.68	2097.12
931.912	2090.12
932.145	2068.12
932.377	2106.12
932.61	2214.12
932.842	2045.12
933.074	2097.12
933.307	2045.12
933.539	2146.12
933.771	2128.12
934.003	2077.12
934.236	2161.12
934.468	2147.12
934.7	2108.12
934.932	2105.12
935.164	2067.12
935.395	2040.12
935.627	2054.12
935.859	2100.12
936.091	2044.12
936.323	2122.12
936.554	2112.12
936.786	2073.12
937.017	1979.12
937.249	2085.12
937.481	1953.12
937.712	2078.12
937.943	2047.12
938.175	2004.12
938.406	2043.12
938.637	2093.12
938.869	2017.12
939.1	2091.12
939.331	2039.12
939.562	2045.12
939.793	2026.12
940.024	2070.12
940.255	2073.12
940.486	2003.12
940.717	2024.12
940.948	2034.12
941.179	1949.12
941.409	1967.12
941.64	1966.12
941.871	2000.12
942.102	1985.12
942.332	1992.12
942.563	2036.12
942.793	1998.12
943.024	1938.12
943.254	2003.12
943.484	2032.12
943.715	2029.12
943.945	2000.12
944.175	1950.12
944.405	1931.12
944.636	1948.12
944.866	1988.12
945.096	2003.12
945.326	1948.12
945.556	2000.12
945.786	2000.12
946.016	1963.12
946.245	1916.12
946.475	1934.12
946.705	1940.12
946.935	1975.12
947.164	1932.12
947.394	1871.12
947.624	1899.12
947.853	1971.12
948.083	1909.12
948.312	1865.12
948.542	1843.12
948.771	1825.12
949	1839.12
949.23	1827.12
949.459	1857.12
949.688	1942.12
949.917	1857.12
950.146	1847.12
950.375	1932.12
950.604	1816.12
950.833	1976.12
951.062	1946.12
951.291	1855.12
951.52	1843.12
951.749	1843.12
951.978	1847.12
952.206	1846.12
952.435	1841.12
952.664	1849.12
952.892	1876.12
953.121	1836.12
953.349	1887.12
953.578	1852.12
953.806	1836.12
954.035	1786.12
954.263	1801.12
954.491	1762.12
954.719	1814.12
954.948	1767.12
955.176	1777.12
955.404	1742.12
955.632	1810.12
955.86	1795.12
956.088	1758.12
956.316	1801.12
956.544	1811.12
956.772	1755.12
956.999	1740.12
957.227	1803.12
957.455	1732.12
957.683	1744.12
957.91	1690.12
958.138	1711.12
958.365	1699.12
958.593	1712.12
958.82	1672.12
959.048	1726.12
959.275	1709.12
959.502	1702.12
959.73	1693.12
959.957	1688.12
960.184	1733.12
960.411	1705.12
960.638	1755.12
960.865	1712.12
961.092	1722.12
961.319	1596.12
961.546	1719.12
961.773	1753.12
962	1695.12
962.227	1739.12
962.454	1667.12
962.68	1675.12
962.907	1660.12
963.134	1676.12
963.36	1689.12
963.587	1676.12
963.813	1616.12
964.04	1694.12
964.266	1642.12
964.493	1689.12
964.719	1682.12
964.945	1670.12
965.171	1578.12
965.398	1618.12
965.624	1661.12
965.85	1568.12
966.076	1570.12
966.302	1649.12
966.528	1590.12
966.754	1610.12
966.98	1588.12
967.206	1593.12
967.431	1534.12
967.657	1616.12
967.883	1602.12
968.109	1615.12
968.334	1558.12
968.56	1529.12
968.785	1568.12
969.011	1526.12
969.236	1597.12
969.462	1514.12
969.687	1542.12
969.912	1602.12
970.138	1598.12
970.363	1514.12
970.588	1540.12
970.813	1530.12
971.038	1529.12
971.263	1541.12
971.488	1541.12
971.713	1578.12
971.938	1585.12
972.163	1486.12
972.388	1512.12
972.613	1484.12
972.838	1530.12
973.062	1499.12
973.287	1515.12
973.512	1433.12
973.736	1480.12
973.961	1465.12
974.185	1476.12
974.41	1503.12
974.634	1366.12
974.858	1421.12
975.083	1457.12
975.307	1479.12
975.531	1435.12
975.755	1399.12
975.98	1400.12
976.204	1356.12
976.428	1351.12
976.652	1362.12
976.876	1360.12
977.1	1393.12
977.324	1338.12
977.547	1391.12
977.771	1396.12
977.995	1401.12
978.219	1326.12
978.442	1471.12
978.666	1394.12
978.89	1364.12
979.113	1367.12
979.337	1394.12
979.56	1345.12
979.783	1435.12
980.007	1314.12
980.23	1377.12
980.453	1334.12
980.677	1363.12
980.9	1352.12
981.123	1264.12
981.346	1377.12
981.569	1305.12
981.792	1374.12
982.015	1340.12
982.238	1287.12
982.461	1331.12
982.684	1289.12
982.907	1279.12
983.129	1283.12
983.352	1331.12
983.575	1316.12
983.797	1316.12
984.02	1270.12
984.242	1282.12
984.465	1304.12
984.687	1329.12
984.91	1321.12
985.132	1319.12
985.354	1356.12
985.577	1299.12
985.799	1281.12
986.021	1240.12
986.243	1237.12
986.465	1274.12
986.687	1356.12
986.909	1348.12
987.131	1271.12
987.353	1260.12
987.575	1320.12
987.797	1240.12
988.019	1210.12
988.241	1261.12
988.462	1223.12
988.684	1272.12
988.906	1303.12
989.127	1323.12
989.349	1231.12
989.57	1279.12
989.792	1290.12
990.013	1315.12
990.234	1308.12
990.456	1353.12
990.677	1329.12
990.898	1256.12
991.119	1251.12
991.341	1295.12
991.562	1225.12
991.783	1280.12
992.004	1195.12
992.225	1188.12
992.446	1242.12
992.667	1184.12
992.887	1270.12
993.108	1175.12
993.329	1278.12
993.55	1248.12
993.77	1170.12
993.991	1197.12
994.212	1208.12
994.432	1241.12
994.653	1231.12
994.873	1211.12
995.093	1113.12
995.314	1180.12
995.534	1244.12
995.754	1240.12
995.975	1271.12
996.195	1186.12
996.415	1231.12
996.635	1204.12
996.855	1230.12
997.075	1198.12
997.295	1199.12
997.515	1191.12
997.735	1229.12
997.955	1230.12
998.174	1188.12
998.394	1181.12
998.614	1227.12
998.834	1183.12
999.053	1242.12
999.273	1214.12
999.492	1286.12
999.712	1218.12
999.931	1186.12
1000.151	1208.12
1000.37	1197.12
1000.589	1266.12
1000.809	1198.12
1001.028	1296.12
1001.247	1263.12
1001.466	1134.12
1001.685	1280.12
1001.904	1227.12
1002.123	1199.12
1002.342	1232.12
1002.561	1192.12
1002.78	1191.12
1002.999	1262.12
1003.218	1238.12
1003.436	1208.12
1003.655	1256.12
1003.874	1197.12
1004.092	1244.12
1004.311	1256.12
1004.53	1214.12
1004.748	1293.12
1004.966	1215.12
1005.185	1271.12
1005.403	1260.12
1005.622	1242.12
1005.84	1295.12
1006.058	1213.12
1006.276	1222.12
1006.494	1723.12
1006.712	1257.12
1006.931	1306.12
1007.149	1211.12
1007.367	1225.12
1007.584	1272.12
1007.802	1310.12
1008.02	1286.12
1008.238	1353.12
1008.456	1353.12
1008.673	1252.12
1008.891	1367.12
1009.109	1309.12
1009.326	1375.12
1009.544	1495.12
1009.761	1364.12
1009.979	1463.12
1010.196	1508.12
1010.413	1625.12
1010.631	1662.12
1010.848	1719.12
1011.065	1729.12
1011.282	1701.12
1011.5	1630.12
1011.717	1751.12
1011.934	1698.12
1012.151	1742.12
1012.368	1711.12
1012.585	1668.12
1012.801	1706.12
1013.018	1669.12
1013.235	1662.12
1013.452	1685.12
1013.669	1692.12
1013.885	1670.12
1014.102	1731.12
1014.318	1706.12
1014.535	1669.12
1014.751	1699.12
1014.968	1670.12
1015.184	1739.12
1015.401	1664.12
1015.617	1661.12
1015.833	1642.12
1016.049	1626.12
1016.266	1647.12
1016.482	1629.12
1016.698	1566.12
1016.914	1632.12
1017.13	1548.12
1017.346	1531.12
1017.562	1646.12
1017.778	1531.12
1017.993	1542.12
1018.209	1591.12
1018.425	1574.12
1018.641	1531.12
1018.856	1522.12
1019.072	1543.12
1019.288	1579.12
1019.503	1558.12
1019.719	1473.12
1019.934	1500.12
1020.149	1548.12
1020.365	1504.12
1020.58	1435.12
1020.795	1494.12
1021.011	1419.12
1021.226	1398.12
1021.441	1403.12
1021.656	1325.12
1021.871	1251.12
1022.086	1252.12
1022.301	1256.12
1022.516	1232.12
1022.731	1296.12
1022.946	1178.12
1023.16	1178.12
1023.375	1145.12
1023.59	1119.12
1023.804	1097.12
1024.019	1186.12
1024.234	1052.12
1024.448	1080.12
1024.663	1005.12
1024.877	1035.12
1025.092	1036.12
1025.306	1060.12
1025.52	947.12
1025.734	1052.12
1025.949	960.12
1026.163	910.12
1026.377	841.12
1026.591	927.12
1026.805	823.12
1027.019	847.12
1027.233	790.12
1027.447	753.12
1027.661	844.12
1027.875	775.12
1028.088	802.12
1028.302	736.12
1028.516	715.12
1028.73	713.12
1028.943	697.12
1029.157	658.12
1029.37	612.12
1029.584	3.12
1029.797	-0.88
1030.011	-1.88
1030.224	-0.88
