Data from QEP037381__293__11-09-26-589.txt Node

Date: Wed Dec 21 11:09:26 EST 2022
User: dcclab
Spectrometer: QEP03738
Trigger mode: 4
Integration Time (sec): 1.000000E1
Scans to average: 1
Electric dark correction enabled: true
Nonlinearity correction enabled: false
Boxcar width: 0
XAxis mode: Wavelengths
Number of Pixels in Spectrum: 1044
>>>>>Begin Spectral Data<<<<<
784.041	10.5
784.3	2.5
784.558	-4.5
784.817	-1.5
785.075	98393.5
785.334	16751.5
785.592	7732.5
785.851	5329.5
786.109	4013.5
786.368	3088.5
786.626	2542.5
786.884	2085.5
787.143	1764.5
787.401	1441.5
787.659	1307.5
787.917	1109.5
788.175	1024.5
788.433	912.5
788.691	811.5
788.949	740.5
789.207	728.5
789.465	611.5
789.723	594.5
789.98	551.5
790.238	581.5
790.496	536.5
790.753	522.5
791.011	555.5
791.268	503.5
791.526	480.5
791.783	493.5
792.041	477.5
792.298	409.5
792.556	461.5
792.813	438.5
793.07	424.5
793.327	420.5
793.584	485.5
793.841	422.5
794.099	420.5
794.356	471.5
794.613	393.5
794.869	437.5
795.126	392.5
795.383	367.5
795.64	386.5
795.897	354.5
796.153	404.5
796.41	391.5
796.667	366.5
796.923	364.5
797.18	366.5
797.436	399.5
797.693	356.5
797.949	405.5
798.206	431.5
798.462	345.5
798.718	387.5
798.974	361.5
799.231	412.5
799.487	394.5
799.743	385.5
799.999	410.5
800.255	403.5
800.511	366.5
800.767	415.5
801.023	385.5
801.279	395.5
801.534	418.5
801.79	434.5
802.046	409.5
802.302	470.5
802.557	471.5
802.813	527.5
803.068	516.5
803.324	626.5
803.579	740.5
803.835	910.5
804.09	1199.5
804.345	1446.5
804.601	1790.5
804.856	2152.5
805.111	2432.5
805.366	2608.5
805.621	2746.5
805.876	2896.5
806.131	2924.5
806.386	2928.5
806.641	2930.5
806.896	3042.5
807.151	3172.5
807.406	3142.5
807.661	3237.5
807.915	3263.5
808.17	3341.5
808.425	3365.5
808.679	3393.5
808.934	3491.5
809.188	3473.5
809.443	3528.5
809.697	3631.5
809.951	3513.5
810.206	3616.5
810.46	3714.5
810.714	3694.5
810.968	3752.5
811.223	3694.5
811.477	3783.5
811.731	3847.5
811.985	3742.5
812.239	3827.5
812.493	3860.5
812.747	3911.5
813	3841.5
813.254	3880.5
813.508	3956.5
813.762	3926.5
814.015	3931.5
814.269	3965.5
814.522	4100.5
814.776	4127.5
815.03	4128.5
815.283	4185.5
815.536	4308.5
815.79	4363.5
816.043	4380.5
816.296	4434.5
816.55	4495.5
816.803	4559.5
817.056	4711.5
817.309	4712.5
817.562	4747.5
817.815	4844.5
818.068	4815.5
818.321	4847.5
818.574	4945.5
818.827	5015.5
819.079	5082.5
819.332	5271.5
819.585	5266.5
819.838	5388.5
820.09	5340.5
820.343	5430.5
820.595	5348.5
820.848	5436.5
821.1	5451.5
821.353	5491.5
821.605	5434.5
821.857	5521.5
822.11	5438.5
822.362	5426.5
822.614	5404.5
822.866	5446.5
823.118	5417.5
823.37	5537.5
823.622	5543.5
823.874	5545.5
824.126	5591.5
824.378	5545.5
824.63	5618.5
824.882	5639.5
825.134	5615.5
825.385	5567.5
825.637	5598.5
825.888	5495.5
826.14	5515.5
826.392	5504.5
826.643	5404.5
826.895	5466.5
827.146	5445.5
827.397	5358.5
827.649	5415.5
827.9	5344.5
828.151	5347.5
828.402	5370.5
828.653	5448.5
828.905	5436.5
829.156	5482.5
829.407	5425.5
829.658	5491.5
829.909	5536.5
830.159	5544.5
830.41	5515.5
830.661	5535.5
830.912	5439.5
831.162	5450.5
831.413	5458.5
831.664	5447.5
831.914	5458.5
832.165	5489.5
832.415	5452.5
832.666	5452.5
832.916	5457.5
833.167	5446.5
833.417	5500.5
833.667	5396.5
833.917	5412.5
834.168	5450.5
834.418	5492.5
834.668	5441.5
834.918	5410.5
835.168	5408.5
835.418	5330.5
835.668	5363.5
835.918	5354.5
836.167	5316.5
836.417	5314.5
836.667	5406.5
836.917	5307.5
837.166	5332.5
837.416	5359.5
837.666	5355.5
837.915	5309.5
838.165	5305.5
838.414	5202.5
838.663	5193.5
838.913	5281.5
839.162	5240.5
839.411	5337.5
839.661	5208.5
839.91	5294.5
840.159	5288.5
840.408	5296.5
840.657	5335.5
840.906	5313.5
841.155	5365.5
841.404	5342.5
841.653	5302.5
841.902	5342.5
842.15	5328.5
842.399	5329.5
842.648	5331.5
842.897	5317.5
843.145	5291.5
843.394	5242.5
843.642	5153.5
843.891	5244.5
844.139	5166.5
844.388	5105.5
844.636	5033.5
844.884	5111.5
845.133	5098.5
845.381	5093.5
845.629	5096.5
845.877	5088.5
846.125	5110.5
846.373	5073.5
846.621	5057.5
846.869	5066.5
847.117	5029.5
847.365	5035.5
847.613	4996.5
847.861	5049.5
848.108	5061.5
848.356	5017.5
848.604	5021.5
848.851	5009.5
849.099	5002.5
849.346	5041.5
849.594	5121.5
849.841	5174.5
850.089	5142.5
850.336	5229.5
850.583	5216.5
850.831	5282.5
851.078	5310.5
851.325	5286.5
851.572	5298.5
851.819	5288.5
852.066	5009.5
852.313	4943.5
852.56	4836.5
852.807	4780.5
853.054	4788.5
853.301	4859.5
853.548	4879.5
853.794	4966.5
854.041	4995.5
854.288	5004.5
854.534	5170.5
854.781	5045.5
855.028	4980.5
855.274	5049.5
855.52	4958.5
855.767	4883.5
856.013	5017.5
856.26	5271.5
856.506	4880.5
856.752	4956.5
856.998	4862.5
857.244	4916.5
857.49	4934.5
857.736	4999.5
857.982	4979.5
858.228	4991.5
858.474	4839.5
858.72	4882.5
858.966	4843.5
859.212	4801.5
859.458	4682.5
859.703	4665.5
859.949	4610.5
860.195	4615.5
860.44	4611.5
860.686	4588.5
860.931	4675.5
861.177	4526.5
861.422	4563.5
861.667	4479.5
861.913	4500.5
862.158	4487.5
862.403	4564.5
862.648	4549.5
862.893	4606.5
863.138	4578.5
863.384	4514.5
863.629	4519.5
863.873	4551.5
864.118	4542.5
864.363	4481.5
864.608	4534.5
864.853	4530.5
865.098	4428.5
865.342	4453.5
865.587	4423.5
865.832	4476.5
866.076	4464.5
866.321	4400.5
866.565	4431.5
866.81	4364.5
867.054	4415.5
867.298	4454.5
867.543	4385.5
867.787	4439.5
868.031	4384.5
868.275	4394.5
868.519	4439.5
868.764	4420.5
869.008	4392.5
869.252	4440.5
869.496	4394.5
869.739	4427.5
869.983	4454.5
870.227	4446.5
870.471	4440.5
870.715	4519.5
870.958	4525.5
871.202	4452.5
871.446	4553.5
871.689	4528.5
871.933	4530.5
872.176	4563.5
872.42	4501.5
872.663	4481.5
872.906	4537.5
873.15	4506.5
873.393	4446.5
873.636	4535.5
873.879	4493.5
874.122	4479.5
874.366	4376.5
874.609	4377.5
874.852	4243.5
875.095	4281.5
875.337	4238.5
875.58	4135.5
875.823	4166.5
876.066	4206.5
876.309	4263.5
876.551	4139.5
876.794	4144.5
877.037	4178.5
877.279	4057.5
877.522	4124.5
877.764	4149.5
878.007	4043.5
878.249	4055.5
878.491	4053.5
878.734	4153.5
878.976	4117.5
879.218	3967.5
879.46	4036.5
879.702	4051.5
879.945	3974.5
880.187	3903.5
880.429	3895.5
880.671	3898.5
880.912	3884.5
881.154	3863.5
881.396	3808.5
881.638	3888.5
881.88	3846.5
882.121	3827.5
882.363	3838.5
882.605	3917.5
882.846	3905.5
883.088	3911.5
883.329	3851.5
883.571	3903.5
883.812	3964.5
884.053	4111.5
884.295	4271.5
884.536	4402.5
884.777	4352.5
885.018	4349.5
885.259	4339.5
885.5	4187.5
885.742	4416.5
885.982	4235.5
886.223	4121.5
886.464	4090.5
886.705	3990.5
886.946	3999.5
887.187	3832.5
887.428	3838.5
887.668	3730.5
887.909	3690.5
888.15	3626.5
888.39	3639.5
888.631	3662.5
888.871	3585.5
889.111	3557.5
889.352	3514.5
889.592	3505.5
889.833	3474.5
890.073	3474.5
890.313	3489.5
890.553	3346.5
890.793	3380.5
891.033	3395.5
891.273	3384.5
891.513	3391.5
891.753	3382.5
891.993	3385.5
892.233	3383.5
892.473	3464.5
892.713	3407.5
892.952	3365.5
893.192	3422.5
893.432	3419.5
893.671	3465.5
893.911	3395.5
894.15	3423.5
894.39	3316.5
894.629	3309.5
894.869	3387.5
895.108	3320.5
895.347	3264.5
895.587	3299.5
895.826	3292.5
896.065	3276.5
896.304	3358.5
896.543	3365.5
896.782	3256.5
897.021	3338.5
897.26	3315.5
897.499	3382.5
897.738	3376.5
897.977	3315.5
898.216	3311.5
898.454	3245.5
898.693	3274.5
898.932	3335.5
899.17	3251.5
899.409	3257.5
899.647	3226.5
899.886	3243.5
900.124	3263.5
900.363	3253.5
900.601	3343.5
900.839	3307.5
901.078	3364.5
901.316	3398.5
901.554	3398.5
901.792	3438.5
902.03	3420.5
902.268	3430.5
902.506	3511.5
902.744	3396.5
902.982	3427.5
903.22	3311.5
903.458	3257.5
903.695	3208.5
903.933	3172.5
904.171	3036.5
904.409	3001.5
904.646	3017.5
904.884	2912.5
905.121	2966.5
905.359	2878.5
905.596	2825.5
905.833	2764.5
906.071	2805.5
906.308	2819.5
906.545	2781.5
906.783	2705.5
907.02	2742.5
907.257	2717.5
907.494	2711.5
907.731	2697.5
907.968	2729.5
908.205	2673.5
908.442	2665.5
908.679	2667.5
908.915	2646.5
909.152	2640.5
909.389	2558.5
909.626	2565.5
909.862	2562.5
910.099	2558.5
910.335	2596.5
910.572	2509.5
910.808	2535.5
911.045	2540.5
911.281	2493.5
911.518	2551.5
911.754	2486.5
911.99	2494.5
912.226	2468.5
912.463	2443.5
912.699	2426.5
912.935	2422.5
913.171	2410.5
913.407	2336.5
913.643	2397.5
913.879	2367.5
914.114	2352.5
914.35	2324.5
914.586	2283.5
914.822	2264.5
915.057	2369.5
915.293	2234.5
915.529	2211.5
915.764	2280.5
916	2299.5
916.235	2305.5
916.471	2281.5
916.706	2185.5
916.941	2240.5
917.177	2200.5
917.412	2282.5
917.647	2281.5
917.882	2207.5
918.117	2263.5
918.352	2271.5
918.588	2301.5
918.823	2212.5
919.057	2165.5
919.292	2093.5
919.527	2185.5
919.762	2110.5
919.997	2181.5
920.232	2085.5
920.466	2111.5
920.701	2001.5
920.935	2097.5
921.17	2073.5
921.405	2022.5
921.639	2076.5
921.873	2050.5
922.108	2060.5
922.342	2072.5
922.576	2021.5
922.811	2025.5
923.045	2054.5
923.279	2080.5
923.513	1943.5
923.747	2059.5
923.981	2023.5
924.215	1987.5
924.449	1980.5
924.683	1948.5
924.917	1948.5
925.151	1945.5
925.385	1993.5
925.618	1965.5
925.852	1973.5
926.086	1852.5
926.319	1944.5
926.553	1971.5
926.786	1949.5
927.02	1939.5
927.253	1992.5
927.486	1975.5
927.72	1900.5
927.953	1957.5
928.186	1893.5
928.42	1940.5
928.653	1897.5
928.886	1903.5
929.119	1949.5
929.352	1924.5
929.585	1921.5
929.818	1878.5
930.051	1872.5
930.284	1897.5
930.516	1809.5
930.749	1821.5
930.982	1882.5
931.215	1865.5
931.447	1809.5
931.68	1822.5
931.912	1793.5
932.145	1818.5
932.377	1814.5
932.61	1961.5
932.842	1774.5
933.074	1846.5
933.307	1809.5
933.539	1885.5
933.771	1863.5
934.003	1823.5
934.236	1877.5
934.468	1897.5
934.7	1796.5
934.932	1891.5
935.164	1810.5
935.395	1778.5
935.627	1817.5
935.859	1833.5
936.091	1769.5
936.323	1843.5
936.554	1860.5
936.786	1821.5
937.017	1756.5
937.249	1815.5
937.481	1719.5
937.712	1810.5
937.943	1818.5
938.175	1792.5
938.406	1764.5
938.637	1847.5
938.869	1763.5
939.1	1802.5
939.331	1776.5
939.562	1816.5
939.793	1776.5
940.024	1806.5
940.255	1805.5
940.486	1785.5
940.717	1789.5
940.948	1755.5
941.179	1699.5
941.409	1735.5
941.64	1731.5
941.871	1760.5
942.102	1733.5
942.332	1707.5
942.563	1774.5
942.793	1762.5
943.024	1690.5
943.254	1718.5
943.484	1781.5
943.715	1783.5
943.945	1753.5
944.175	1696.5
944.405	1690.5
944.636	1696.5
944.866	1710.5
945.096	1754.5
945.326	1702.5
945.556	1737.5
945.786	1789.5
946.016	1719.5
946.245	1673.5
946.475	1671.5
946.705	1676.5
946.935	1697.5
947.164	1696.5
947.394	1656.5
947.624	1649.5
947.853	1681.5
948.083	1679.5
948.312	1662.5
948.542	1589.5
948.771	1606.5
949	1601.5
949.23	1600.5
949.459	1634.5
949.688	1674.5
949.917	1635.5
950.146	1624.5
950.375	1704.5
950.604	1633.5
950.833	1676.5
951.062	1675.5
951.291	1617.5
951.52	1618.5
951.749	1643.5
951.978	1606.5
952.206	1607.5
952.435	1600.5
952.664	1636.5
952.892	1631.5
953.121	1628.5
953.349	1635.5
953.578	1625.5
953.806	1590.5
954.035	1543.5
954.263	1582.5
954.491	1539.5
954.719	1606.5
954.948	1559.5
955.176	1568.5
955.404	1468.5
955.632	1582.5
955.86	1578.5
956.088	1572.5
956.316	1588.5
956.544	1573.5
956.772	1528.5
956.999	1511.5
957.227	1602.5
957.455	1521.5
957.683	1538.5
957.91	1495.5
958.138	1499.5
958.365	1479.5
958.593	1475.5
958.82	1423.5
959.048	1507.5
959.275	1527.5
959.502	1487.5
959.73	1476.5
959.957	1514.5
960.184	1558.5
960.411	1486.5
960.638	1547.5
960.865	1483.5
961.092	1517.5
961.319	1425.5
961.546	1497.5
961.773	1524.5
962	1466.5
962.227	1509.5
962.454	1443.5
962.68	1482.5
962.907	1485.5
963.134	1460.5
963.36	1481.5
963.587	1509.5
963.813	1435.5
964.04	1478.5
964.266	1427.5
964.493	1503.5
964.719	1469.5
964.945	1500.5
965.171	1382.5
965.398	1442.5
965.624	1463.5
965.85	1382.5
966.076	1401.5
966.302	1435.5
966.528	1390.5
966.754	1420.5
966.98	1444.5
967.206	1439.5
967.431	1364.5
967.657	1449.5
967.883	1446.5
968.109	1433.5
968.334	1368.5
968.56	1356.5
968.785	1423.5
969.011	1352.5
969.236	1415.5
969.462	1333.5
969.687	1356.5
969.912	1422.5
970.138	1435.5
970.363	1347.5
970.588	1376.5
970.813	1350.5
971.038	1348.5
971.263	1373.5
971.488	1376.5
971.713	1417.5
971.938	1407.5
972.163	1293.5
972.388	1324.5
972.613	1336.5
972.838	1372.5
973.062	1332.5
973.287	1346.5
973.512	1274.5
973.736	1311.5
973.961	1321.5
974.185	1291.5
974.41	1318.5
974.634	1241.5
974.858	1243.5
975.083	1303.5
975.307	1317.5
975.531	1275.5
975.755	1206.5
975.98	1216.5
976.204	1200.5
976.428	1213.5
976.652	1226.5
976.876	1193.5
977.1	1224.5
977.324	1192.5
977.547	1259.5
977.771	1253.5
977.995	1217.5
978.219	1180.5
978.442	1288.5
978.666	1239.5
978.89	1213.5
979.113	1229.5
979.337	1234.5
979.56	1196.5
979.783	1268.5
980.007	1173.5
980.23	1194.5
980.453	1147.5
980.677	1198.5
980.9	1198.5
981.123	1145.5
981.346	1230.5
981.569	1181.5
981.792	1220.5
982.015	1171.5
982.238	1172.5
982.461	1185.5
982.684	1149.5
982.907	1152.5
983.129	1138.5
983.352	1175.5
983.575	1154.5
983.797	1177.5
984.02	1140.5
984.242	1155.5
984.465	1145.5
984.687	1169.5
984.91	1209.5
985.132	1186.5
985.354	1179.5
985.577	1171.5
985.799	1173.5
986.021	1081.5
986.243	1099.5
986.465	1149.5
986.687	1184.5
986.909	1241.5
987.131	1155.5
987.353	1117.5
987.575	1154.5
987.797	1108.5
988.019	1056.5
988.241	1125.5
988.462	1089.5
988.684	1164.5
988.906	1170.5
989.127	1201.5
989.349	1102.5
989.57	1116.5
989.792	1167.5
990.013	1187.5
990.234	1180.5
990.456	1223.5
990.677	1197.5
990.898	1138.5
991.119	1128.5
991.341	1174.5
991.562	1118.5
991.783	1148.5
992.004	1094.5
992.225	1063.5
992.446	1140.5
992.667	1065.5
992.887	1131.5
993.108	1045.5
993.329	1184.5
993.55	1127.5
993.77	1082.5
993.991	1069.5
994.212	1121.5
994.432	1090.5
994.653	1144.5
994.873	1103.5
995.093	1010.5
995.314	1048.5
995.534	1110.5
995.754	1160.5
995.975	1163.5
996.195	1061.5
996.415	1122.5
996.635	1103.5
996.855	1114.5
997.075	1083.5
997.295	1084.5
997.515	1055.5
997.735	1147.5
997.955	1131.5
998.174	1095.5
998.394	1061.5
998.614	1117.5
998.834	1089.5
999.053	1131.5
999.273	1133.5
999.492	1190.5
999.712	1110.5
999.931	1084.5
1000.151	1116.5
1000.37	1105.5
1000.589	1161.5
1000.809	1101.5
1001.028	1222.5
1001.247	1130.5
1001.466	1037.5
1001.685	1195.5
1001.904	1126.5
1002.123	1117.5
1002.342	1125.5
1002.561	1098.5
1002.78	1124.5
1002.999	1182.5
1003.218	1136.5
1003.436	1097.5
1003.655	1142.5
1003.874	1106.5
1004.092	1116.5
1004.311	1175.5
1004.53	1116.5
1004.748	1183.5
1004.966	1119.5
1005.185	1177.5
1005.403	1200.5
1005.622	1153.5
1005.84	1223.5
1006.058	1135.5
1006.276	1141.5
1006.494	1666.5
1006.712	1160.5
1006.931	1223.5
1007.149	1125.5
1007.367	1145.5
1007.584	1174.5
1007.802	1209.5
1008.02	1170.5
1008.238	1266.5
1008.456	1253.5
1008.673	1153.5
1008.891	1248.5
1009.109	1202.5
1009.326	1263.5
1009.544	1346.5
1009.761	1258.5
1009.979	1348.5
1010.196	1363.5
1010.413	1469.5
1010.631	1511.5
1010.848	1554.5
1011.065	1577.5
1011.282	1514.5
1011.5	1476.5
1011.717	1590.5
1011.934	1537.5
1012.151	1563.5
1012.368	1533.5
1012.585	1484.5
1012.801	1547.5
1013.018	1519.5
1013.235	1501.5
1013.452	1519.5
1013.669	1533.5
1013.885	1512.5
1014.102	1552.5
1014.318	1517.5
1014.535	1482.5
1014.751	1528.5
1014.968	1525.5
1015.184	1553.5
1015.401	1455.5
1015.617	1508.5
1015.833	1471.5
1016.049	1440.5
1016.266	1446.5
1016.482	1454.5
1016.698	1406.5
1016.914	1445.5
1017.13	1397.5
1017.346	1398.5
1017.562	1447.5
1017.778	1381.5
1017.993	1371.5
1018.209	1427.5
1018.425	1411.5
1018.641	1365.5
1018.856	1354.5
1019.072	1399.5
1019.288	1426.5
1019.503	1398.5
1019.719	1303.5
1019.934	1322.5
1020.149	1420.5
1020.365	1338.5
1020.58	1286.5
1020.795	1336.5
1021.011	1271.5
1021.226	1252.5
1021.441	1257.5
1021.656	1186.5
1021.871	1146.5
1022.086	1126.5
1022.301	1113.5
1022.516	1124.5
1022.731	1175.5
1022.946	1086.5
1023.16	1060.5
1023.375	1038.5
1023.59	1004.5
1023.804	968.5
1024.019	1069.5
1024.234	951.5
1024.448	985.5
1024.663	907.5
1024.877	919.5
1025.092	953.5
1025.306	954.5
1025.52	850.5
1025.734	952.5
1025.949	866.5
1026.163	836.5
1026.377	789.5
1026.591	838.5
1026.805	788.5
1027.019	754.5
1027.233	726.5
1027.447	672.5
1027.661	789.5
1027.875	734.5
1028.088	727.5
1028.302	650.5
1028.516	662.5
1028.73	666.5
1028.943	654.5
1029.157	600.5
1029.37	551.5
1029.584	-3.5
1029.797	-0.5
1030.011	-3.5
1030.224	0.5
