Data from QEP037381__254__11-02-56-588.txt Node

Date: Wed Dec 21 11:02:56 EST 2022
User: dcclab
Spectrometer: QEP03738
Trigger mode: 4
Integration Time (sec): 1.000000E1
Scans to average: 1
Electric dark correction enabled: true
Nonlinearity correction enabled: false
Boxcar width: 0
XAxis mode: Wavelengths
Number of Pixels in Spectrum: 1044
>>>>>Begin Spectral Data<<<<<
784.041	12.88
784.3	0.88
784.558	-2.12
784.817	-6.12
785.075	100565.88
785.334	17154.88
785.592	7910.88
785.851	5451.88
786.109	4099.88
786.368	3218.88
786.626	2581.88
786.884	2155.88
787.143	1790.88
787.401	1462.88
787.659	1317.88
787.917	1135.88
788.175	1052.88
788.433	904.88
788.691	810.88
788.949	762.88
789.207	740.88
789.465	623.88
789.723	598.88
789.98	557.88
790.238	599.88
790.496	559.88
790.753	528.88
791.011	558.88
791.268	493.88
791.526	478.88
791.783	495.88
792.041	490.88
792.298	410.88
792.556	463.88
792.813	466.88
793.07	431.88
793.327	416.88
793.584	491.88
793.841	415.88
794.099	429.88
794.356	484.88
794.613	391.88
794.869	419.88
795.126	384.88
795.383	384.88
795.64	381.88
795.897	350.88
796.153	401.88
796.41	389.88
796.667	374.88
796.923	374.88
797.18	385.88
797.436	385.88
797.693	354.88
797.949	418.88
798.206	438.88
798.462	347.88
798.718	391.88
798.974	360.88
799.231	405.88
799.487	388.88
799.743	394.88
799.999	421.88
800.255	393.88
800.511	378.88
800.767	409.88
801.023	382.88
801.279	402.88
801.534	399.88
801.79	429.88
802.046	403.88
802.302	452.88
802.557	458.88
802.813	506.88
803.068	491.88
803.324	608.88
803.579	698.88
803.835	854.88
804.09	1129.88
804.345	1347.88
804.601	1644.88
804.856	1972.88
805.111	2235.88
805.366	2400.88
805.621	2566.88
805.876	2620.88
806.131	2688.88
806.386	2720.88
806.641	2771.88
806.896	2804.88
807.151	2918.88
807.406	2834.88
807.661	2994.88
807.915	2997.88
808.17	3039.88
808.425	3099.88
808.679	3057.88
808.934	3171.88
809.188	3159.88
809.443	3210.88
809.697	3308.88
809.951	3234.88
810.206	3299.88
810.46	3365.88
810.714	3342.88
810.968	3411.88
811.223	3370.88
811.477	3440.88
811.731	3444.88
811.985	3405.88
812.239	3422.88
812.493	3476.88
812.747	3508.88
813	3436.88
813.254	3503.88
813.508	3614.88
813.762	3567.88
814.015	3504.88
814.269	3634.88
814.522	3661.88
814.776	3625.88
815.03	3720.88
815.283	3757.88
815.536	3853.88
815.79	3882.88
816.043	3904.88
816.296	3958.88
816.55	4064.88
816.803	4056.88
817.056	4177.88
817.309	4103.88
817.562	4179.88
817.815	4282.88
818.068	4240.88
818.321	4302.88
818.574	4317.88
818.827	4439.88
819.079	4472.88
819.332	4640.88
819.585	4659.88
819.838	4747.88
820.09	4668.88
820.343	4745.88
820.595	4692.88
820.848	4780.88
821.1	4778.88
821.353	4761.88
821.605	4765.88
821.857	4810.88
822.11	4733.88
822.362	4744.88
822.614	4689.88
822.866	4772.88
823.118	4755.88
823.37	4856.88
823.622	4860.88
823.874	4880.88
824.126	4958.88
824.378	4867.88
824.63	4957.88
824.882	4892.88
825.134	4832.88
825.385	4892.88
825.637	4875.88
825.888	4773.88
826.14	4805.88
826.392	4731.88
826.643	4721.88
826.895	4748.88
827.146	4667.88
827.397	4645.88
827.649	4706.88
827.9	4670.88
828.151	4653.88
828.402	4619.88
828.653	4702.88
828.905	4710.88
829.156	4756.88
829.407	4680.88
829.658	4732.88
829.909	4790.88
830.159	4753.88
830.41	4736.88
830.661	4656.88
830.912	4684.88
831.162	4696.88
831.413	4672.88
831.664	4695.88
831.914	4681.88
832.165	4720.88
832.415	4727.88
832.666	4655.88
832.916	4679.88
833.167	4691.88
833.417	4688.88
833.667	4729.88
833.917	4641.88
834.168	4681.88
834.418	4685.88
834.668	4615.88
834.918	4628.88
835.168	4644.88
835.418	4572.88
835.668	4547.88
835.918	4619.88
836.167	4583.88
836.417	4535.88
836.667	4606.88
836.917	4515.88
837.166	4529.88
837.416	4569.88
837.666	4556.88
837.915	4493.88
838.165	4541.88
838.414	4460.88
838.663	4414.88
838.913	4504.88
839.162	4483.88
839.411	4499.88
839.661	4462.88
839.91	4454.88
840.159	4485.88
840.408	4524.88
840.657	4501.88
840.906	4532.88
841.155	4558.88
841.404	4487.88
841.653	4514.88
841.902	4491.88
842.15	4479.88
842.399	4512.88
842.648	4496.88
842.897	4462.88
843.145	4435.88
843.394	4376.88
843.642	4353.88
843.891	4361.88
844.139	4344.88
844.388	4315.88
844.636	4265.88
844.884	4296.88
845.133	4259.88
845.381	4255.88
845.629	4265.88
845.877	4279.88
846.125	4253.88
846.373	4323.88
846.621	4207.88
846.869	4273.88
847.117	4264.88
847.365	4223.88
847.613	4234.88
847.861	4178.88
848.108	4200.88
848.356	4224.88
848.604	4174.88
848.851	4231.88
849.099	4218.88
849.346	4232.88
849.594	4298.88
849.841	4324.88
850.089	4313.88
850.336	4366.88
850.583	4422.88
850.831	4469.88
851.078	4449.88
851.325	4456.88
851.572	4524.88
851.819	4386.88
852.066	4233.88
852.313	4105.88
852.56	4025.88
852.807	4000.88
853.054	4029.88
853.301	4044.88
853.548	4085.88
853.794	4193.88
854.041	4189.88
854.288	4131.88
854.534	4249.88
854.781	4185.88
855.028	4152.88
855.274	4194.88
855.52	4144.88
855.767	4091.88
856.013	4214.88
856.26	4403.88
856.506	4042.88
856.752	4120.88
856.998	4053.88
857.244	4079.88
857.49	4142.88
857.736	4140.88
857.982	4162.88
858.228	4148.88
858.474	4028.88
858.72	4038.88
858.966	4006.88
859.212	3935.88
859.458	3922.88
859.703	3892.88
859.949	3814.88
860.195	3883.88
860.44	3824.88
860.686	3800.88
860.931	3857.88
861.177	3733.88
861.422	3793.88
861.667	3700.88
861.913	3707.88
862.158	3728.88
862.403	3802.88
862.648	3764.88
862.893	3820.88
863.138	3783.88
863.384	3774.88
863.629	3751.88
863.873	3757.88
864.118	3767.88
864.363	3683.88
864.608	3725.88
864.853	3746.88
865.098	3686.88
865.342	3746.88
865.587	3666.88
865.832	3718.88
866.076	3685.88
866.321	3632.88
866.565	3654.88
866.81	3577.88
867.054	3655.88
867.298	3636.88
867.543	3617.88
867.787	3637.88
868.031	3605.88
868.275	3630.88
868.519	3567.88
868.764	3599.88
869.008	3647.88
869.252	3668.88
869.496	3601.88
869.739	3613.88
869.983	3665.88
870.227	3662.88
870.471	3642.88
870.715	3693.88
870.958	3693.88
871.202	3686.88
871.446	3689.88
871.689	3674.88
871.933	3664.88
872.176	3699.88
872.42	3644.88
872.663	3679.88
872.906	3733.88
873.15	3659.88
873.393	3617.88
873.636	3681.88
873.879	3669.88
874.122	3698.88
874.366	3556.88
874.609	3559.88
874.852	3527.88
875.095	3478.88
875.337	3463.88
875.58	3377.88
875.823	3429.88
876.066	3445.88
876.309	3515.88
876.551	3389.88
876.794	3319.88
877.037	3399.88
877.279	3298.88
877.522	3360.88
877.764	3415.88
878.007	3309.88
878.249	3336.88
878.491	3296.88
878.734	3389.88
878.976	3381.88
879.218	3251.88
879.46	3287.88
879.702	3266.88
879.945	3242.88
880.187	3169.88
880.429	3200.88
880.671	3177.88
880.912	3182.88
881.154	3153.88
881.396	3077.88
881.638	3171.88
881.88	3169.88
882.121	3111.88
882.363	3147.88
882.605	3153.88
882.846	3162.88
883.088	3147.88
883.329	3169.88
883.571	3180.88
883.812	3245.88
884.053	3354.88
884.295	3464.88
884.536	3619.88
884.777	3519.88
885.018	3505.88
885.259	3571.88
885.5	3388.88
885.742	3692.88
885.982	3438.88
886.223	3303.88
886.464	3335.88
886.705	3247.88
886.946	3250.88
887.187	3113.88
887.428	3149.88
887.668	3013.88
887.909	2995.88
888.15	2943.88
888.39	2981.88
888.631	3000.88
888.871	2940.88
889.111	2907.88
889.352	2859.88
889.592	2846.88
889.833	2840.88
890.073	2817.88
890.313	2842.88
890.553	2738.88
890.793	2776.88
891.033	2720.88
891.273	2754.88
891.513	2727.88
891.753	2773.88
891.993	2710.88
892.233	2778.88
892.473	2835.88
892.713	2765.88
892.952	2734.88
893.192	2772.88
893.432	2759.88
893.671	2835.88
893.911	2752.88
894.15	2769.88
894.39	2667.88
894.629	2707.88
894.869	2757.88
895.108	2735.88
895.347	2672.88
895.587	2710.88
895.826	2702.88
896.065	2664.88
896.304	2693.88
896.543	2760.88
896.782	2640.88
897.021	2755.88
897.26	2719.88
897.499	2780.88
897.738	2796.88
897.977	2742.88
898.216	2698.88
898.454	2686.88
898.693	2656.88
898.932	2725.88
899.17	2667.88
899.409	2700.88
899.647	2681.88
899.886	2626.88
900.124	2699.88
900.363	2651.88
900.601	2721.88
900.839	2702.88
901.078	2762.88
901.316	2771.88
901.554	2757.88
901.792	2797.88
902.03	2805.88
902.268	2818.88
902.506	2841.88
902.744	2749.88
902.982	2773.88
903.22	2666.88
903.458	2649.88
903.695	2591.88
903.933	2579.88
904.171	2460.88
904.409	2449.88
904.646	2456.88
904.884	2353.88
905.121	2414.88
905.359	2370.88
905.596	2312.88
905.833	2240.88
906.071	2272.88
906.308	2281.88
906.545	2258.88
906.783	2188.88
907.02	2201.88
907.257	2198.88
907.494	2211.88
907.731	2222.88
907.968	2202.88
908.205	2164.88
908.442	2174.88
908.679	2147.88
908.915	2178.88
909.152	2142.88
909.389	2060.88
909.626	2090.88
909.862	2040.88
910.099	2073.88
910.335	2087.88
910.572	2014.88
910.808	2052.88
911.045	2029.88
911.281	1982.88
911.518	2094.88
911.754	2011.88
911.99	2012.88
912.226	2010.88
912.463	1939.88
912.699	1954.88
912.935	1933.88
913.171	1928.88
913.407	1897.88
913.643	1953.88
913.879	1915.88
914.114	1889.88
914.35	1828.88
914.586	1871.88
914.822	1823.88
915.057	1942.88
915.293	1800.88
915.529	1788.88
915.764	1888.88
916	1860.88
916.235	1822.88
916.471	1882.88
916.706	1761.88
916.941	1796.88
917.177	1771.88
917.412	1854.88
917.647	1832.88
917.882	1752.88
918.117	1831.88
918.352	1823.88
918.588	1857.88
918.823	1772.88
919.057	1761.88
919.292	1696.88
919.527	1782.88
919.762	1693.88
919.997	1778.88
920.232	1724.88
920.466	1751.88
920.701	1644.88
920.935	1689.88
921.17	1657.88
921.405	1648.88
921.639	1674.88
921.873	1654.88
922.108	1659.88
922.342	1671.88
922.576	1604.88
922.811	1603.88
923.045	1691.88
923.279	1688.88
923.513	1573.88
923.747	1644.88
923.981	1676.88
924.215	1624.88
924.449	1579.88
924.683	1575.88
924.917	1570.88
925.151	1563.88
925.385	1599.88
925.618	1594.88
925.852	1597.88
926.086	1517.88
926.319	1556.88
926.553	1547.88
926.786	1581.88
927.02	1583.88
927.253	1620.88
927.486	1604.88
927.72	1535.88
927.953	1616.88
928.186	1553.88
928.42	1577.88
928.653	1510.88
928.886	1518.88
929.119	1577.88
929.352	1539.88
929.585	1535.88
929.818	1496.88
930.051	1550.88
930.284	1527.88
930.516	1436.88
930.749	1458.88
930.982	1516.88
931.215	1526.88
931.447	1484.88
931.68	1485.88
931.912	1471.88
932.145	1448.88
932.377	1511.88
932.61	1600.88
932.842	1436.88
933.074	1495.88
933.307	1464.88
933.539	1557.88
933.771	1579.88
934.003	1537.88
934.236	1638.88
934.468	1684.88
934.7	1608.88
934.932	1638.88
935.164	1580.88
935.395	1546.88
935.627	1529.88
935.859	1512.88
936.091	1433.88
936.323	1454.88
936.554	1526.88
936.786	1454.88
937.017	1428.88
937.249	1460.88
937.481	1416.88
937.712	1498.88
937.943	1450.88
938.175	1422.88
938.406	1458.88
938.637	1547.88
938.869	1424.88
939.1	1508.88
939.331	1512.88
939.562	1585.88
939.793	1630.88
940.024	1910.88
940.255	2325.88
940.486	2481.88
940.717	2401.88
940.948	2145.88
941.179	1874.88
941.409	1745.88
941.64	1577.88
941.871	1536.88
942.102	1436.88
942.332	1433.88
942.563	1476.88
942.793	1466.88
943.024	1409.88
943.254	1407.88
943.484	1450.88
943.715	1491.88
943.945	1430.88
944.175	1354.88
944.405	1335.88
944.636	1372.88
944.866	1399.88
945.096	1426.88
945.326	1355.88
945.556	1391.88
945.786	1400.88
946.016	1376.88
946.245	1340.88
946.475	1361.88
946.705	1346.88
946.935	1383.88
947.164	1388.88
947.394	1316.88
947.624	1370.88
947.853	1387.88
948.083	1365.88
948.312	1348.88
948.542	1295.88
948.771	1261.88
949	1271.88
949.23	1306.88
949.459	1320.88
949.688	1340.88
949.917	1328.88
950.146	1318.88
950.375	1370.88
950.604	1300.88
950.833	1371.88
951.062	1374.88
951.291	1312.88
951.52	1286.88
951.749	1329.88
951.978	1261.88
952.206	1271.88
952.435	1275.88
952.664	1325.88
952.892	1300.88
953.121	1278.88
953.349	1358.88
953.578	1304.88
953.806	1294.88
954.035	1257.88
954.263	1287.88
954.491	1258.88
954.719	1273.88
954.948	1229.88
955.176	1255.88
955.404	1212.88
955.632	1268.88
955.86	1268.88
956.088	1281.88
956.316	1305.88
956.544	1299.88
956.772	1227.88
956.999	1236.88
957.227	1315.88
957.455	1206.88
957.683	1246.88
957.91	1212.88
958.138	1196.88
958.365	1209.88
958.593	1206.88
958.82	1141.88
959.048	1246.88
959.275	1198.88
959.502	1198.88
959.73	1183.88
959.957	1232.88
960.184	1257.88
960.411	1221.88
960.638	1256.88
960.865	1207.88
961.092	1231.88
961.319	1164.88
961.546	1239.88
961.773	1242.88
962	1179.88
962.227	1218.88
962.454	1214.88
962.68	1166.88
962.907	1225.88
963.134	1179.88
963.36	1184.88
963.587	1213.88
963.813	1169.88
964.04	1216.88
964.266	1154.88
964.493	1221.88
964.719	1224.88
964.945	1223.88
965.171	1116.88
965.398	1163.88
965.624	1190.88
965.85	1117.88
966.076	1148.88
966.302	1205.88
966.528	1157.88
966.754	1185.88
966.98	1162.88
967.206	1138.88
967.431	1091.88
967.657	1195.88
967.883	1172.88
968.109	1187.88
968.334	1119.88
968.56	1093.88
968.785	1131.88
969.011	1103.88
969.236	1143.88
969.462	1097.88
969.687	1115.88
969.912	1146.88
970.138	1159.88
970.363	1108.88
970.588	1129.88
970.813	1109.88
971.038	1106.88
971.263	1125.88
971.488	1138.88
971.713	1179.88
971.938	1149.88
972.163	1062.88
972.388	1095.88
972.613	1084.88
972.838	1092.88
973.062	1072.88
973.287	1076.88
973.512	1016.88
973.736	1080.88
973.961	1050.88
974.185	1074.88
974.41	1076.88
974.634	998.88
974.858	1001.88
975.083	1065.88
975.307	1100.88
975.531	1033.88
975.755	1000.88
975.98	999.88
976.204	967.88
976.428	973.88
976.652	965.88
976.876	979.88
977.1	1001.88
977.324	982.88
977.547	1037.88
977.771	1026.88
977.995	997.88
978.219	938.88
978.442	1057.88
978.666	1028.88
978.89	998.88
979.113	990.88
979.337	1000.88
979.56	971.88
979.783	1058.88
980.007	933.88
980.23	1000.88
980.453	951.88
980.677	1010.88
980.9	982.88
981.123	911.88
981.346	996.88
981.569	979.88
981.792	1014.88
982.015	979.88
982.238	933.88
982.461	956.88
982.684	939.88
982.907	963.88
983.129	920.88
983.352	1005.88
983.575	977.88
983.797	983.88
984.02	945.88
984.242	919.88
984.465	940.88
984.687	970.88
984.91	1000.88
985.132	966.88
985.354	997.88
985.577	978.88
985.799	967.88
986.021	895.88
986.243	915.88
986.465	946.88
986.687	977.88
986.909	1037.88
987.131	967.88
987.353	954.88
987.575	977.88
987.797	957.88
988.019	901.88
988.241	948.88
988.462	906.88
988.684	973.88
988.906	975.88
989.127	1016.88
989.349	916.88
989.57	953.88
989.792	981.88
990.013	996.88
990.234	998.88
990.456	1037.88
990.677	1003.88
990.898	967.88
991.119	972.88
991.341	1006.88
991.562	935.88
991.783	979.88
992.004	919.88
992.225	905.88
992.446	965.88
992.667	885.88
992.887	966.88
993.108	846.88
993.329	1003.88
993.55	943.88
993.77	897.88
993.991	905.88
994.212	951.88
994.432	937.88
994.653	955.88
994.873	956.88
995.093	858.88
995.314	886.88
995.534	969.88
995.754	975.88
995.975	978.88
996.195	906.88
996.415	947.88
996.635	950.88
996.855	946.88
997.075	927.88
997.295	917.88
997.515	912.88
997.735	959.88
997.955	936.88
998.174	912.88
998.394	896.88
998.614	963.88
998.834	900.88
999.053	984.88
999.273	961.88
999.492	981.88
999.712	960.88
999.931	917.88
1000.151	968.88
1000.37	974.88
1000.589	993.88
1000.809	934.88
1001.028	1059.88
1001.247	988.88
1001.466	905.88
1001.685	1035.88
1001.904	976.88
1002.123	970.88
1002.342	968.88
1002.561	914.88
1002.78	967.88
1002.999	1038.88
1003.218	999.88
1003.436	964.88
1003.655	1019.88
1003.874	962.88
1004.092	969.88
1004.311	1031.88
1004.53	999.88
1004.748	1061.88
1004.966	1000.88
1005.185	1037.88
1005.403	1026.88
1005.622	1009.88
1005.84	1106.88
1006.058	984.88
1006.276	1002.88
1006.494	1503.88
1006.712	1019.88
1006.931	1085.88
1007.149	982.88
1007.367	997.88
1007.584	1028.88
1007.802	1062.88
1008.02	1026.88
1008.238	1146.88
1008.456	1082.88
1008.673	979.88
1008.891	1077.88
1009.109	1044.88
1009.326	1090.88
1009.544	1193.88
1009.761	1080.88
1009.979	1163.88
1010.196	1156.88
1010.413	1262.88
1010.631	1309.88
1010.848	1343.88
1011.065	1338.88
1011.282	1281.88
1011.5	1232.88
1011.717	1325.88
1011.934	1281.88
1012.151	1320.88
1012.368	1276.88
1012.585	1231.88
1012.801	1309.88
1013.018	1245.88
1013.235	1239.88
1013.452	1249.88
1013.669	1259.88
1013.885	1243.88
1014.102	1282.88
1014.318	1267.88
1014.535	1216.88
1014.751	1270.88
1014.968	1248.88
1015.184	1296.88
1015.401	1211.88
1015.617	1238.88
1015.833	1207.88
1016.049	1218.88
1016.266	1204.88
1016.482	1208.88
1016.698	1139.88
1016.914	1197.88
1017.13	1141.88
1017.346	1161.88
1017.562	1228.88
1017.778	1152.88
1017.993	1131.88
1018.209	1183.88
1018.425	1166.88
1018.641	1118.88
1018.856	1104.88
1019.072	1177.88
1019.288	1182.88
1019.503	1146.88
1019.719	1053.88
1019.934	1096.88
1020.149	1190.88
1020.365	1102.88
1020.58	1078.88
1020.795	1113.88
1021.011	1059.88
1021.226	1045.88
1021.441	1073.88
1021.656	1011.88
1021.871	956.88
1022.086	965.88
1022.301	925.88
1022.516	954.88
1022.731	1017.88
1022.946	932.88
1023.16	880.88
1023.375	876.88
1023.59	872.88
1023.804	823.88
1024.019	961.88
1024.234	824.88
1024.448	869.88
1024.663	788.88
1024.877	820.88
1025.092	832.88
1025.306	854.88
1025.52	752.88
1025.734	842.88
1025.949	747.88
1026.163	761.88
1026.377	696.88
1026.591	755.88
1026.805	663.88
1027.019	689.88
1027.233	651.88
1027.447	601.88
1027.661	698.88
1027.875	656.88
1028.088	655.88
1028.302	608.88
1028.516	598.88
1028.73	606.88
1028.943	600.88
1029.157	531.88
1029.37	512.88
1029.584	-1.12
1029.797	-0.12
1030.011	-2.12
1030.224	-2.12
