Data from QEP037381__298__11-10-16-590.txt Node

Date: Wed Dec 21 11:10:16 EST 2022
User: dcclab
Spectrometer: QEP03738
Trigger mode: 4
Integration Time (sec): 1.000000E1
Scans to average: 1
Electric dark correction enabled: true
Nonlinearity correction enabled: false
Boxcar width: 0
XAxis mode: Wavelengths
Number of Pixels in Spectrum: 1044
>>>>>Begin Spectral Data<<<<<
784.041	14.88
784.3	-4.12
784.558	-4.12
784.817	-3.12
785.075	96586.88
785.334	17153.88
785.592	8259.88
785.851	5710.88
786.109	4339.88
786.368	3322.88
786.626	2629.88
786.884	2197.88
787.143	1843.88
787.401	1526.88
787.659	1397.88
787.917	1197.88
788.175	1081.88
788.433	936.88
788.691	852.88
788.949	768.88
789.207	732.88
789.465	641.88
789.723	602.88
789.98	559.88
790.238	580.88
790.496	546.88
790.753	510.88
791.011	559.88
791.268	488.88
791.526	481.88
791.783	498.88
792.041	493.88
792.298	385.88
792.556	461.88
792.813	452.88
793.07	430.88
793.327	416.88
793.584	480.88
793.841	403.88
794.099	431.88
794.356	474.88
794.613	382.88
794.869	422.88
795.126	395.88
795.383	377.88
795.64	392.88
795.897	341.88
796.153	404.88
796.41	384.88
796.667	367.88
796.923	376.88
797.18	378.88
797.436	391.88
797.693	353.88
797.949	405.88
798.206	435.88
798.462	347.88
798.718	405.88
798.974	380.88
799.231	409.88
799.487	404.88
799.743	400.88
799.999	408.88
800.255	400.88
800.511	386.88
800.767	421.88
801.023	388.88
801.279	418.88
801.534	423.88
801.79	420.88
802.046	424.88
802.302	470.88
802.557	473.88
802.813	539.88
803.068	530.88
803.324	659.88
803.579	762.88
803.835	982.88
804.09	1286.88
804.345	1596.88
804.601	1985.88
804.856	2446.88
805.111	2803.88
805.366	2989.88
805.621	3190.88
805.876	3340.88
806.131	3413.88
806.386	3421.88
806.641	3457.88
806.896	3465.88
807.151	3651.88
807.406	3640.88
807.661	3694.88
807.915	3749.88
808.17	3870.88
808.425	3885.88
808.679	3908.88
808.934	3981.88
809.188	3979.88
809.443	4040.88
809.697	4167.88
809.951	4125.88
810.206	4181.88
810.46	4209.88
810.714	4265.88
810.968	4358.88
811.223	4322.88
811.477	4422.88
811.731	4457.88
811.985	4370.88
812.239	4361.88
812.493	4431.88
812.747	4517.88
813	4447.88
813.254	4497.88
813.508	4611.88
813.762	4571.88
814.015	4574.88
814.269	4617.88
814.522	4681.88
814.776	4770.88
815.03	4761.88
815.283	4853.88
815.536	4906.88
815.79	5002.88
816.043	5030.88
816.296	5160.88
816.55	5180.88
816.803	5212.88
817.056	5370.88
817.309	5392.88
817.562	5450.88
817.815	5535.88
818.068	5526.88
818.321	5619.88
818.574	5690.88
818.827	5801.88
819.079	5863.88
819.332	6027.88
819.585	6099.88
819.838	6217.88
820.09	6157.88
820.343	6279.88
820.595	6216.88
820.848	6322.88
821.1	6347.88
821.353	6309.88
821.605	6331.88
821.857	6399.88
822.11	6229.88
822.362	6238.88
822.614	6273.88
822.866	6309.88
823.118	6246.88
823.37	6414.88
823.622	6396.88
823.874	6440.88
824.126	6493.88
824.378	6403.88
824.63	6495.88
824.882	6484.88
825.134	6431.88
825.385	6464.88
825.637	6455.88
825.888	6373.88
826.14	6454.88
826.392	6385.88
826.643	6263.88
826.895	6335.88
827.146	6213.88
827.397	6230.88
827.649	6317.88
827.9	6180.88
828.151	6236.88
828.402	6260.88
828.653	6331.88
828.905	6304.88
829.156	6320.88
829.407	6310.88
829.658	6279.88
829.909	6366.88
830.159	6374.88
830.41	6460.88
830.661	6369.88
830.912	6332.88
831.162	6308.88
831.413	6267.88
831.664	6381.88
831.914	6278.88
832.165	6330.88
832.415	6353.88
832.666	6338.88
832.916	6367.88
833.167	6336.88
833.417	6396.88
833.667	6257.88
833.917	6320.88
834.168	6342.88
834.418	6365.88
834.668	6299.88
834.918	6239.88
835.168	6236.88
835.418	6234.88
835.668	6251.88
835.918	6202.88
836.167	6193.88
836.417	6132.88
836.667	6211.88
836.917	6243.88
837.166	6158.88
837.416	6197.88
837.666	6189.88
837.915	6121.88
838.165	6125.88
838.414	6075.88
838.663	6044.88
838.913	6077.88
839.162	6077.88
839.411	6178.88
839.661	6071.88
839.91	6130.88
840.159	6083.88
840.408	6139.88
840.657	6172.88
840.906	6196.88
841.155	6212.88
841.404	6135.88
841.653	6132.88
841.902	6131.88
842.15	6159.88
842.399	6189.88
842.648	6182.88
842.897	6147.88
843.145	6103.88
843.394	6076.88
843.642	6047.88
843.891	6018.88
844.139	5966.88
844.388	5917.88
844.636	5877.88
844.884	5932.88
845.133	5921.88
845.381	5922.88
845.629	5949.88
845.877	5853.88
846.125	5930.88
846.373	5956.88
846.621	5834.88
846.869	5867.88
847.117	5898.88
847.365	5790.88
847.613	5865.88
847.861	5864.88
848.108	5809.88
848.356	5841.88
848.604	5779.88
848.851	5887.88
849.099	5853.88
849.346	5841.88
849.594	5909.88
849.841	6006.88
850.089	5963.88
850.336	6052.88
850.583	6083.88
850.831	6058.88
851.078	6019.88
851.325	6061.88
851.572	6142.88
851.819	6064.88
852.066	5829.88
852.313	5717.88
852.56	5605.88
852.807	5612.88
853.054	5586.88
853.301	5630.88
853.548	5631.88
853.794	5772.88
854.041	5734.88
854.288	5694.88
854.534	5885.88
854.781	5819.88
855.028	5778.88
855.274	5794.88
855.52	5735.88
855.767	5734.88
856.013	5797.88
856.26	6088.88
856.506	5700.88
856.752	5691.88
856.998	5688.88
857.244	5653.88
857.49	5756.88
857.736	5768.88
857.982	5791.88
858.228	5777.88
858.474	5637.88
858.72	5647.88
858.966	5607.88
859.212	5580.88
859.458	5489.88
859.703	5420.88
859.949	5384.88
860.195	5363.88
860.44	5369.88
860.686	5285.88
860.931	5412.88
861.177	5283.88
861.422	5320.88
861.667	5240.88
861.913	5252.88
862.158	5268.88
862.403	5324.88
862.648	5283.88
862.893	5443.88
863.138	5335.88
863.384	5294.88
863.629	5345.88
863.873	5295.88
864.118	5270.88
864.363	5194.88
864.608	5316.88
864.853	5276.88
865.098	5218.88
865.342	5167.88
865.587	5160.88
865.832	5200.88
866.076	5179.88
866.321	5133.88
866.565	5195.88
866.81	5150.88
867.054	5166.88
867.298	5111.88
867.543	5068.88
867.787	5151.88
868.031	5134.88
868.275	5104.88
868.519	5142.88
868.764	5085.88
869.008	5113.88
869.252	5187.88
869.496	5130.88
869.739	5075.88
869.983	5164.88
870.227	5186.88
870.471	5121.88
870.715	5197.88
870.958	5230.88
871.202	5229.88
871.446	5222.88
871.689	5236.88
871.933	5266.88
872.176	5230.88
872.42	5202.88
872.663	5207.88
872.906	5278.88
873.15	5186.88
873.393	5182.88
873.636	5258.88
873.879	5168.88
874.122	5159.88
874.366	5041.88
874.609	4993.88
874.852	4970.88
875.095	4972.88
875.337	4931.88
875.58	4870.88
875.823	4894.88
876.066	4904.88
876.309	4934.88
876.551	4808.88
876.794	4785.88
877.037	4844.88
877.279	4771.88
877.522	4765.88
877.764	4838.88
878.007	4774.88
878.249	4755.88
878.491	4715.88
878.734	4830.88
878.976	4719.88
879.218	4680.88
879.46	4736.88
879.702	4682.88
879.945	4640.88
880.187	4596.88
880.429	4638.88
880.671	4585.88
880.912	4530.88
881.154	4539.88
881.396	4461.88
881.638	4535.88
881.88	4535.88
882.121	4479.88
882.363	4523.88
882.605	4574.88
882.846	4536.88
883.088	4546.88
883.329	4518.88
883.571	4530.88
883.812	4634.88
884.053	4774.88
884.295	4895.88
884.536	5045.88
884.777	4990.88
885.018	4987.88
885.259	4932.88
885.5	4883.88
885.742	5129.88
885.982	4917.88
886.223	4794.88
886.464	4782.88
886.705	4659.88
886.946	4646.88
887.187	4494.88
887.428	4518.88
887.668	4381.88
887.909	4288.88
888.15	4236.88
888.39	4286.88
888.631	4331.88
888.871	4223.88
889.111	4187.88
889.352	4136.88
889.592	4083.88
889.833	4094.88
890.073	4048.88
890.313	4110.88
890.553	3959.88
890.793	3941.88
891.033	3926.88
891.273	3954.88
891.513	3959.88
891.753	4011.88
891.993	3953.88
892.233	3983.88
892.473	4052.88
892.713	4030.88
892.952	3944.88
893.192	4017.88
893.432	3997.88
893.671	4084.88
893.911	4042.88
894.15	4000.88
894.39	3873.88
894.629	3984.88
894.869	3958.88
895.108	3896.88
895.347	3857.88
895.587	3913.88
895.826	3858.88
896.065	3849.88
896.304	3896.88
896.543	3932.88
896.782	3799.88
897.021	3886.88
897.26	3873.88
897.499	3960.88
897.738	3945.88
897.977	3918.88
898.216	3843.88
898.454	3846.88
898.693	3773.88
898.932	3808.88
899.17	3758.88
899.409	3776.88
899.647	3809.88
899.886	3746.88
900.124	3809.88
900.363	3812.88
900.601	3803.88
900.839	3878.88
901.078	3888.88
901.316	3884.88
901.554	3924.88
901.792	3955.88
902.03	3968.88
902.268	3974.88
902.506	4025.88
902.744	3958.88
902.982	3944.88
903.22	3799.88
903.458	3753.88
903.695	3718.88
903.933	3648.88
904.171	3548.88
904.409	3490.88
904.646	3473.88
904.884	3409.88
905.121	3457.88
905.359	3356.88
905.596	3329.88
905.833	3267.88
906.071	3259.88
906.308	3298.88
906.545	3284.88
906.783	3189.88
907.02	3211.88
907.257	3189.88
907.494	3174.88
907.731	3240.88
907.968	3259.88
908.205	3121.88
908.442	3144.88
908.679	3178.88
908.915	3125.88
909.152	3118.88
909.389	3023.88
909.626	3033.88
909.862	2971.88
910.099	3001.88
910.335	3057.88
910.572	2958.88
910.808	2974.88
911.045	2973.88
911.281	2936.88
911.518	3049.88
911.754	2922.88
911.99	2964.88
912.226	2911.88
912.463	2885.88
912.699	2850.88
912.935	2887.88
913.171	2810.88
913.407	2756.88
913.643	2841.88
913.879	2790.88
914.114	2766.88
914.35	2749.88
914.586	2742.88
914.822	2696.88
915.057	2758.88
915.293	2648.88
915.529	2635.88
915.764	2681.88
916	2686.88
916.235	2682.88
916.471	2711.88
916.706	2621.88
916.941	2629.88
917.177	2642.88
917.412	2682.88
917.647	2679.88
917.882	2602.88
918.117	2686.88
918.352	2654.88
918.588	2691.88
918.823	2601.88
919.057	2603.88
919.292	2488.88
919.527	2611.88
919.762	2545.88
919.997	2557.88
920.232	2502.88
920.466	2552.88
920.701	2392.88
920.935	2443.88
921.17	2412.88
921.405	2409.88
921.639	2421.88
921.873	2411.88
922.108	2431.88
922.342	2413.88
922.576	2386.88
922.811	2381.88
923.045	2447.88
923.279	2416.88
923.513	2313.88
923.747	2433.88
923.981	2406.88
924.215	2325.88
924.449	2314.88
924.683	2268.88
924.917	2307.88
925.151	2319.88
925.385	2341.88
925.618	2288.88
925.852	2297.88
926.086	2230.88
926.319	2292.88
926.553	2265.88
926.786	2303.88
927.02	2266.88
927.253	2316.88
927.486	2349.88
927.72	2264.88
927.953	2301.88
928.186	2287.88
928.42	2287.88
928.653	2208.88
928.886	2250.88
929.119	2263.88
929.352	2258.88
929.585	2270.88
929.818	2204.88
930.051	2235.88
930.284	2212.88
930.516	2129.88
930.749	2149.88
930.982	2184.88
931.215	2173.88
931.447	2123.88
931.68	2135.88
931.912	2090.88
932.145	2142.88
932.377	2129.88
932.61	2268.88
932.842	2069.88
933.074	2160.88
933.307	2093.88
933.539	2194.88
933.771	2190.88
934.003	2110.88
934.236	2193.88
934.468	2242.88
934.7	2126.88
934.932	2191.88
935.164	2113.88
935.395	2101.88
935.627	2120.88
935.859	2145.88
936.091	2074.88
936.323	2126.88
936.554	2157.88
936.786	2134.88
937.017	2063.88
937.249	2146.88
937.481	2052.88
937.712	2120.88
937.943	2104.88
938.175	2091.88
938.406	2110.88
938.637	2164.88
938.869	2031.88
939.1	2132.88
939.331	2077.88
939.562	2124.88
939.793	2090.88
940.024	2119.88
940.255	2134.88
940.486	2069.88
940.717	2051.88
940.948	2028.88
941.179	2022.88
941.409	2072.88
941.64	2012.88
941.871	2063.88
942.102	2017.88
942.332	2035.88
942.563	2109.88
942.793	2033.88
943.024	2010.88
943.254	2052.88
943.484	2059.88
943.715	2085.88
943.945	2047.88
944.175	2013.88
944.405	1975.88
944.636	1986.88
944.866	2038.88
945.096	2060.88
945.326	1953.88
945.556	2025.88
945.786	2074.88
946.016	1990.88
946.245	1958.88
946.475	1985.88
946.705	1951.88
946.935	1997.88
947.164	1994.88
947.394	1934.88
947.624	1962.88
947.853	1999.88
948.083	1946.88
948.312	1928.88
948.542	1872.88
948.771	1884.88
949	1893.88
949.23	1899.88
949.459	1909.88
949.688	1976.88
949.917	1954.88
950.146	1936.88
950.375	1991.88
950.604	1887.88
950.833	1983.88
951.062	1979.88
951.291	1896.88
951.52	1860.88
951.749	1896.88
951.978	1859.88
952.206	1877.88
952.435	1889.88
952.664	1906.88
952.892	1929.88
953.121	1901.88
953.349	1925.88
953.578	1902.88
953.806	1868.88
954.035	1809.88
954.263	1886.88
954.491	1834.88
954.719	1856.88
954.948	1791.88
955.176	1825.88
955.404	1750.88
955.632	1829.88
955.86	1829.88
956.088	1849.88
956.316	1829.88
956.544	1865.88
956.772	1813.88
956.999	1794.88
957.227	1851.88
957.455	1765.88
957.683	1806.88
957.91	1731.88
958.138	1734.88
958.365	1737.88
958.593	1719.88
958.82	1705.88
959.048	1780.88
959.275	1752.88
959.502	1755.88
959.73	1719.88
959.957	1761.88
960.184	1830.88
960.411	1751.88
960.638	1825.88
960.865	1727.88
961.092	1769.88
961.319	1646.88
961.546	1742.88
961.773	1786.88
962	1727.88
962.227	1779.88
962.454	1737.88
962.68	1727.88
962.907	1738.88
963.134	1691.88
963.36	1726.88
963.587	1745.88
963.813	1673.88
964.04	1731.88
964.266	1672.88
964.493	1756.88
964.719	1711.88
964.945	1687.88
965.171	1629.88
965.398	1663.88
965.624	1677.88
965.85	1609.88
966.076	1636.88
966.302	1655.88
966.528	1610.88
966.754	1670.88
966.98	1639.88
967.206	1600.88
967.431	1574.88
967.657	1668.88
967.883	1637.88
968.109	1655.88
968.334	1582.88
968.56	1585.88
968.785	1600.88
969.011	1557.88
969.236	1629.88
969.462	1584.88
969.687	1574.88
969.912	1661.88
970.138	1664.88
970.363	1573.88
970.588	1616.88
970.813	1576.88
971.038	1564.88
971.263	1573.88
971.488	1592.88
971.713	1639.88
971.938	1619.88
972.163	1513.88
972.388	1554.88
972.613	1519.88
972.838	1551.88
973.062	1524.88
973.287	1543.88
973.512	1497.88
973.736	1502.88
973.961	1507.88
974.185	1500.88
974.41	1514.88
974.634	1449.88
974.858	1450.88
975.083	1497.88
975.307	1532.88
975.531	1455.88
975.755	1410.88
975.98	1445.88
976.204	1397.88
976.428	1406.88
976.652	1404.88
976.876	1364.88
977.1	1437.88
977.324	1383.88
977.547	1455.88
977.771	1466.88
977.995	1401.88
978.219	1321.88
978.442	1489.88
978.666	1419.88
978.89	1404.88
979.113	1422.88
979.337	1407.88
979.56	1370.88
979.783	1467.88
980.007	1369.88
980.23	1387.88
980.453	1364.88
980.677	1411.88
980.9	1390.88
981.123	1319.88
981.346	1401.88
981.569	1363.88
981.792	1417.88
982.015	1373.88
982.238	1319.88
982.461	1342.88
982.684	1347.88
982.907	1313.88
983.129	1321.88
983.352	1363.88
983.575	1333.88
983.797	1350.88
984.02	1309.88
984.242	1309.88
984.465	1304.88
984.687	1339.88
984.91	1362.88
985.132	1340.88
985.354	1382.88
985.577	1326.88
985.799	1321.88
986.021	1252.88
986.243	1273.88
986.465	1284.88
986.687	1326.88
986.909	1391.88
987.131	1313.88
987.353	1296.88
987.575	1336.88
987.797	1276.88
988.019	1232.88
988.241	1275.88
988.462	1248.88
988.684	1312.88
988.906	1326.88
989.127	1350.88
989.349	1245.88
989.57	1286.88
989.792	1322.88
990.013	1327.88
990.234	1341.88
990.456	1398.88
990.677	1332.88
990.898	1293.88
991.119	1287.88
991.341	1298.88
991.562	1249.88
991.783	1317.88
992.004	1253.88
992.225	1233.88
992.446	1277.88
992.667	1203.88
992.887	1293.88
993.108	1173.88
993.329	1318.88
993.55	1276.88
993.77	1222.88
993.991	1206.88
994.212	1249.88
994.432	1256.88
994.653	1270.88
994.873	1255.88
995.093	1136.88
995.314	1206.88
995.534	1267.88
995.754	1279.88
995.975	1289.88
996.195	1199.88
996.415	1250.88
996.635	1221.88
996.855	1272.88
997.075	1221.88
997.295	1222.88
997.515	1185.88
997.735	1252.88
997.955	1233.88
998.174	1217.88
998.394	1199.88
998.614	1264.88
998.834	1211.88
999.053	1268.88
999.273	1242.88
999.492	1302.88
999.712	1231.88
999.931	1213.88
1000.151	1253.88
1000.37	1214.88
1000.589	1271.88
1000.809	1218.88
1001.028	1317.88
1001.247	1265.88
1001.466	1157.88
1001.685	1278.88
1001.904	1250.88
1002.123	1219.88
1002.342	1241.88
1002.561	1199.88
1002.78	1212.88
1002.999	1276.88
1003.218	1242.88
1003.436	1205.88
1003.655	1240.88
1003.874	1194.88
1004.092	1212.88
1004.311	1281.88
1004.53	1224.88
1004.748	1285.88
1004.966	1210.88
1005.185	1308.88
1005.403	1266.88
1005.622	1266.88
1005.84	1344.88
1006.058	1195.88
1006.276	1263.88
1006.494	1733.88
1006.712	1254.88
1006.931	1307.88
1007.149	1222.88
1007.367	1226.88
1007.584	1270.88
1007.802	1311.88
1008.02	1253.88
1008.238	1351.88
1008.456	1357.88
1008.673	1212.88
1008.891	1341.88
1009.109	1316.88
1009.326	1350.88
1009.544	1463.88
1009.761	1345.88
1009.979	1470.88
1010.196	1468.88
1010.413	1583.88
1010.631	1651.88
1010.848	1648.88
1011.065	1667.88
1011.282	1629.88
1011.5	1588.88
1011.717	1692.88
1011.934	1629.88
1012.151	1652.88
1012.368	1641.88
1012.585	1565.88
1012.801	1641.88
1013.018	1623.88
1013.235	1599.88
1013.452	1601.88
1013.669	1625.88
1013.885	1588.88
1014.102	1646.88
1014.318	1625.88
1014.535	1587.88
1014.751	1594.88
1014.968	1599.88
1015.184	1670.88
1015.401	1551.88
1015.617	1586.88
1015.833	1527.88
1016.049	1539.88
1016.266	1488.88
1016.482	1531.88
1016.698	1449.88
1016.914	1543.88
1017.13	1463.88
1017.346	1478.88
1017.562	1494.88
1017.778	1474.88
1017.993	1426.88
1018.209	1481.88
1018.425	1490.88
1018.641	1468.88
1018.856	1399.88
1019.072	1464.88
1019.288	1516.88
1019.503	1479.88
1019.719	1385.88
1019.934	1415.88
1020.149	1476.88
1020.365	1424.88
1020.58	1366.88
1020.795	1404.88
1021.011	1333.88
1021.226	1320.88
1021.441	1338.88
1021.656	1252.88
1021.871	1199.88
1022.086	1168.88
1022.301	1177.88
1022.516	1158.88
1022.731	1232.88
1022.946	1130.88
1023.16	1124.88
1023.375	1080.88
1023.59	1052.88
1023.804	1056.88
1024.019	1128.88
1024.234	1005.88
1024.448	1022.88
1024.663	943.88
1024.877	998.88
1025.092	1002.88
1025.306	995.88
1025.52	901.88
1025.734	1000.88
1025.949	896.88
1026.163	895.88
1026.377	814.88
1026.591	889.88
1026.805	812.88
1027.019	807.88
1027.233	754.88
1027.447	731.88
1027.661	828.88
1027.875	766.88
1028.088	771.88
1028.302	701.88
1028.516	685.88
1028.73	703.88
1028.943	684.88
1029.157	647.88
1029.37	593.88
1029.584	-1.12
1029.797	-1.12
1030.011	-2.12
1030.224	0.88
