Data from QEP037381__277__11-06-46-589.txt Node

Date: Wed Dec 21 11:06:46 EST 2022
User: dcclab
Spectrometer: QEP03738
Trigger mode: 4
Integration Time (sec): 1.000000E1
Scans to average: 1
Electric dark correction enabled: true
Nonlinearity correction enabled: false
Boxcar width: 0
XAxis mode: Wavelengths
Number of Pixels in Spectrum: 1044
>>>>>Begin Spectral Data<<<<<
784.041	11.88
784.3	-0.12
784.558	-2.12
784.817	-4.12
785.075	96450.88
785.334	16746.88
785.592	7901.88
785.851	5468.88
786.109	4140.88
786.368	3221.88
786.626	2627.88
786.884	2194.88
787.143	1819.88
787.401	1491.88
787.659	1338.88
787.917	1157.88
788.175	1071.88
788.433	945.88
788.691	834.88
788.949	763.88
789.207	717.88
789.465	637.88
789.723	611.88
789.98	544.88
790.238	576.88
790.496	548.88
790.753	515.88
791.011	581.88
791.268	508.88
791.526	485.88
791.783	501.88
792.041	480.88
792.298	398.88
792.556	473.88
792.813	434.88
793.07	425.88
793.327	412.88
793.584	486.88
793.841	409.88
794.099	434.88
794.356	481.88
794.613	396.88
794.869	417.88
795.126	380.88
795.383	375.88
795.64	398.88
795.897	342.88
796.153	392.88
796.41	373.88
796.667	360.88
796.923	376.88
797.18	366.88
797.436	385.88
797.693	358.88
797.949	397.88
798.206	421.88
798.462	334.88
798.718	392.88
798.974	373.88
799.231	402.88
799.487	397.88
799.743	397.88
799.999	421.88
800.255	409.88
800.511	380.88
800.767	392.88
801.023	379.88
801.279	403.88
801.534	401.88
801.79	414.88
802.046	388.88
802.302	466.88
802.557	469.88
802.813	505.88
803.068	500.88
803.324	605.88
803.579	726.88
803.835	882.88
804.09	1141.88
804.345	1365.88
804.601	1706.88
804.856	1995.88
805.111	2300.88
805.366	2438.88
805.621	2615.88
805.876	2705.88
806.131	2750.88
806.386	2768.88
806.641	2774.88
806.896	2793.88
807.151	2967.88
807.406	2972.88
807.661	2994.88
807.915	3044.88
808.17	3119.88
808.425	3120.88
808.679	3110.88
808.934	3223.88
809.188	3230.88
809.443	3250.88
809.697	3321.88
809.951	3295.88
810.206	3304.88
810.46	3393.88
810.714	3457.88
810.968	3455.88
811.223	3444.88
811.477	3520.88
811.731	3590.88
811.985	3470.88
812.239	3482.88
812.493	3539.88
812.747	3558.88
813	3534.88
813.254	3605.88
813.508	3635.88
813.762	3591.88
814.015	3643.88
814.269	3694.88
814.522	3770.88
814.776	3814.88
815.03	3862.88
815.283	3871.88
815.536	3924.88
815.79	3965.88
816.043	4000.88
816.296	4068.88
816.55	4106.88
816.803	4157.88
817.056	4268.88
817.309	4257.88
817.562	4312.88
817.815	4410.88
818.068	4353.88
818.321	4430.88
818.574	4443.88
818.827	4608.88
819.079	4598.88
819.332	4812.88
819.585	4769.88
819.838	4878.88
820.09	4832.88
820.343	4937.88
820.595	4884.88
820.848	4944.88
821.1	4930.88
821.353	4984.88
821.605	4938.88
821.857	5004.88
822.11	4896.88
822.362	4896.88
822.614	4884.88
822.866	4983.88
823.118	4895.88
823.37	5081.88
823.622	4995.88
823.874	5055.88
824.126	5104.88
824.378	5034.88
824.63	5074.88
824.882	5118.88
825.134	5087.88
825.385	5066.88
825.637	5000.88
825.888	5029.88
826.14	4973.88
826.392	4915.88
826.643	4914.88
826.895	4892.88
827.146	4911.88
827.397	4864.88
827.649	4912.88
827.9	4881.88
828.151	4833.88
828.402	4837.88
828.653	4891.88
828.905	4900.88
829.156	4959.88
829.407	4974.88
829.658	4930.88
829.909	4978.88
830.159	4964.88
830.41	4949.88
830.661	4945.88
830.912	4860.88
831.162	4874.88
831.413	4900.88
831.664	4929.88
831.914	4891.88
832.165	4876.88
832.415	4877.88
832.666	4859.88
832.916	4949.88
833.167	4883.88
833.417	4931.88
833.667	4877.88
833.917	4916.88
834.168	4941.88
834.418	4951.88
834.668	4870.88
834.918	4844.88
835.168	4876.88
835.418	4758.88
835.668	4801.88
835.918	4820.88
836.167	4771.88
836.417	4748.88
836.667	4762.88
836.917	4808.88
837.166	4786.88
837.416	4799.88
837.666	4767.88
837.915	4732.88
838.165	4735.88
838.414	4707.88
838.663	4680.88
838.913	4771.88
839.162	4687.88
839.411	4731.88
839.661	4697.88
839.91	4688.88
840.159	4672.88
840.408	4738.88
840.657	4692.88
840.906	4753.88
841.155	4747.88
841.404	4738.88
841.653	4754.88
841.902	4639.88
842.15	4766.88
842.399	4757.88
842.648	4710.88
842.897	4724.88
843.145	4620.88
843.394	4625.88
843.642	4612.88
843.891	4633.88
844.139	4636.88
844.388	4563.88
844.636	4465.88
844.884	4531.88
845.133	4521.88
845.381	4540.88
845.629	4539.88
845.877	4528.88
846.125	4465.88
846.373	4561.88
846.621	4524.88
846.869	4537.88
847.117	4470.88
847.365	4437.88
847.613	4484.88
847.861	4419.88
848.108	4462.88
848.356	4443.88
848.604	4406.88
848.851	4461.88
849.099	4445.88
849.346	4497.88
849.594	4532.88
849.841	4550.88
850.089	4541.88
850.336	4530.88
850.583	4632.88
850.831	4654.88
851.078	4671.88
851.325	4683.88
851.572	4755.88
851.819	4718.88
852.066	4487.88
852.313	4327.88
852.56	4241.88
852.807	4184.88
853.054	4235.88
853.301	4335.88
853.548	4300.88
853.794	4402.88
854.041	4403.88
854.288	4375.88
854.534	4523.88
854.781	4433.88
855.028	4411.88
855.274	4435.88
855.52	4412.88
855.767	4302.88
856.013	4385.88
856.26	4762.88
856.506	4303.88
856.752	4360.88
856.998	4314.88
857.244	4337.88
857.49	4387.88
857.736	4361.88
857.982	4366.88
858.228	4374.88
858.474	4305.88
858.72	4341.88
858.966	4237.88
859.212	4209.88
859.458	4125.88
859.703	4132.88
859.949	4026.88
860.195	4077.88
860.44	4067.88
860.686	3984.88
860.931	4103.88
861.177	3980.88
861.422	4027.88
861.667	3927.88
861.913	3932.88
862.158	3952.88
862.403	3982.88
862.648	4018.88
862.893	3998.88
863.138	4027.88
863.384	3979.88
863.629	4005.88
863.873	3996.88
864.118	3973.88
864.363	3927.88
864.608	3977.88
864.853	4016.88
865.098	3950.88
865.342	3962.88
865.587	3881.88
865.832	3927.88
866.076	3929.88
866.321	3882.88
866.565	3870.88
866.81	3835.88
867.054	3858.88
867.298	3870.88
867.543	3827.88
867.787	3892.88
868.031	3855.88
868.275	3882.88
868.519	3836.88
868.764	3819.88
869.008	3858.88
869.252	3914.88
869.496	3793.88
869.739	3861.88
869.983	3875.88
870.227	3921.88
870.471	3865.88
870.715	3891.88
870.958	3983.88
871.202	3913.88
871.446	3926.88
871.689	3889.88
871.933	3910.88
872.176	3907.88
872.42	3872.88
872.663	3875.88
872.906	3971.88
873.15	3941.88
873.393	3832.88
873.636	3879.88
873.879	3906.88
874.122	3866.88
874.366	3745.88
874.609	3793.88
874.852	3675.88
875.095	3700.88
875.337	3659.88
875.58	3614.88
875.823	3672.88
876.066	3679.88
876.309	3689.88
876.551	3605.88
876.794	3560.88
877.037	3648.88
877.279	3562.88
877.522	3572.88
877.764	3620.88
878.007	3557.88
878.249	3505.88
878.491	3501.88
878.734	3581.88
878.976	3543.88
879.218	3474.88
879.46	3536.88
879.702	3523.88
879.945	3451.88
880.187	3361.88
880.429	3408.88
880.671	3389.88
880.912	3414.88
881.154	3376.88
881.396	3325.88
881.638	3375.88
881.88	3343.88
882.121	3312.88
882.363	3332.88
882.605	3458.88
882.846	3362.88
883.088	3398.88
883.329	3375.88
883.571	3362.88
883.812	3423.88
884.053	3540.88
884.295	3627.88
884.536	3786.88
884.777	3728.88
885.018	3700.88
885.259	3698.88
885.5	3617.88
885.742	3840.88
885.982	3631.88
886.223	3548.88
886.464	3472.88
886.705	3415.88
886.946	3444.88
887.187	3316.88
887.428	3312.88
887.668	3185.88
887.909	3158.88
888.15	3125.88
888.39	3214.88
888.631	3182.88
888.871	3157.88
889.111	3080.88
889.352	3064.88
889.592	3064.88
889.833	3040.88
890.073	2975.88
890.313	3007.88
890.553	2924.88
890.793	2939.88
891.033	2969.88
891.273	2958.88
891.513	2909.88
891.753	2989.88
891.993	2895.88
892.233	2953.88
892.473	3022.88
892.713	2945.88
892.952	2874.88
893.192	2961.88
893.432	2962.88
893.671	3021.88
893.911	2993.88
894.15	2963.88
894.39	2900.88
894.629	2911.88
894.869	2950.88
895.108	2900.88
895.347	2870.88
895.587	2921.88
895.826	2826.88
896.065	2826.88
896.304	2880.88
896.543	2899.88
896.782	2806.88
897.021	2869.88
897.26	2895.88
897.499	2956.88
897.738	2929.88
897.977	2901.88
898.216	2887.88
898.454	2833.88
898.693	2839.88
898.932	2863.88
899.17	2847.88
899.409	2829.88
899.647	2836.88
899.886	2784.88
900.124	2841.88
900.363	2793.88
900.601	2840.88
900.839	2889.88
901.078	2908.88
901.316	2923.88
901.554	2916.88
901.792	2962.88
902.03	2941.88
902.268	2959.88
902.506	2974.88
902.744	2921.88
902.982	2940.88
903.22	2823.88
903.458	2806.88
903.695	2762.88
903.933	2727.88
904.171	2633.88
904.409	2563.88
904.646	2589.88
904.884	2527.88
905.121	2554.88
905.359	2488.88
905.596	2477.88
905.833	2417.88
906.071	2386.88
906.308	2457.88
906.545	2396.88
906.783	2353.88
907.02	2378.88
907.257	2338.88
907.494	2357.88
907.731	2361.88
907.968	2386.88
908.205	2303.88
908.442	2318.88
908.679	2319.88
908.915	2297.88
909.152	2283.88
909.389	2175.88
909.626	2256.88
909.862	2218.88
910.099	2222.88
910.335	2264.88
910.572	2166.88
910.808	2228.88
911.045	2205.88
911.281	2170.88
911.518	2238.88
911.754	2160.88
911.99	2204.88
912.226	2164.88
912.463	2101.88
912.699	2068.88
912.935	2078.88
913.171	2090.88
913.407	2041.88
913.643	2094.88
913.879	2060.88
914.114	2052.88
914.35	2021.88
914.586	1976.88
914.822	1970.88
915.057	2046.88
915.293	1910.88
915.529	1895.88
915.764	1979.88
916	1998.88
916.235	1970.88
916.471	2009.88
916.706	1906.88
916.941	1939.88
917.177	1950.88
917.412	1995.88
917.647	1977.88
917.882	1938.88
918.117	1987.88
918.352	1943.88
918.588	1991.88
918.823	1933.88
919.057	1911.88
919.292	1833.88
919.527	1918.88
919.762	1856.88
919.997	1930.88
920.232	1860.88
920.466	1889.88
920.701	1759.88
920.935	1849.88
921.17	1796.88
921.405	1731.88
921.639	1821.88
921.873	1809.88
922.108	1818.88
922.342	1795.88
922.576	1731.88
922.811	1757.88
923.045	1765.88
923.279	1817.88
923.513	1697.88
923.747	1789.88
923.981	1741.88
924.215	1710.88
924.449	1719.88
924.683	1664.88
924.917	1696.88
925.151	1689.88
925.385	1741.88
925.618	1708.88
925.852	1694.88
926.086	1631.88
926.319	1702.88
926.553	1682.88
926.786	1669.88
927.02	1667.88
927.253	1741.88
927.486	1735.88
927.72	1654.88
927.953	1726.88
928.186	1673.88
928.42	1717.88
928.653	1643.88
928.886	1636.88
929.119	1697.88
929.352	1700.88
929.585	1658.88
929.818	1612.88
930.051	1662.88
930.284	1640.88
930.516	1590.88
930.749	1575.88
930.982	1620.88
931.215	1625.88
931.447	1549.88
931.68	1574.88
931.912	1566.88
932.145	1581.88
932.377	1589.88
932.61	1721.88
932.842	1511.88
933.074	1575.88
933.307	1541.88
933.539	1660.88
933.771	1628.88
934.003	1593.88
934.236	1632.88
934.468	1659.88
934.7	1569.88
934.932	1614.88
935.164	1576.88
935.395	1546.88
935.627	1610.88
935.859	1597.88
936.091	1543.88
936.323	1589.88
936.554	1568.88
936.786	1553.88
937.017	1528.88
937.249	1542.88
937.481	1512.88
937.712	1577.88
937.943	1533.88
938.175	1566.88
938.406	1554.88
938.637	1640.88
938.869	1521.88
939.1	1556.88
939.331	1493.88
939.562	1571.88
939.793	1532.88
940.024	1558.88
940.255	1578.88
940.486	1520.88
940.717	1513.88
940.948	1512.88
941.179	1478.88
941.409	1510.88
941.64	1517.88
941.871	1508.88
942.102	1480.88
942.332	1484.88
942.563	1549.88
942.793	1522.88
943.024	1464.88
943.254	1509.88
943.484	1558.88
943.715	1548.88
943.945	1520.88
944.175	1462.88
944.405	1466.88
944.636	1465.88
944.866	1492.88
945.096	1532.88
945.326	1439.88
945.556	1526.88
945.786	1515.88
946.016	1474.88
946.245	1439.88
946.475	1441.88
946.705	1434.88
946.935	1453.88
947.164	1464.88
947.394	1397.88
947.624	1431.88
947.853	1466.88
948.083	1440.88
948.312	1443.88
948.542	1355.88
948.771	1366.88
949	1354.88
949.23	1414.88
949.459	1417.88
949.688	1474.88
949.917	1413.88
950.146	1430.88
950.375	1499.88
950.604	1390.88
950.833	1476.88
951.062	1473.88
951.291	1427.88
951.52	1401.88
951.749	1405.88
951.978	1370.88
952.206	1386.88
952.435	1402.88
952.664	1440.88
952.892	1416.88
953.121	1425.88
953.349	1448.88
953.578	1424.88
953.806	1398.88
954.035	1340.88
954.263	1382.88
954.491	1329.88
954.719	1394.88
954.948	1340.88
955.176	1354.88
955.404	1287.88
955.632	1356.88
955.86	1354.88
956.088	1357.88
956.316	1370.88
956.544	1387.88
956.772	1316.88
956.999	1315.88
957.227	1411.88
957.455	1328.88
957.683	1324.88
957.91	1267.88
958.138	1293.88
958.365	1269.88
958.593	1277.88
958.82	1245.88
959.048	1302.88
959.275	1269.88
959.502	1304.88
959.73	1244.88
959.957	1339.88
960.184	1375.88
960.411	1296.88
960.638	1362.88
960.865	1306.88
961.092	1354.88
961.319	1229.88
961.546	1339.88
961.773	1338.88
962	1278.88
962.227	1332.88
962.454	1283.88
962.68	1250.88
962.907	1304.88
963.134	1262.88
963.36	1281.88
963.587	1306.88
963.813	1249.88
964.04	1287.88
964.266	1220.88
964.493	1316.88
964.719	1290.88
964.945	1302.88
965.171	1203.88
965.398	1274.88
965.624	1271.88
965.85	1208.88
966.076	1206.88
966.302	1232.88
966.528	1211.88
966.754	1253.88
966.98	1222.88
967.206	1252.88
967.431	1204.88
967.657	1265.88
967.883	1266.88
968.109	1243.88
968.334	1172.88
968.56	1190.88
968.785	1205.88
969.011	1170.88
969.236	1238.88
969.462	1177.88
969.687	1179.88
969.912	1240.88
970.138	1247.88
970.363	1170.88
970.588	1218.88
970.813	1190.88
971.038	1159.88
971.263	1209.88
971.488	1183.88
971.713	1221.88
971.938	1221.88
972.163	1141.88
972.388	1178.88
972.613	1137.88
972.838	1166.88
973.062	1158.88
973.287	1161.88
973.512	1103.88
973.736	1153.88
973.961	1137.88
974.185	1125.88
974.41	1165.88
974.634	1071.88
974.858	1110.88
975.083	1167.88
975.307	1163.88
975.531	1096.88
975.755	1033.88
975.98	1109.88
976.204	1028.88
976.428	1049.88
976.652	1051.88
976.876	1018.88
977.1	1070.88
977.324	1030.88
977.547	1094.88
977.771	1083.88
977.995	1086.88
978.219	1009.88
978.442	1128.88
978.666	1098.88
978.89	1058.88
979.113	1041.88
979.337	1053.88
979.56	1051.88
979.783	1125.88
980.007	1005.88
980.23	1069.88
980.453	1008.88
980.677	1072.88
980.9	1058.88
981.123	959.88
981.346	1066.88
981.569	1058.88
981.792	1080.88
982.015	1039.88
982.238	1046.88
982.461	1036.88
982.684	987.88
982.907	985.88
983.129	990.88
983.352	1051.88
983.575	1036.88
983.797	1045.88
984.02	968.88
984.242	1002.88
984.465	989.88
984.687	1020.88
984.91	1067.88
985.132	1028.88
985.354	1055.88
985.577	1030.88
985.799	1010.88
986.021	948.88
986.243	964.88
986.465	1002.88
986.687	1027.88
986.909	1085.88
987.131	1009.88
987.353	991.88
987.575	1032.88
987.797	1008.88
988.019	944.88
988.241	985.88
988.462	958.88
988.684	1025.88
988.906	1058.88
989.127	1046.88
989.349	951.88
989.57	966.88
989.792	1033.88
990.013	1031.88
990.234	1049.88
990.456	1086.88
990.677	1041.88
990.898	1001.88
991.119	1026.88
991.341	1047.88
991.562	991.88
991.783	1019.88
992.004	950.88
992.225	940.88
992.446	1022.88
992.667	934.88
992.887	1017.88
993.108	912.88
993.329	1063.88
993.55	1000.88
993.77	939.88
993.991	954.88
994.212	1019.88
994.432	990.88
994.653	994.88
994.873	976.88
995.093	888.88
995.314	927.88
995.534	1014.88
995.754	1012.88
995.975	1033.88
996.195	937.88
996.415	980.88
996.635	957.88
996.855	1002.88
997.075	976.88
997.295	955.88
997.515	948.88
997.735	1016.88
997.955	982.88
998.174	975.88
998.394	939.88
998.614	1002.88
998.834	941.88
999.053	1020.88
999.273	1012.88
999.492	1039.88
999.712	967.88
999.931	946.88
1000.151	1014.88
1000.37	969.88
1000.589	1029.88
1000.809	972.88
1001.028	1078.88
1001.247	1020.88
1001.466	929.88
1001.685	1064.88
1001.904	996.88
1002.123	1003.88
1002.342	1026.88
1002.561	985.88
1002.78	1001.88
1002.999	1084.88
1003.218	1022.88
1003.436	1002.88
1003.655	1056.88
1003.874	978.88
1004.092	1020.88
1004.311	1047.88
1004.53	1037.88
1004.748	1105.88
1004.966	1045.88
1005.185	1083.88
1005.403	1076.88
1005.622	1049.88
1005.84	1138.88
1006.058	1009.88
1006.276	1066.88
1006.494	1510.88
1006.712	1054.88
1006.931	1125.88
1007.149	1018.88
1007.367	1025.88
1007.584	1053.88
1007.802	1083.88
1008.02	1054.88
1008.238	1147.88
1008.456	1137.88
1008.673	1004.88
1008.891	1094.88
1009.109	1065.88
1009.326	1118.88
1009.544	1191.88
1009.761	1105.88
1009.979	1168.88
1010.196	1171.88
1010.413	1255.88
1010.631	1286.88
1010.848	1327.88
1011.065	1329.88
1011.282	1287.88
1011.5	1202.88
1011.717	1334.88
1011.934	1289.88
1012.151	1340.88
1012.368	1306.88
1012.585	1240.88
1012.801	1302.88
1013.018	1242.88
1013.235	1238.88
1013.452	1278.88
1013.669	1283.88
1013.885	1239.88
1014.102	1304.88
1014.318	1285.88
1014.535	1228.88
1014.751	1271.88
1014.968	1259.88
1015.184	1298.88
1015.401	1204.88
1015.617	1256.88
1015.833	1225.88
1016.049	1225.88
1016.266	1211.88
1016.482	1213.88
1016.698	1171.88
1016.914	1211.88
1017.13	1164.88
1017.346	1151.88
1017.562	1238.88
1017.778	1175.88
1017.993	1144.88
1018.209	1189.88
1018.425	1190.88
1018.641	1163.88
1018.856	1119.88
1019.072	1147.88
1019.288	1179.88
1019.503	1152.88
1019.719	1083.88
1019.934	1091.88
1020.149	1170.88
1020.365	1115.88
1020.58	1076.88
1020.795	1126.88
1021.011	1055.88
1021.226	1056.88
1021.441	1082.88
1021.656	977.88
1021.871	935.88
1022.086	955.88
1022.301	934.88
1022.516	934.88
1022.731	1005.88
1022.946	928.88
1023.16	893.88
1023.375	879.88
1023.59	876.88
1023.804	833.88
1024.019	920.88
1024.234	836.88
1024.448	849.88
1024.663	794.88
1024.877	792.88
1025.092	818.88
1025.306	830.88
1025.52	759.88
1025.734	839.88
1025.949	762.88
1026.163	729.88
1026.377	684.88
1026.591	737.88
1026.805	675.88
1027.019	668.88
1027.233	645.88
1027.447	596.88
1027.661	703.88
1027.875	646.88
1028.088	646.88
1028.302	591.88
1028.516	593.88
1028.73	607.88
1028.943	593.88
1029.157	550.88
1029.37	509.88
1029.584	2.88
1029.797	-4.12
1030.011	-1.12
1030.224	-3.12
