Data from QEP037381__312__11-12-36-590.txt Node

Date: Wed Dec 21 11:12:36 EST 2022
User: dcclab
Spectrometer: QEP03738
Trigger mode: 4
Integration Time (sec): 1.000000E1
Scans to average: 1
Electric dark correction enabled: true
Nonlinearity correction enabled: false
Boxcar width: 0
XAxis mode: Wavelengths
Number of Pixels in Spectrum: 1044
>>>>>Begin Spectral Data<<<<<
784.041	12.38
784.3	-2.62
784.558	-1.62
784.817	-1.62
785.075	100499.38
785.334	16722.38
785.592	7664.38
785.851	5242.38
786.109	3984.38
786.368	3066.38
786.626	2506.38
786.884	2070.38
787.143	1731.38
787.401	1421.38
787.659	1308.38
787.917	1100.38
788.175	1019.38
788.433	882.38
788.691	819.38
788.949	739.38
789.207	714.38
789.465	598.38
789.723	587.38
789.98	540.38
790.238	574.38
790.496	541.38
790.753	515.38
791.011	571.38
791.268	505.38
791.526	506.38
791.783	494.38
792.041	483.38
792.298	418.38
792.556	464.38
792.813	438.38
793.07	427.38
793.327	425.38
793.584	492.38
793.841	415.38
794.099	439.38
794.356	481.38
794.613	382.38
794.869	429.38
795.126	395.38
795.383	374.38
795.64	389.38
795.897	338.38
796.153	390.38
796.41	379.38
796.667	350.38
796.923	374.38
797.18	379.38
797.436	387.38
797.693	364.38
797.949	400.38
798.206	437.38
798.462	342.38
798.718	408.38
798.974	376.38
799.231	407.38
799.487	389.38
799.743	389.38
799.999	399.38
800.255	418.38
800.511	377.38
800.767	412.38
801.023	374.38
801.279	413.38
801.534	404.38
801.79	423.38
802.046	417.38
802.302	482.38
802.557	474.38
802.813	519.38
803.068	549.38
803.324	663.38
803.579	766.38
803.835	968.38
804.09	1246.38
804.345	1539.38
804.601	1905.38
804.856	2329.38
805.111	2657.38
805.366	2866.38
805.621	3038.38
805.876	3131.38
806.131	3180.38
806.386	3228.38
806.641	3306.38
806.896	3329.38
807.151	3440.38
807.406	3445.38
807.661	3495.38
807.915	3577.38
808.17	3661.38
808.425	3687.38
808.679	3677.38
808.934	3784.38
809.188	3809.38
809.443	3827.38
809.697	3912.38
809.951	3872.38
810.206	3930.38
810.46	4013.38
810.714	4040.38
810.968	4108.38
811.223	4030.38
811.477	4151.38
811.731	4165.38
811.985	4163.38
812.239	4137.38
812.493	4197.38
812.747	4248.38
813	4153.38
813.254	4271.38
813.508	4311.38
813.762	4268.38
814.015	4312.38
814.269	4345.38
814.522	4403.38
814.776	4447.38
815.03	4477.38
815.283	4598.38
815.536	4633.38
815.79	4722.38
816.043	4755.38
816.296	4836.38
816.55	4842.38
816.803	4983.38
817.056	5100.38
817.309	5092.38
817.562	5116.38
817.815	5184.38
818.068	5230.38
818.321	5260.38
818.574	5338.38
818.827	5452.38
819.079	5524.38
819.332	5690.38
819.585	5675.38
819.838	5818.38
820.09	5752.38
820.343	5879.38
820.595	5808.38
820.848	5867.38
821.1	5952.38
821.353	5921.38
821.605	5874.38
821.857	5942.38
822.11	5774.38
822.362	5860.38
822.614	5846.38
822.866	5909.38
823.118	5849.38
823.37	6031.38
823.622	5974.38
823.874	6006.38
824.126	6084.38
824.378	5986.38
824.63	6053.38
824.882	6143.38
825.134	6032.38
825.385	6059.38
825.637	5953.38
825.888	5976.38
826.14	5970.38
826.392	5957.38
826.643	5834.38
826.895	5921.38
827.146	5842.38
827.397	5788.38
827.649	5889.38
827.9	5818.38
828.151	5812.38
828.402	5759.38
828.653	5856.38
828.905	5892.38
829.156	5969.38
829.407	5902.38
829.658	5921.38
829.909	5994.38
830.159	5978.38
830.41	5964.38
830.661	5946.38
830.912	5852.38
831.162	5831.38
831.413	5844.38
831.664	5878.38
831.914	5819.38
832.165	5862.38
832.415	5832.38
832.666	5851.38
832.916	5859.38
833.167	5852.38
833.417	5927.38
833.667	5904.38
833.917	5834.38
834.168	5905.38
834.418	5887.38
834.668	5808.38
834.918	5800.38
835.168	5773.38
835.418	5725.38
835.668	5773.38
835.918	5774.38
836.167	5755.38
836.417	5673.38
836.667	5785.38
836.917	5754.38
837.166	5713.38
837.416	5751.38
837.666	5733.38
837.915	5713.38
838.165	5709.38
838.414	5657.38
838.663	5656.38
838.913	5707.38
839.162	5648.38
839.411	5700.38
839.661	5655.38
839.91	5685.38
840.159	5683.38
840.408	5741.38
840.657	5708.38
840.906	5787.38
841.155	5741.38
841.404	5720.38
841.653	5730.38
841.902	5702.38
842.15	5769.38
842.399	5824.38
842.648	5762.38
842.897	5778.38
843.145	5690.38
843.394	5636.38
843.642	5598.38
843.891	5606.38
844.139	5526.38
844.388	5480.38
844.636	5447.38
844.884	5483.38
845.133	5513.38
845.381	5463.38
845.629	5533.38
845.877	5473.38
846.125	5520.38
846.373	5537.38
846.621	5424.38
846.869	5473.38
847.117	5417.38
847.365	5368.38
847.613	5368.38
847.861	5408.38
848.108	5451.38
848.356	5389.38
848.604	5401.38
848.851	5428.38
849.099	5425.38
849.346	5416.38
849.594	5516.38
849.841	5568.38
850.089	5518.38
850.336	5593.38
850.583	5630.38
850.831	5696.38
851.078	5679.38
851.325	5666.38
851.572	5744.38
851.819	5608.38
852.066	5403.38
852.313	5236.38
852.56	5213.38
852.807	5136.38
853.054	5205.38
853.301	5216.38
853.548	5244.38
853.794	5400.38
854.041	5318.38
854.288	5289.38
854.534	5471.38
854.781	5377.38
855.028	5363.38
855.274	5402.38
855.52	5357.38
855.767	5300.38
856.013	5346.38
856.26	5631.38
856.506	5287.38
856.752	5328.38
856.998	5305.38
857.244	5285.38
857.49	5407.38
857.736	5352.38
857.982	5418.38
858.228	5358.38
858.474	5244.38
858.72	5298.38
858.966	5167.38
859.212	5156.38
859.458	5107.38
859.703	5014.38
859.949	4984.38
860.195	4989.38
860.44	4967.38
860.686	4912.38
860.931	4990.38
861.177	4871.38
861.422	4847.38
861.667	4836.38
861.913	4813.38
862.158	4825.38
862.403	4820.38
862.648	4862.38
862.893	4960.38
863.138	4922.38
863.384	4848.38
863.629	4876.38
863.873	4905.38
864.118	4867.38
864.363	4798.38
864.608	4883.38
864.853	4879.38
865.098	4842.38
865.342	4793.38
865.587	4768.38
865.832	4788.38
866.076	4738.38
866.321	4773.38
866.565	4774.38
866.81	4691.38
867.054	4718.38
867.298	4722.38
867.543	4661.38
867.787	4722.38
868.031	4717.38
868.275	4723.38
868.519	4733.38
868.764	4756.38
869.008	4714.38
869.252	4762.38
869.496	4704.38
869.739	4765.38
869.983	4806.38
870.227	4762.38
870.471	4736.38
870.715	4844.38
870.958	4852.38
871.202	4785.38
871.446	4821.38
871.689	4819.38
871.933	4811.38
872.176	4807.38
872.42	4833.38
872.663	4805.38
872.906	4878.38
873.15	4829.38
873.393	4852.38
873.636	4879.38
873.879	4821.38
874.122	4798.38
874.366	4738.38
874.609	4680.38
874.852	4623.38
875.095	4581.38
875.337	4562.38
875.58	4466.38
875.823	4488.38
876.066	4510.38
876.309	4546.38
876.551	4473.38
876.794	4387.38
877.037	4484.38
877.279	4372.38
877.522	4390.38
877.764	4406.38
878.007	4361.38
878.249	4454.38
878.491	4357.38
878.734	4422.38
878.976	4383.38
879.218	4299.38
879.46	4387.38
879.702	4314.38
879.945	4250.38
880.187	4196.38
880.429	4240.38
880.671	4206.38
880.912	4194.38
881.154	4182.38
881.396	4074.38
881.638	4204.38
881.88	4144.38
882.121	4114.38
882.363	4195.38
882.605	4205.38
882.846	4192.38
883.088	4201.38
883.329	4153.38
883.571	4180.38
883.812	4358.38
884.053	4456.38
884.295	4609.38
884.536	4783.38
884.777	4696.38
885.018	4678.38
885.259	4692.38
885.5	4552.38
885.742	4791.38
885.982	4544.38
886.223	4434.38
886.464	4417.38
886.705	4310.38
886.946	4345.38
887.187	4126.38
887.428	4155.38
887.668	4080.38
887.909	3946.38
888.15	3875.38
888.39	3887.38
888.631	3851.38
888.871	3883.38
889.111	3834.38
889.352	3803.38
889.592	3740.38
889.833	3748.38
890.073	3727.38
890.313	3754.38
890.553	3614.38
890.793	3614.38
891.033	3605.38
891.273	3591.38
891.513	3624.38
891.753	3681.38
891.993	3597.38
892.233	3622.38
892.473	3750.38
892.713	3667.38
892.952	3626.38
893.192	3647.38
893.432	3605.38
893.671	3695.38
893.911	3677.38
894.15	3664.38
894.39	3537.38
894.629	3583.38
894.869	3586.38
895.108	3555.38
895.347	3496.38
895.587	3545.38
895.826	3571.38
896.065	3548.38
896.304	3601.38
896.543	3600.38
896.782	3505.38
897.021	3569.38
897.26	3591.38
897.499	3618.38
897.738	3625.38
897.977	3608.38
898.216	3509.38
898.454	3477.38
898.693	3518.38
898.932	3495.38
899.17	3494.38
899.409	3547.38
899.647	3498.38
899.886	3519.38
900.124	3509.38
900.363	3460.38
900.601	3535.38
900.839	3537.38
901.078	3577.38
901.316	3654.38
901.554	3667.38
901.792	3677.38
902.03	3671.38
902.268	3723.38
902.506	3729.38
902.744	3689.38
902.982	3680.38
903.22	3523.38
903.458	3513.38
903.695	3462.38
903.933	3389.38
904.171	3283.38
904.409	3258.38
904.646	3198.38
904.884	3135.38
905.121	3182.38
905.359	3099.38
905.596	3063.38
905.833	2941.38
906.071	2956.38
906.308	2989.38
906.545	2999.38
906.783	2928.38
907.02	2951.38
907.257	2921.38
907.494	2934.38
907.731	2936.38
907.968	2934.38
908.205	2851.38
908.442	2874.38
908.679	2855.38
908.915	2837.38
909.152	2825.38
909.389	2703.38
909.626	2723.38
909.862	2732.38
910.099	2708.38
910.335	2766.38
910.572	2698.38
910.808	2732.38
911.045	2654.38
911.281	2659.38
911.518	2722.38
911.754	2616.38
911.99	2656.38
912.226	2623.38
912.463	2600.38
912.699	2611.38
912.935	2597.38
913.171	2579.38
913.407	2551.38
913.643	2615.38
913.879	2531.38
914.114	2541.38
914.35	2490.38
914.586	2465.38
914.822	2421.38
915.057	2515.38
915.293	2372.38
915.529	2372.38
915.764	2450.38
916	2412.38
916.235	2431.38
916.471	2516.38
916.706	2921.38
916.941	2518.38
917.177	2376.38
917.412	2450.38
917.647	2413.38
917.882	2358.38
918.117	2437.38
918.352	2355.38
918.588	2460.38
918.823	2370.38
919.057	2354.38
919.292	2271.38
919.527	2360.38
919.762	2281.38
919.997	2344.38
920.232	2300.38
920.466	2312.38
920.701	2152.38
920.935	2227.38
921.17	2214.38
921.405	2147.38
921.639	2216.38
921.873	2209.38
922.108	2212.38
922.342	2198.38
922.576	2144.38
922.811	2159.38
923.045	2199.38
923.279	2239.38
923.513	2085.38
923.747	2187.38
923.981	2148.38
924.215	2096.38
924.449	2120.38
924.683	2063.38
924.917	2099.38
925.151	2058.38
925.385	2158.38
925.618	2087.38
925.852	2084.38
926.086	2034.38
926.319	2071.38
926.553	2053.38
926.786	2089.38
927.02	2059.38
927.253	2114.38
927.486	2125.38
927.72	2026.38
927.953	2114.38
928.186	2042.38
928.42	2075.38
928.653	2043.38
928.886	2024.38
929.119	2075.38
929.352	2026.38
929.585	2061.38
929.818	1981.38
930.051	2015.38
930.284	2012.38
930.516	1953.38
930.749	1950.38
930.982	1994.38
931.215	1987.38
931.447	1909.38
931.68	1954.38
931.912	1919.38
932.145	1909.38
932.377	1943.38
932.61	2079.38
932.842	1888.38
933.074	1958.38
933.307	1917.38
933.539	2039.38
933.771	1978.38
934.003	1935.38
934.236	2015.38
934.468	2032.38
934.7	1914.38
934.932	1979.38
935.164	1920.38
935.395	1904.38
935.627	1935.38
935.859	1944.38
936.091	1873.38
936.323	1939.38
936.554	1978.38
936.786	1941.38
937.017	1918.38
937.249	1917.38
937.481	1836.38
937.712	1924.38
937.943	1907.38
938.175	1903.38
938.406	1898.38
938.637	1932.38
938.869	1854.38
939.1	1936.38
939.331	1884.38
939.562	1894.38
939.793	1902.38
940.024	1926.38
940.255	1891.38
940.486	1838.38
940.717	1862.38
940.948	1855.38
941.179	1830.38
941.409	1819.38
941.64	1816.38
941.871	1840.38
942.102	1845.38
942.332	1823.38
942.563	1881.38
942.793	1855.38
943.024	1788.38
943.254	1817.38
943.484	1880.38
943.715	1884.38
943.945	1877.38
944.175	1822.38
944.405	1785.38
944.636	1818.38
944.866	1831.38
945.096	1871.38
945.326	1783.38
945.556	1878.38
945.786	1850.38
946.016	1812.38
946.245	1755.38
946.475	1776.38
946.705	1809.38
946.935	1793.38
947.164	1778.38
947.394	1746.38
947.624	1762.38
947.853	1818.38
948.083	1774.38
948.312	1739.38
948.542	1673.38
948.771	1691.38
949	1704.38
949.23	1701.38
949.459	1737.38
949.688	1777.38
949.917	1728.38
950.146	1729.38
950.375	1806.38
950.604	1692.38
950.833	1787.38
951.062	1765.38
951.291	1740.38
951.52	1716.38
951.749	1728.38
951.978	1703.38
952.206	1698.38
952.435	1676.38
952.664	1725.38
952.892	1706.38
953.121	1707.38
953.349	1724.38
953.578	1715.38
953.806	1714.38
954.035	1657.38
954.263	1683.38
954.491	1634.38
954.719	1700.38
954.948	1649.38
955.176	1625.38
955.404	1586.38
955.632	1671.38
955.86	1640.38
956.088	1642.38
956.316	1667.38
956.544	1700.38
956.772	1642.38
956.999	1628.38
957.227	1686.38
957.455	1592.38
957.683	1629.38
957.91	1580.38
958.138	1577.38
958.365	1588.38
958.593	1615.38
958.82	1543.38
959.048	1576.38
959.275	1583.38
959.502	1572.38
959.73	1536.38
959.957	1586.38
960.184	1632.38
960.411	1581.38
960.638	1652.38
960.865	1533.38
961.092	1611.38
961.319	1505.38
961.546	1597.38
961.773	1616.38
962	1542.38
962.227	1602.38
962.454	1565.38
962.68	1568.38
962.907	1594.38
963.134	1531.38
963.36	1561.38
963.587	1579.38
963.813	1516.38
964.04	1543.38
964.266	1481.38
964.493	1577.38
964.719	1561.38
964.945	1552.38
965.171	1460.38
965.398	1495.38
965.624	1537.38
965.85	1446.38
966.076	1458.38
966.302	1516.38
966.528	1464.38
966.754	1500.38
966.98	1497.38
967.206	1483.38
967.431	1433.38
967.657	1542.38
967.883	1523.38
968.109	1491.38
968.334	1428.38
968.56	1429.38
968.785	1412.38
969.011	1382.38
969.236	1465.38
969.462	1419.38
969.687	1442.38
969.912	1479.38
970.138	1496.38
970.363	1438.38
970.588	1429.38
970.813	1437.38
971.038	1427.38
971.263	1424.38
971.488	1452.38
971.713	1480.38
971.938	1429.38
972.163	1385.38
972.388	1404.38
972.613	1391.38
972.838	1396.38
973.062	1375.38
973.287	1391.38
973.512	1341.38
973.736	1393.38
973.961	1351.38
974.185	1330.38
974.41	1407.38
974.634	1286.38
974.858	1314.38
975.083	1360.38
975.307	1387.38
975.531	1326.38
975.755	1265.38
975.98	1334.38
976.204	1255.38
976.428	1258.38
976.652	1278.38
976.876	1240.38
977.1	1259.38
977.324	1253.38
977.547	1316.38
977.771	1316.38
977.995	1301.38
978.219	1224.38
978.442	1349.38
978.666	1258.38
978.89	1271.38
979.113	1291.38
979.337	1264.38
979.56	1234.38
979.783	1356.38
980.007	1209.38
980.23	1262.38
980.453	1257.38
980.677	1280.38
980.9	1268.38
981.123	1171.38
981.346	1269.38
981.569	1246.38
981.792	1283.38
982.015	1234.38
982.238	1208.38
982.461	1243.38
982.684	1191.38
982.907	1206.38
983.129	1165.38
983.352	1249.38
983.575	1228.38
983.797	1220.38
984.02	1188.38
984.242	1203.38
984.465	1195.38
984.687	1214.38
984.91	1272.38
985.132	1225.38
985.354	1251.38
985.577	1210.38
985.799	1172.38
986.021	1142.38
986.243	1184.38
986.465	1189.38
986.687	1236.38
986.909	1251.38
987.131	1195.38
987.353	1168.38
987.575	1208.38
987.797	1186.38
988.019	1135.38
988.241	1177.38
988.462	1147.38
988.684	1221.38
988.906	1231.38
989.127	1257.38
989.349	1150.38
989.57	1164.38
989.792	1203.38
990.013	1218.38
990.234	1259.38
990.456	1248.38
990.677	1204.38
990.898	1171.38
991.119	1181.38
991.341	1206.38
991.562	1162.38
991.783	1207.38
992.004	1139.38
992.225	1131.38
992.446	1186.38
992.667	1093.38
992.887	1179.38
993.108	1088.38
993.329	1215.38
993.55	1156.38
993.77	1104.38
993.991	1117.38
994.212	1159.38
994.432	1138.38
994.653	1154.38
994.873	1150.38
995.093	1040.38
995.314	1087.38
995.534	1152.38
995.754	1188.38
995.975	1209.38
996.195	1095.38
996.415	1155.38
996.635	1135.38
996.855	1150.38
997.075	1139.38
997.295	1143.38
997.515	1112.38
997.735	1182.38
997.955	1160.38
998.174	1145.38
998.394	1124.38
998.614	1166.38
998.834	1112.38
999.053	1192.38
999.273	1135.38
999.492	1216.38
999.712	1138.38
999.931	1106.38
1000.151	1153.38
1000.37	1141.38
1000.589	1184.38
1000.809	1123.38
1001.028	1221.38
1001.247	1192.38
1001.466	1080.38
1001.685	1205.38
1001.904	1171.38
1002.123	1155.38
1002.342	1155.38
1002.561	1117.38
1002.78	1129.38
1002.999	1204.38
1003.218	1144.38
1003.436	1156.38
1003.655	1174.38
1003.874	1117.38
1004.092	1149.38
1004.311	1184.38
1004.53	1146.38
1004.748	1248.38
1004.966	1164.38
1005.185	1214.38
1005.403	1205.38
1005.622	1184.38
1005.84	1266.38
1006.058	1147.38
1006.276	1201.38
1006.494	1652.38
1006.712	1205.38
1006.931	1237.38
1007.149	1184.38
1007.367	1172.38
1007.584	1252.38
1007.802	1253.38
1008.02	1174.38
1008.238	1310.38
1008.456	1312.38
1008.673	1162.38
1008.891	1299.38
1009.109	1250.38
1009.326	1300.38
1009.544	1411.38
1009.761	1344.38
1009.979	1428.38
1010.196	1438.38
1010.413	1580.38
1010.631	1615.38
1010.848	1668.38
1011.065	1720.38
1011.282	1639.38
1011.5	1578.38
1011.717	1692.38
1011.934	1630.38
1012.151	1654.38
1012.368	1671.38
1012.585	1607.38
1012.801	1669.38
1013.018	1631.38
1013.235	1617.38
1013.452	1637.38
1013.669	1631.38
1013.885	1629.38
1014.102	1691.38
1014.318	1642.38
1014.535	1569.38
1014.751	1639.38
1014.968	1637.38
1015.184	1678.38
1015.401	1587.38
1015.617	1600.38
1015.833	1537.38
1016.049	1581.38
1016.266	1573.38
1016.482	1536.38
1016.698	1506.38
1016.914	1529.38
1017.13	1505.38
1017.346	1480.38
1017.562	1532.38
1017.778	1493.38
1017.993	1462.38
1018.209	1495.38
1018.425	1479.38
1018.641	1474.38
1018.856	1430.38
1019.072	1490.38
1019.288	1495.38
1019.503	1484.38
1019.719	1380.38
1019.934	1392.38
1020.149	1486.38
1020.365	1424.38
1020.58	1388.38
1020.795	1411.38
1021.011	1356.38
1021.226	1325.38
1021.441	1341.38
1021.656	1239.38
1021.871	1188.38
1022.086	1171.38
1022.301	1181.38
1022.516	1168.38
1022.731	1204.38
1022.946	1122.38
1023.16	1126.38
1023.375	1076.38
1023.59	1053.38
1023.804	1026.38
1024.019	1115.38
1024.234	1004.38
1024.448	1036.38
1024.663	935.38
1024.877	961.38
1025.092	972.38
1025.306	978.38
1025.52	886.38
1025.734	973.38
1025.949	896.38
1026.163	856.38
1026.377	793.38
1026.591	866.38
1026.805	782.38
1027.019	776.38
1027.233	769.38
1027.447	694.38
1027.661	805.38
1027.875	744.38
1028.088	748.38
1028.302	678.38
1028.516	675.38
1028.73	688.38
1028.943	677.38
1029.157	623.38
1029.37	601.38
1029.584	-0.62
1029.797	-4.62
1030.011	-2.62
1030.224	1.38
