Data from QEP037381__259__11-03-46-589.txt Node

Date: Wed Dec 21 11:03:46 EST 2022
User: dcclab
Spectrometer: QEP03738
Trigger mode: 4
Integration Time (sec): 1.000000E1
Scans to average: 1
Electric dark correction enabled: true
Nonlinearity correction enabled: false
Boxcar width: 0
XAxis mode: Wavelengths
Number of Pixels in Spectrum: 1044
>>>>>Begin Spectral Data<<<<<
784.041	13
784.3	2
784.558	-2
784.817	-5
785.075	89489
785.334	15574
785.592	7355
785.851	5055
786.109	3849
786.368	2986
786.626	2397
786.884	1975
787.143	1672
787.401	1368
787.659	1251
787.917	1102
788.175	978
788.433	865
788.691	779
788.949	721
789.207	701
789.465	604
789.723	581
789.98	536
790.238	556
790.496	537
790.753	511
791.011	571
791.268	492
791.526	473
791.783	495
792.041	483
792.298	395
792.556	449
792.813	434
793.07	417
793.327	401
793.584	484
793.841	410
794.099	423
794.356	472
794.613	380
794.869	434
795.126	387
795.383	368
795.64	383
795.897	341
796.153	398
796.41	378
796.667	360
796.923	373
797.18	369
797.436	386
797.693	348
797.949	393
798.206	419
798.462	343
798.718	415
798.974	355
799.231	414
799.487	386
799.743	402
799.999	419
800.255	402
800.511	377
800.767	409
801.023	387
801.279	403
801.534	411
801.79	436
802.046	420
802.302	478
802.557	469
802.813	508
803.068	517
803.324	652
803.579	753
803.835	901
804.09	1221
804.345	1482
804.601	1835
804.856	2217
805.111	2556
805.366	2771
805.621	2891
805.876	2979
806.131	3062
806.386	3069
806.641	3090
806.896	3149
807.151	3339
807.406	3256
807.661	3355
807.915	3401
808.17	3450
808.425	3503
808.679	3531
808.934	3600
809.188	3602
809.443	3691
809.697	3722
809.951	3695
810.206	3750
810.46	3818
810.714	3836
810.968	3897
811.223	3836
811.477	3922
811.731	3971
811.985	3963
812.239	3976
812.493	4023
812.747	4028
813	3994
813.254	4071
813.508	4092
813.762	4083
814.015	4124
814.269	4147
814.522	4220
814.776	4262
815.03	4294
815.283	4366
815.536	4433
815.79	4503
816.043	4614
816.296	4679
816.55	4668
816.803	4745
817.056	4863
817.309	4862
817.562	4891
817.815	4977
818.068	4975
818.321	5033
818.574	5077
818.827	5215
819.079	5273
819.332	5499
819.585	5448
819.838	5627
820.09	5464
820.343	5649
820.595	5611
820.848	5667
821.1	5702
821.353	5696
821.605	5626
821.857	5751
822.11	5620
822.362	5650
822.614	5591
822.866	5673
823.118	5631
823.37	5799
823.622	5791
823.874	5779
824.126	5787
824.378	5732
824.63	5883
824.882	5904
825.134	5859
825.385	5795
825.637	5729
825.888	5765
826.14	5711
826.392	5678
826.643	5637
826.895	5671
827.146	5603
827.397	5628
827.649	5668
827.9	5605
828.151	5608
828.402	5659
828.653	5708
828.905	5685
829.156	5723
829.407	5614
829.658	5651
829.909	5729
830.159	5687
830.41	5704
830.661	5673
830.912	5655
831.162	5582
831.413	5599
831.664	5713
831.914	5622
832.165	5629
832.415	5617
832.666	5614
832.916	5649
833.167	5591
833.417	5670
833.667	5678
833.917	5577
834.168	5654
834.418	5666
834.668	5659
834.918	5576
835.168	5554
835.418	5504
835.668	5578
835.918	5540
836.167	5568
836.417	5466
836.667	5518
836.917	5527
837.166	5476
837.416	5507
837.666	5480
837.915	5420
838.165	5407
838.414	5362
838.663	5367
838.913	5394
839.162	5394
839.411	5445
839.661	5365
839.91	5384
840.159	5353
840.408	5417
840.657	5424
840.906	5440
841.155	5403
841.404	5439
841.653	5460
841.902	5429
842.15	5389
842.399	5445
842.648	5420
842.897	5426
843.145	5345
843.394	5288
843.642	5319
843.891	5334
844.139	5249
844.388	5209
844.636	5168
844.884	5279
845.133	5168
845.381	5171
845.629	5219
845.877	5208
846.125	5197
846.373	5202
846.621	5134
846.869	5184
847.117	5126
847.365	5109
847.613	5094
847.861	5123
848.108	5136
848.356	5113
848.604	5106
848.851	5114
849.099	5104
849.346	5163
849.594	5206
849.841	5277
850.089	5227
850.336	5258
850.583	5309
850.831	5328
851.078	5370
851.325	5363
851.572	5459
851.819	5306
852.066	5160
852.313	4974
852.56	4897
852.807	4889
853.054	4835
853.301	4898
853.548	4955
853.794	5086
854.041	5029
854.288	5024
854.534	5113
854.781	5071
855.028	4998
855.274	5081
855.52	4990
855.767	4968
856.013	4994
856.26	5258
856.506	4935
856.752	4957
856.998	4950
857.244	4910
857.49	4986
857.736	5013
857.982	4977
858.228	4935
858.474	4901
858.72	4849
858.966	4902
859.212	4819
859.458	4769
859.703	4714
859.949	4622
860.195	4717
860.44	4654
860.686	4618
860.931	4661
861.177	4581
861.422	4618
861.667	4548
861.913	4566
862.158	4567
862.403	4619
862.648	4643
862.893	4695
863.138	4616
863.384	4582
863.629	4648
863.873	4615
864.118	4571
864.363	4532
864.608	4583
864.853	4577
865.098	4542
865.342	4550
865.587	4482
865.832	4537
866.076	4566
866.321	4437
866.565	4459
866.81	4401
867.054	4462
867.298	4461
867.543	4357
867.787	4456
868.031	4449
868.275	4447
868.519	4401
868.764	4393
869.008	4404
869.252	4433
869.496	4387
869.739	4404
869.983	4405
870.227	4494
870.471	4397
870.715	4491
870.958	4467
871.202	4422
871.446	4421
871.689	4428
871.933	4436
872.176	4477
872.42	4470
872.663	4452
872.906	4513
873.15	4423
873.393	4386
873.636	4401
873.879	4391
874.122	4387
874.366	4267
874.609	4276
874.852	4225
875.095	4226
875.337	4186
875.58	4084
875.823	4195
876.066	4196
876.309	4209
876.551	4114
876.794	4079
877.037	4137
877.279	4052
877.522	4078
877.764	4097
878.007	4076
878.249	4068
878.491	4104
878.734	4120
878.976	4063
879.218	4008
879.46	4022
879.702	4021
879.945	3958
880.187	3951
880.429	3956
880.671	3860
880.912	3915
881.154	3856
881.396	3850
881.638	3882
881.88	3833
882.121	3823
882.363	3800
882.605	3903
882.846	3841
883.088	3900
883.329	3824
883.571	3801
883.812	3815
884.053	3988
884.295	4051
884.536	4183
884.777	4091
885.018	4103
885.259	4147
885.5	4004
885.742	4212
885.982	4073
886.223	3984
886.464	3904
886.705	3887
886.946	3904
887.187	3791
887.428	3849
887.668	3713
887.909	3646
888.15	3599
888.39	3616
888.631	3652
888.871	3610
889.111	3577
889.352	3550
889.592	3492
889.833	3449
890.073	3444
890.313	3497
890.553	3374
890.793	3427
891.033	3346
891.273	3345
891.513	3348
891.753	3471
891.993	3361
892.233	3410
892.473	3417
892.713	3449
892.952	3406
893.192	3377
893.432	3356
893.671	3484
893.911	3402
894.15	3405
894.39	3300
894.629	3353
894.869	3324
895.108	3308
895.347	3293
895.587	3311
895.826	3317
896.065	3298
896.304	3340
896.543	3323
896.782	3269
897.021	3263
897.26	3340
897.499	3396
897.738	3334
897.977	3339
898.216	3259
898.454	3240
898.693	3216
898.932	3215
899.17	3231
899.409	3240
899.647	3234
899.886	3212
900.124	3254
900.363	3164
900.601	3238
900.839	3223
901.078	3289
901.316	3276
901.554	3281
901.792	3312
902.03	3280
902.268	3291
902.506	3357
902.744	3264
902.982	3280
903.22	3172
903.458	3129
903.695	3103
903.933	3076
904.171	2984
904.409	2943
904.646	2955
904.884	2874
905.121	2891
905.359	2851
905.596	2836
905.833	2770
906.071	2790
906.308	2829
906.545	2767
906.783	2708
907.02	2750
907.257	2708
907.494	2701
907.731	2738
907.968	2739
908.205	2673
908.442	2685
908.679	2660
908.915	2654
909.152	2656
909.389	2547
909.626	2579
909.862	2530
910.099	2547
910.335	2589
910.572	2471
910.808	2545
911.045	2517
911.281	2465
911.518	2572
911.754	2478
911.99	2498
912.226	2438
912.463	2415
912.699	2402
912.935	2423
913.171	2411
913.407	2353
913.643	2436
913.879	2384
914.114	2318
914.35	2315
914.586	2308
914.822	2290
915.057	2333
915.293	2233
915.529	2222
915.764	2295
916	2272
916.235	2254
916.471	2290
916.706	2206
916.941	2231
917.177	2212
917.412	2272
917.647	2276
917.882	2225
918.117	2250
918.352	2230
918.588	2283
918.823	2206
919.057	2205
919.292	2082
919.527	2182
919.762	2113
919.997	2171
920.232	2097
920.466	2138
920.701	1996
920.935	2053
921.17	2031
921.405	2015
921.639	2058
921.873	1999
922.108	2072
922.342	2065
922.576	2016
922.811	1989
923.045	2056
923.279	2066
923.513	1955
923.747	2048
923.981	2016
924.215	1964
924.449	1960
924.683	1881
924.917	1931
925.151	1951
925.385	1996
925.618	1949
925.852	1945
926.086	1868
926.319	1937
926.553	1935
926.786	1941
927.02	1933
927.253	1979
927.486	1952
927.72	1897
927.953	1943
928.186	1905
928.42	1940
928.653	1886
928.886	1857
929.119	1907
929.352	1876
929.585	1900
929.818	1864
930.051	1868
930.284	1874
930.516	1775
930.749	1820
930.982	1860
931.215	1841
931.447	1745
931.68	1791
931.912	1793
932.145	1776
932.377	1815
932.61	1950
932.842	1728
933.074	1812
933.307	1759
933.539	1866
933.771	1823
934.003	1774
934.236	1885
934.468	1868
934.7	1785
934.932	1849
935.164	1763
935.395	1789
935.627	1782
935.859	1792
936.091	1774
936.323	1811
936.554	1837
936.786	1782
937.017	1712
937.249	1757
937.481	1735
937.712	1792
937.943	1731
938.175	1730
938.406	1774
938.637	1795
938.869	1702
939.1	1764
939.331	1704
939.562	1736
939.793	1787
940.024	1772
940.255	1804
940.486	1734
940.717	1715
940.948	1729
941.179	1677
941.409	1697
941.64	1695
941.871	1696
942.102	1679
942.332	1683
942.563	1733
942.793	1682
943.024	1664
943.254	1721
943.484	1734
943.715	1770
943.945	1725
944.175	1652
944.405	1619
944.636	1665
944.866	1674
945.096	1714
945.326	1627
945.556	1715
945.786	1702
946.016	1676
946.245	1616
946.475	1623
946.705	1616
946.935	1678
947.164	1657
947.394	1603
947.624	1643
947.853	1656
948.083	1647
948.312	1628
948.542	1560
948.771	1557
949	1564
949.23	1597
949.459	1618
949.688	1653
949.917	1574
950.146	1602
950.375	1650
950.604	1569
950.833	1645
951.062	1636
951.291	1620
951.52	1558
951.749	1571
951.978	1531
952.206	1557
952.435	1547
952.664	1593
952.892	1587
953.121	1578
953.349	1595
953.578	1597
953.806	1547
954.035	1526
954.263	1534
954.491	1493
954.719	1541
954.948	1535
955.176	1490
955.404	1428
955.632	1524
955.86	1501
956.088	1539
956.316	1519
956.544	1567
956.772	1502
956.999	1486
957.227	1570
957.455	1445
957.683	1496
957.91	1469
958.138	1470
958.365	1476
958.593	1443
958.82	1400
959.048	1510
959.275	1427
959.502	1438
959.73	1421
959.957	1468
960.184	1506
960.411	1457
960.638	1534
960.865	1453
961.092	1505
961.319	1369
961.546	1467
961.773	1499
962	1414
962.227	1483
962.454	1442
962.68	1429
962.907	1448
963.134	1405
963.36	1416
963.587	1462
963.813	1368
964.04	1449
964.266	1376
964.493	1472
964.719	1433
964.945	1452
965.171	1340
965.398	1419
965.624	1406
965.85	1348
966.076	1359
966.302	1381
966.528	1367
966.754	1402
966.98	1396
967.206	1371
967.431	1327
967.657	1421
967.883	1397
968.109	1382
968.334	1329
968.56	1311
968.785	1338
969.011	1316
969.236	1377
969.462	1323
969.687	1336
969.912	1382
970.138	1380
970.363	1339
970.588	1348
970.813	1311
971.038	1290
971.263	1300
971.488	1339
971.713	1364
971.938	1377
972.163	1248
972.388	1298
972.613	1261
972.838	1278
973.062	1269
973.287	1274
973.512	1210
973.736	1286
973.961	1253
974.185	1230
974.41	1277
974.634	1222
974.858	1225
975.083	1267
975.307	1305
975.531	1226
975.755	1155
975.98	1201
976.204	1163
976.428	1151
976.652	1169
976.876	1147
977.1	1182
977.324	1151
977.547	1207
977.771	1227
977.995	1194
978.219	1128
978.442	1238
978.666	1187
978.89	1196
979.113	1190
979.337	1164
979.56	1142
979.783	1225
980.007	1116
980.23	1161
980.453	1121
980.677	1159
980.9	1163
981.123	1090
981.346	1162
981.569	1161
981.792	1184
982.015	1145
982.238	1117
982.461	1124
982.684	1077
982.907	1095
983.129	1105
983.352	1138
983.575	1106
983.797	1136
984.02	1088
984.242	1093
984.465	1079
984.687	1143
984.91	1158
985.132	1134
985.354	1142
985.577	1130
985.799	1128
986.021	1041
986.243	1082
986.465	1096
986.687	1117
986.909	1170
987.131	1109
987.353	1099
987.575	1137
987.797	1090
988.019	1018
988.241	1116
988.462	1052
988.684	1125
988.906	1175
989.127	1162
989.349	1029
989.57	1081
989.792	1119
990.013	1137
990.234	1130
990.456	1160
990.677	1130
990.898	1085
991.119	1101
991.341	1136
991.562	1034
991.783	1113
992.004	1045
992.225	1034
992.446	1071
992.667	993
992.887	1073
993.108	1001
993.329	1139
993.55	1070
993.77	995
993.991	1018
994.212	1078
994.432	1054
994.653	1088
994.873	1069
995.093	936
995.314	999
995.534	1079
995.754	1100
995.975	1099
996.195	1007
996.415	1073
996.635	1034
996.855	1062
997.075	1014
997.295	1038
997.515	1033
997.735	1059
997.955	1031
998.174	1022
998.394	993
998.614	1077
998.834	1023
999.053	1076
999.273	1040
999.492	1110
999.712	1060
999.931	1027
1000.151	1072
1000.37	1048
1000.589	1101
1000.809	1009
1001.028	1150
1001.247	1068
1001.466	970
1001.685	1135
1001.904	1072
1002.123	1080
1002.342	1095
1002.561	1042
1002.78	1083
1002.999	1123
1003.218	1079
1003.436	1049
1003.655	1109
1003.874	1049
1004.092	1061
1004.311	1148
1004.53	1064
1004.748	1166
1004.966	1073
1005.185	1126
1005.403	1119
1005.622	1113
1005.84	1180
1006.058	1085
1006.276	1105
1006.494	1576
1006.712	1100
1006.931	1163
1007.149	1071
1007.367	1072
1007.584	1133
1007.802	1126
1008.02	1092
1008.238	1191
1008.456	1141
1008.673	1043
1008.891	1146
1009.109	1108
1009.326	1139
1009.544	1218
1009.761	1124
1009.979	1193
1010.196	1183
1010.413	1261
1010.631	1272
1010.848	1313
1011.065	1327
1011.282	1275
1011.5	1219
1011.717	1314
1011.934	1267
1012.151	1306
1012.368	1304
1012.585	1244
1012.801	1276
1013.018	1237
1013.235	1223
1013.452	1235
1013.669	1250
1013.885	1249
1014.102	1284
1014.318	1245
1014.535	1181
1014.751	1233
1014.968	1240
1015.184	1268
1015.401	1192
1015.617	1220
1015.833	1161
1016.049	1205
1016.266	1196
1016.482	1184
1016.698	1131
1016.914	1179
1017.13	1140
1017.346	1131
1017.562	1210
1017.778	1140
1017.993	1092
1018.209	1190
1018.425	1155
1018.641	1116
1018.856	1096
1019.072	1144
1019.288	1200
1019.503	1158
1019.719	1052
1019.934	1067
1020.149	1151
1020.365	1095
1020.58	1037
1020.795	1110
1021.011	1051
1021.226	1032
1021.441	1064
1021.656	991
1021.871	947
1022.086	964
1022.301	951
1022.516	948
1022.731	1010
1022.946	899
1023.16	900
1023.375	879
1023.59	860
1023.804	849
1024.019	945
1024.234	825
1024.448	855
1024.663	801
1024.877	853
1025.092	823
1025.306	858
1025.52	754
1025.734	855
1025.949	762
1026.163	743
1026.377	707
1026.591	760
1026.805	685
1027.019	692
1027.233	650
1027.447	610
1027.661	714
1027.875	647
1028.088	667
1028.302	597
1028.516	591
1028.73	604
1028.943	589
1029.157	550
1029.37	522
1029.584	2
1029.797	-1
1030.011	-3
1030.224	-6
