Data from QEP037381__297__11-10-06-590.txt Node

Date: Wed Dec 21 11:10:06 EST 2022
User: dcclab
Spectrometer: QEP03738
Trigger mode: 4
Integration Time (sec): 1.000000E1
Scans to average: 1
Electric dark correction enabled: true
Nonlinearity correction enabled: false
Boxcar width: 0
XAxis mode: Wavelengths
Number of Pixels in Spectrum: 1044
>>>>>Begin Spectral Data<<<<<
784.041	14.75
784.3	-0.25
784.558	-6.25
784.817	-5.25
785.075	96447.75
785.334	16185.75
785.592	7458.75
785.851	5133.75
786.109	3888.75
786.368	2997.75
786.626	2418.75
786.884	2060.75
787.143	1690.75
787.401	1423.75
787.659	1303.75
787.917	1115.75
788.175	1011.75
788.433	883.75
788.691	786.75
788.949	715.75
789.207	684.75
789.465	616.75
789.723	586.75
789.98	540.75
790.238	556.75
790.496	540.75
790.753	501.75
791.011	549.75
791.268	498.75
791.526	480.75
791.783	487.75
792.041	485.75
792.298	374.75
792.556	461.75
792.813	448.75
793.07	423.75
793.327	395.75
793.584	485.75
793.841	411.75
794.099	423.75
794.356	470.75
794.613	382.75
794.869	421.75
795.126	372.75
795.383	378.75
795.64	394.75
795.897	344.75
796.153	396.75
796.41	374.75
796.667	349.75
796.923	365.75
797.18	366.75
797.436	401.75
797.693	352.75
797.949	411.75
798.206	420.75
798.462	334.75
798.718	394.75
798.974	380.75
799.231	397.75
799.487	399.75
799.743	406.75
799.999	416.75
800.255	405.75
800.511	368.75
800.767	406.75
801.023	381.75
801.279	393.75
801.534	413.75
801.79	429.75
802.046	408.75
802.302	477.75
802.557	459.75
802.813	522.75
803.068	520.75
803.324	640.75
803.579	758.75
803.835	914.75
804.09	1203.75
804.345	1489.75
804.601	1834.75
804.856	2210.75
805.111	2475.75
805.366	2669.75
805.621	2820.75
805.876	2930.75
806.131	2985.75
806.386	3014.75
806.641	3006.75
806.896	3094.75
807.151	3197.75
807.406	3219.75
807.661	3255.75
807.915	3327.75
808.17	3366.75
808.425	3386.75
808.679	3431.75
808.934	3522.75
809.188	3538.75
809.443	3577.75
809.697	3631.75
809.951	3634.75
810.206	3642.75
810.46	3744.75
810.714	3738.75
810.968	3800.75
811.223	3728.75
811.477	3830.75
811.731	3876.75
811.985	3845.75
812.239	3853.75
812.493	3895.75
812.747	3975.75
813	3863.75
813.254	3977.75
813.508	4017.75
813.762	3978.75
814.015	4002.75
814.269	4035.75
814.522	4124.75
814.776	4142.75
815.03	4254.75
815.283	4231.75
815.536	4289.75
815.79	4384.75
816.043	4404.75
816.296	4502.75
816.55	4535.75
816.803	4604.75
817.056	4762.75
817.309	4729.75
817.562	4749.75
817.815	4801.75
818.068	4828.75
818.321	4858.75
818.574	4945.75
818.827	5055.75
819.079	5123.75
819.332	5280.75
819.585	5279.75
819.838	5417.75
820.09	5364.75
820.343	5451.75
820.595	5367.75
820.848	5423.75
821.1	5466.75
821.353	5448.75
821.605	5483.75
821.857	5535.75
822.11	5427.75
822.362	5437.75
822.614	5401.75
822.866	5447.75
823.118	5463.75
823.37	5522.75
823.622	5512.75
823.874	5535.75
824.126	5624.75
824.378	5545.75
824.63	5620.75
824.882	5676.75
825.134	5538.75
825.385	5617.75
825.637	5532.75
825.888	5504.75
826.14	5511.75
826.392	5477.75
826.643	5413.75
826.895	5464.75
827.146	5413.75
827.397	5416.75
827.649	5464.75
827.9	5331.75
828.151	5352.75
828.402	5413.75
828.653	5353.75
828.905	5431.75
829.156	5462.75
829.407	5455.75
829.658	5463.75
829.909	5498.75
830.159	5537.75
830.41	5452.75
830.661	5442.75
830.912	5399.75
831.162	5382.75
831.413	5392.75
831.664	5437.75
831.914	5417.75
832.165	5405.75
832.415	5418.75
832.666	5474.75
832.916	5497.75
833.167	5427.75
833.417	5459.75
833.667	5460.75
833.917	5374.75
834.168	5458.75
834.418	5431.75
834.668	5402.75
834.918	5346.75
835.168	5351.75
835.418	5301.75
835.668	5281.75
835.918	5320.75
836.167	5327.75
836.417	5285.75
836.667	5344.75
836.917	5302.75
837.166	5271.75
837.416	5262.75
837.666	5272.75
837.915	5252.75
838.165	5254.75
838.414	5185.75
838.663	5154.75
838.913	5196.75
839.162	5199.75
839.411	5262.75
839.661	5202.75
839.91	5206.75
840.159	5153.75
840.408	5257.75
840.657	5264.75
840.906	5260.75
841.155	5302.75
841.404	5202.75
841.653	5246.75
841.902	5202.75
842.15	5273.75
842.399	5277.75
842.648	5274.75
842.897	5240.75
843.145	5182.75
843.394	5139.75
843.642	5116.75
843.891	5147.75
844.139	5077.75
844.388	5035.75
844.636	5025.75
844.884	5077.75
845.133	5048.75
845.381	4998.75
845.629	5051.75
845.877	5029.75
846.125	5036.75
846.373	5067.75
846.621	4989.75
846.869	5014.75
847.117	4999.75
847.365	4976.75
847.613	4972.75
847.861	4956.75
848.108	4986.75
848.356	4969.75
848.604	4922.75
848.851	4943.75
849.099	4943.75
849.346	5009.75
849.594	5056.75
849.841	5096.75
850.089	5081.75
850.336	5066.75
850.583	5164.75
850.831	5206.75
851.078	5176.75
851.325	5199.75
851.572	5308.75
851.819	5181.75
852.066	4930.75
852.313	4855.75
852.56	4729.75
852.807	4713.75
853.054	4712.75
853.301	4769.75
853.548	4780.75
853.794	4918.75
854.041	4880.75
854.288	4877.75
854.534	4977.75
854.781	4876.75
855.028	4858.75
855.274	4957.75
855.52	4868.75
855.767	4818.75
856.013	4847.75
856.26	5202.75
856.506	4794.75
856.752	4850.75
856.998	4802.75
857.244	4775.75
857.49	4853.75
857.736	4871.75
857.982	4861.75
858.228	4834.75
858.474	4753.75
858.72	4770.75
858.966	4722.75
859.212	4652.75
859.458	4626.75
859.703	4584.75
859.949	4505.75
860.195	4496.75
860.44	4496.75
860.686	4482.75
860.931	4517.75
861.177	4485.75
861.422	4429.75
861.667	4397.75
861.913	4385.75
862.158	4421.75
862.403	4477.75
862.648	4476.75
862.893	4499.75
863.138	4486.75
863.384	4394.75
863.629	4507.75
863.873	4407.75
864.118	4405.75
864.363	4368.75
864.608	4430.75
864.853	4463.75
865.098	4371.75
865.342	4414.75
865.587	4282.75
865.832	4378.75
866.076	4389.75
866.321	4283.75
866.565	4313.75
866.81	4322.75
867.054	4325.75
867.298	4291.75
867.543	4234.75
867.787	4343.75
868.031	4279.75
868.275	4252.75
868.519	4329.75
868.764	4324.75
869.008	4304.75
869.252	4332.75
869.496	4302.75
869.739	4340.75
869.983	4344.75
870.227	4326.75
870.471	4336.75
870.715	4361.75
870.958	4373.75
871.202	4376.75
871.446	4358.75
871.689	4402.75
871.933	4399.75
872.176	4376.75
872.42	4372.75
872.663	4307.75
872.906	4383.75
873.15	4380.75
873.393	4291.75
873.636	4404.75
873.879	4362.75
874.122	4325.75
874.366	4198.75
874.609	4187.75
874.852	4144.75
875.095	4137.75
875.337	4110.75
875.58	4055.75
875.823	4068.75
876.066	4070.75
876.309	4169.75
876.551	4047.75
876.794	4021.75
877.037	4065.75
877.279	4009.75
877.522	4008.75
877.764	4017.75
878.007	3959.75
878.249	3983.75
878.491	3970.75
878.734	4014.75
878.976	3973.75
879.218	3882.75
879.46	3966.75
879.702	3914.75
879.945	3871.75
880.187	3727.75
880.429	3803.75
880.671	3780.75
880.912	3830.75
881.154	3780.75
881.396	3671.75
881.638	3755.75
881.88	3757.75
882.121	3703.75
882.363	3733.75
882.605	3782.75
882.846	3753.75
883.088	3795.75
883.329	3740.75
883.571	3741.75
883.812	3854.75
884.053	3987.75
884.295	4060.75
884.536	4251.75
884.777	4165.75
885.018	4187.75
885.259	4126.75
885.5	4095.75
885.742	4269.75
885.982	4073.75
886.223	3982.75
886.464	3959.75
886.705	3844.75
886.946	3796.75
887.187	3685.75
887.428	3721.75
887.668	3577.75
887.909	3535.75
888.15	3515.75
888.39	3536.75
888.631	3541.75
888.871	3481.75
889.111	3439.75
889.352	3426.75
889.592	3378.75
889.833	3347.75
890.073	3351.75
890.313	3374.75
890.553	3248.75
890.793	3312.75
891.033	3252.75
891.273	3264.75
891.513	3236.75
891.753	3268.75
891.993	3216.75
892.233	3302.75
892.473	3299.75
892.713	3311.75
892.952	3238.75
893.192	3340.75
893.432	3286.75
893.671	3324.75
893.911	3308.75
894.15	3280.75
894.39	3185.75
894.629	3233.75
894.869	3237.75
895.108	3224.75
895.347	3173.75
895.587	3212.75
895.826	3191.75
896.065	3176.75
896.304	3225.75
896.543	3206.75
896.782	3136.75
897.021	3181.75
897.26	3222.75
897.499	3249.75
897.738	3276.75
897.977	3268.75
898.216	3192.75
898.454	3167.75
898.693	3170.75
898.932	3157.75
899.17	3134.75
899.409	3139.75
899.647	3139.75
899.886	3084.75
900.124	3178.75
900.363	3174.75
900.601	3156.75
900.839	3203.75
901.078	3238.75
901.316	3258.75
901.554	3258.75
901.792	3293.75
902.03	3276.75
902.268	3342.75
902.506	3370.75
902.744	3277.75
902.982	3276.75
903.22	3197.75
903.458	3127.75
903.695	3079.75
903.933	2990.75
904.171	2928.75
904.409	2880.75
904.646	2896.75
904.884	2815.75
905.121	2851.75
905.359	2767.75
905.596	2726.75
905.833	2682.75
906.071	2656.75
906.308	2685.75
906.545	2665.75
906.783	2643.75
907.02	2621.75
907.257	2590.75
907.494	2626.75
907.731	2610.75
907.968	2638.75
908.205	2559.75
908.442	2580.75
908.679	2589.75
908.915	2554.75
909.152	2536.75
909.389	2443.75
909.626	2461.75
909.862	2422.75
910.099	2454.75
910.335	2503.75
910.572	2395.75
910.808	2446.75
911.045	2408.75
911.281	2369.75
911.518	2484.75
911.754	2391.75
911.99	2381.75
912.226	2358.75
912.463	2326.75
912.699	2313.75
912.935	2323.75
913.171	2324.75
913.407	2303.75
913.643	2327.75
913.879	2264.75
914.114	2258.75
914.35	2215.75
914.586	2225.75
914.822	2170.75
915.057	2253.75
915.293	2107.75
915.529	2137.75
915.764	2201.75
916	2205.75
916.235	2156.75
916.471	2195.75
916.706	2083.75
916.941	2126.75
917.177	2104.75
917.412	2165.75
917.647	2217.75
917.882	2127.75
918.117	2150.75
918.352	2154.75
918.588	2170.75
918.823	2082.75
919.057	2117.75
919.292	2004.75
919.527	2117.75
919.762	2058.75
919.997	2111.75
920.232	2023.75
920.466	2062.75
920.701	1962.75
920.935	1997.75
921.17	1959.75
921.405	1950.75
921.639	2002.75
921.873	1962.75
922.108	2003.75
922.342	1995.75
922.576	1918.75
922.811	1911.75
923.045	1970.75
923.279	2004.75
923.513	1870.75
923.747	1978.75
923.981	1915.75
924.215	1910.75
924.449	1882.75
924.683	1872.75
924.917	1871.75
925.151	1864.75
925.385	1919.75
925.618	1888.75
925.852	1876.75
926.086	1799.75
926.319	1875.75
926.553	1834.75
926.786	1874.75
927.02	1865.75
927.253	1890.75
927.486	1888.75
927.72	1816.75
927.953	1865.75
928.186	1814.75
928.42	1845.75
928.653	1797.75
928.886	1795.75
929.119	1864.75
929.352	1807.75
929.585	1843.75
929.818	1747.75
930.051	1779.75
930.284	1786.75
930.516	1720.75
930.749	1733.75
930.982	1787.75
931.215	1792.75
931.447	1700.75
931.68	1744.75
931.912	1710.75
932.145	1748.75
932.377	1779.75
932.61	1852.75
932.842	1680.75
933.074	1751.75
933.307	1710.75
933.539	1799.75
933.771	1799.75
934.003	1739.75
934.236	1806.75
934.468	1849.75
934.7	1767.75
934.932	1795.75
935.164	1743.75
935.395	1696.75
935.627	1729.75
935.859	1742.75
936.091	1697.75
936.323	1761.75
936.554	1782.75
936.786	1738.75
937.017	1690.75
937.249	1691.75
937.481	1666.75
937.712	1745.75
937.943	1674.75
938.175	1691.75
938.406	1679.75
938.637	1798.75
938.869	1643.75
939.1	1724.75
939.331	1680.75
939.562	1730.75
939.793	1690.75
940.024	1724.75
940.255	1747.75
940.486	1664.75
940.717	1673.75
940.948	1662.75
941.179	1614.75
941.409	1638.75
941.64	1644.75
941.871	1667.75
942.102	1639.75
942.332	1641.75
942.563	1703.75
942.793	1692.75
943.024	1600.75
943.254	1624.75
943.484	1687.75
943.715	1680.75
943.945	1689.75
944.175	1628.75
944.405	1611.75
944.636	1601.75
944.866	1660.75
945.096	1674.75
945.326	1578.75
945.556	1648.75
945.786	1674.75
946.016	1641.75
946.245	1573.75
946.475	1605.75
946.705	1575.75
946.935	1633.75
947.164	1624.75
947.394	1577.75
947.624	1583.75
947.853	1623.75
948.083	1598.75
948.312	1553.75
948.542	1537.75
948.771	1535.75
949	1527.75
949.23	1551.75
949.459	1525.75
949.688	1599.75
949.917	1540.75
950.146	1590.75
950.375	1624.75
950.604	1501.75
950.833	1618.75
951.062	1619.75
951.291	1573.75
951.52	1520.75
951.749	1561.75
951.978	1524.75
952.206	1516.75
952.435	1522.75
952.664	1571.75
952.892	1566.75
953.121	1534.75
953.349	1576.75
953.578	1524.75
953.806	1526.75
954.035	1479.75
954.263	1522.75
954.491	1473.75
954.719	1514.75
954.948	1471.75
955.176	1483.75
955.404	1401.75
955.632	1499.75
955.86	1488.75
956.088	1480.75
956.316	1507.75
956.544	1534.75
956.772	1445.75
956.999	1457.75
957.227	1511.75
957.455	1427.75
957.683	1450.75
957.91	1419.75
958.138	1407.75
958.365	1423.75
958.593	1422.75
958.82	1363.75
959.048	1435.75
959.275	1424.75
959.502	1412.75
959.73	1425.75
959.957	1440.75
960.184	1478.75
960.411	1418.75
960.638	1470.75
960.865	1400.75
961.092	1465.75
961.319	1339.75
961.546	1424.75
961.773	1438.75
962	1371.75
962.227	1428.75
962.454	1416.75
962.68	1386.75
962.907	1414.75
963.134	1365.75
963.36	1408.75
963.587	1444.75
963.813	1381.75
964.04	1398.75
964.266	1353.75
964.493	1420.75
964.719	1398.75
964.945	1417.75
965.171	1321.75
965.398	1385.75
965.624	1382.75
965.85	1320.75
966.076	1328.75
966.302	1365.75
966.528	1314.75
966.754	1358.75
966.98	1383.75
967.206	1357.75
967.431	1292.75
967.657	1385.75
967.883	1353.75
968.109	1339.75
968.334	1307.75
968.56	1279.75
968.785	1315.75
969.011	1264.75
969.236	1321.75
969.462	1279.75
969.687	1298.75
969.912	1337.75
970.138	1351.75
970.363	1269.75
970.588	1313.75
970.813	1289.75
971.038	1263.75
971.263	1313.75
971.488	1304.75
971.713	1326.75
971.938	1305.75
972.163	1222.75
972.388	1265.75
972.613	1240.75
972.838	1269.75
973.062	1257.75
973.287	1256.75
973.512	1196.75
973.736	1256.75
973.961	1240.75
974.185	1223.75
974.41	1281.75
974.634	1177.75
974.858	1194.75
975.083	1241.75
975.307	1234.75
975.531	1175.75
975.755	1144.75
975.98	1162.75
976.204	1142.75
976.428	1120.75
976.652	1157.75
976.876	1129.75
977.1	1146.75
977.324	1114.75
977.547	1187.75
977.771	1175.75
977.995	1139.75
978.219	1111.75
978.442	1219.75
978.666	1137.75
978.89	1156.75
979.113	1163.75
979.337	1156.75
979.56	1135.75
979.783	1221.75
980.007	1107.75
980.23	1155.75
980.453	1109.75
980.677	1149.75
980.9	1117.75
981.123	1048.75
981.346	1160.75
981.569	1140.75
981.792	1172.75
982.015	1113.75
982.238	1095.75
982.461	1118.75
982.684	1103.75
982.907	1070.75
983.129	1047.75
983.352	1119.75
983.575	1092.75
983.797	1101.75
984.02	1073.75
984.242	1073.75
984.465	1078.75
984.687	1137.75
984.91	1128.75
985.132	1115.75
985.354	1131.75
985.577	1095.75
985.799	1114.75
986.021	1040.75
986.243	1054.75
986.465	1066.75
986.687	1098.75
986.909	1166.75
987.131	1081.75
987.353	1057.75
987.575	1107.75
987.797	1056.75
988.019	1024.75
988.241	1083.75
988.462	1041.75
988.684	1103.75
988.906	1123.75
989.127	1137.75
989.349	1041.75
989.57	1083.75
989.792	1118.75
990.013	1120.75
990.234	1120.75
990.456	1162.75
990.677	1113.75
990.898	1079.75
991.119	1084.75
991.341	1117.75
991.562	1069.75
991.783	1090.75
992.004	1023.75
992.225	1021.75
992.446	1074.75
992.667	1003.75
992.887	1070.75
993.108	975.75
993.329	1102.75
993.55	1056.75
993.77	1039.75
993.991	1017.75
994.212	1066.75
994.432	1044.75
994.653	1078.75
994.873	1067.75
995.093	953.75
995.314	1006.75
995.534	1083.75
995.754	1080.75
995.975	1112.75
996.195	1012.75
996.415	1095.75
996.635	1050.75
996.855	1059.75
997.075	1037.75
997.295	1024.75
997.515	1041.75
997.735	1081.75
997.955	1051.75
998.174	1028.75
998.394	1013.75
998.614	1065.75
998.834	1012.75
999.053	1100.75
999.273	1053.75
999.492	1121.75
999.712	1057.75
999.931	1010.75
1000.151	1052.75
1000.37	1047.75
1000.589	1122.75
1000.809	1038.75
1001.028	1145.75
1001.247	1068.75
1001.466	1005.75
1001.685	1110.75
1001.904	1094.75
1002.123	1063.75
1002.342	1066.75
1002.561	1033.75
1002.78	1078.75
1002.999	1109.75
1003.218	1068.75
1003.436	1053.75
1003.655	1100.75
1003.874	1041.75
1004.092	1077.75
1004.311	1115.75
1004.53	1082.75
1004.748	1149.75
1004.966	1072.75
1005.185	1151.75
1005.403	1123.75
1005.622	1124.75
1005.84	1157.75
1006.058	1078.75
1006.276	1120.75
1006.494	1605.75
1006.712	1104.75
1006.931	1181.75
1007.149	1080.75
1007.367	1088.75
1007.584	1162.75
1007.802	1152.75
1008.02	1109.75
1008.238	1213.75
1008.456	1208.75
1008.673	1084.75
1008.891	1204.75
1009.109	1110.75
1009.326	1195.75
1009.544	1290.75
1009.761	1201.75
1009.979	1283.75
1010.196	1287.75
1010.413	1415.75
1010.631	1432.75
1010.848	1471.75
1011.065	1465.75
1011.282	1437.75
1011.5	1374.75
1011.717	1491.75
1011.934	1419.75
1012.151	1465.75
1012.368	1461.75
1012.585	1396.75
1012.801	1478.75
1013.018	1434.75
1013.235	1393.75
1013.452	1407.75
1013.669	1428.75
1013.885	1411.75
1014.102	1458.75
1014.318	1423.75
1014.535	1381.75
1014.751	1424.75
1014.968	1426.75
1015.184	1451.75
1015.401	1393.75
1015.617	1407.75
1015.833	1353.75
1016.049	1371.75
1016.266	1338.75
1016.482	1357.75
1016.698	1287.75
1016.914	1338.75
1017.13	1311.75
1017.346	1301.75
1017.562	1360.75
1017.778	1307.75
1017.993	1264.75
1018.209	1352.75
1018.425	1349.75
1018.641	1275.75
1018.856	1263.75
1019.072	1314.75
1019.288	1336.75
1019.503	1296.75
1019.719	1246.75
1019.934	1246.75
1020.149	1310.75
1020.365	1265.75
1020.58	1210.75
1020.795	1261.75
1021.011	1204.75
1021.226	1176.75
1021.441	1205.75
1021.656	1132.75
1021.871	1073.75
1022.086	1087.75
1022.301	1035.75
1022.516	1067.75
1022.731	1111.75
1022.946	1000.75
1023.16	1002.75
1023.375	965.75
1023.59	945.75
1023.804	951.75
1024.019	1025.75
1024.234	908.75
1024.448	947.75
1024.663	869.75
1024.877	886.75
1025.092	906.75
1025.306	913.75
1025.52	809.75
1025.734	904.75
1025.949	803.75
1026.163	812.75
1026.377	735.75
1026.591	805.75
1026.805	731.75
1027.019	727.75
1027.233	695.75
1027.447	656.75
1027.661	757.75
1027.875	696.75
1028.088	700.75
1028.302	650.75
1028.516	627.75
1028.73	631.75
1028.943	639.75
1029.157	577.75
1029.37	545.75
1029.584	-0.25
1029.797	1.75
1030.011	-1.25
1030.224	-3.25
