Data from QEP037381__264__11-04-36-589.txt Node

Date: Wed Dec 21 11:04:36 EST 2022
User: dcclab
Spectrometer: QEP03738
Trigger mode: 4
Integration Time (sec): 1.000000E1
Scans to average: 1
Electric dark correction enabled: true
Nonlinearity correction enabled: false
Boxcar width: 0
XAxis mode: Wavelengths
Number of Pixels in Spectrum: 1044
>>>>>Begin Spectral Data<<<<<
784.041	12.5
784.3	-0.5
784.558	-4.5
784.817	-0.5
785.075	90737.5
785.334	16065.5
785.592	7677.5
785.851	5265.5
786.109	3943.5
786.368	3112.5
786.626	2491.5
786.884	2066.5
787.143	1727.5
787.401	1409.5
787.659	1287.5
787.917	1097.5
788.175	989.5
788.433	887.5
788.691	783.5
788.949	721.5
789.207	716.5
789.465	612.5
789.723	571.5
789.98	529.5
790.238	582.5
790.496	548.5
790.753	501.5
791.011	568.5
791.268	500.5
791.526	491.5
791.783	491.5
792.041	465.5
792.298	391.5
792.556	465.5
792.813	452.5
793.07	426.5
793.327	390.5
793.584	475.5
793.841	414.5
794.099	417.5
794.356	472.5
794.613	380.5
794.869	419.5
795.126	381.5
795.383	368.5
795.64	385.5
795.897	348.5
796.153	397.5
796.41	377.5
796.667	362.5
796.923	370.5
797.18	373.5
797.436	390.5
797.693	348.5
797.949	401.5
798.206	421.5
798.462	344.5
798.718	399.5
798.974	363.5
799.231	412.5
799.487	388.5
799.743	370.5
799.999	410.5
800.255	383.5
800.511	366.5
800.767	400.5
801.023	380.5
801.279	399.5
801.534	409.5
801.79	420.5
802.046	392.5
802.302	456.5
802.557	438.5
802.813	485.5
803.068	482.5
803.324	587.5
803.579	671.5
803.835	819.5
804.09	1059.5
804.345	1254.5
804.601	1531.5
804.856	1872.5
805.111	2103.5
805.366	2257.5
805.621	2383.5
805.876	2528.5
806.131	2513.5
806.386	2547.5
806.641	2519.5
806.896	2584.5
807.151	2705.5
807.406	2668.5
807.661	2760.5
807.915	2776.5
808.17	2865.5
808.425	2911.5
808.679	2868.5
808.934	2981.5
809.188	2922.5
809.443	3052.5
809.697	3049.5
809.951	3069.5
810.206	3082.5
810.46	3139.5
810.714	3165.5
810.968	3203.5
811.223	3163.5
811.477	3229.5
811.731	3308.5
811.985	3214.5
812.239	3216.5
812.493	3260.5
812.747	3316.5
813	3257.5
813.254	3281.5
813.508	3346.5
813.762	3334.5
814.015	3335.5
814.269	3373.5
814.522	3452.5
814.776	3465.5
815.03	3535.5
815.283	3523.5
815.536	3638.5
815.79	3630.5
816.043	3677.5
816.296	3769.5
816.55	3807.5
816.803	3827.5
817.056	3997.5
817.309	3964.5
817.562	3996.5
817.815	4062.5
818.068	4008.5
818.321	4059.5
818.574	4114.5
818.827	4226.5
819.079	4206.5
819.332	4428.5
819.585	4396.5
819.838	4538.5
820.09	4424.5
820.343	4551.5
820.595	4481.5
820.848	4578.5
821.1	4563.5
821.353	4549.5
821.605	4576.5
821.857	4617.5
822.11	4497.5
822.362	4505.5
822.614	4473.5
822.866	4564.5
823.118	4508.5
823.37	4591.5
823.622	4574.5
823.874	4583.5
824.126	4703.5
824.378	4648.5
824.63	4668.5
824.882	4682.5
825.134	4621.5
825.385	4637.5
825.637	4614.5
825.888	4574.5
826.14	4569.5
826.392	4527.5
826.643	4461.5
826.895	4515.5
827.146	4445.5
827.397	4482.5
827.649	4527.5
827.9	4414.5
828.151	4430.5
828.402	4437.5
828.653	4471.5
828.905	4496.5
829.156	4562.5
829.407	4464.5
829.658	4501.5
829.909	4557.5
830.159	4574.5
830.41	4553.5
830.661	4546.5
830.912	4489.5
831.162	4499.5
831.413	4421.5
831.664	4526.5
831.914	4483.5
832.165	4448.5
832.415	4538.5
832.666	4482.5
832.916	4492.5
833.167	4462.5
833.417	4537.5
833.667	4478.5
833.917	4435.5
834.168	4482.5
834.418	4467.5
834.668	4493.5
834.918	4414.5
835.168	4447.5
835.418	4425.5
835.668	4395.5
835.918	4452.5
836.167	4396.5
836.417	4382.5
836.667	4362.5
836.917	4385.5
837.166	4359.5
837.416	4356.5
837.666	4398.5
837.915	4306.5
838.165	4361.5
838.414	4314.5
838.663	4231.5
838.913	4319.5
839.162	4283.5
839.411	4370.5
839.661	4219.5
839.91	4289.5
840.159	4274.5
840.408	4358.5
840.657	4351.5
840.906	4345.5
841.155	4393.5
841.404	4304.5
841.653	4355.5
841.902	4317.5
842.15	4356.5
842.399	4332.5
842.648	4359.5
842.897	4330.5
843.145	4182.5
843.394	4217.5
843.642	4211.5
843.891	4211.5
844.139	4191.5
844.388	4134.5
844.636	4061.5
844.884	4129.5
845.133	4075.5
845.381	4110.5
845.629	4209.5
845.877	4184.5
846.125	4137.5
846.373	4147.5
846.621	4088.5
846.869	4175.5
847.117	4104.5
847.365	4068.5
847.613	4089.5
847.861	4088.5
848.108	4095.5
848.356	4033.5
848.604	4048.5
848.851	4051.5
849.099	4104.5
849.346	4136.5
849.594	4129.5
849.841	4197.5
850.089	4212.5
850.336	4236.5
850.583	4215.5
850.831	4309.5
851.078	4287.5
851.325	4346.5
851.572	4379.5
851.819	4295.5
852.066	4081.5
852.313	3973.5
852.56	3885.5
852.807	3905.5
853.054	3861.5
853.301	3938.5
853.548	3949.5
853.794	4088.5
854.041	4031.5
854.288	4026.5
854.534	4126.5
854.781	4067.5
855.028	4011.5
855.274	4068.5
855.52	4021.5
855.767	3944.5
856.013	4057.5
856.26	4299.5
856.506	3917.5
856.752	3979.5
856.998	3935.5
857.244	3920.5
857.49	3961.5
857.736	3990.5
857.982	3998.5
858.228	4001.5
858.474	3887.5
858.72	3880.5
858.966	3907.5
859.212	3846.5
859.458	3788.5
859.703	3766.5
859.949	3688.5
860.195	3717.5
860.44	3738.5
860.686	3662.5
860.931	3752.5
861.177	3674.5
861.422	3706.5
861.667	3585.5
861.913	3657.5
862.158	3594.5
862.403	3665.5
862.648	3677.5
862.893	3724.5
863.138	3690.5
863.384	3648.5
863.629	3659.5
863.873	3669.5
864.118	3631.5
864.363	3553.5
864.608	3596.5
864.853	3679.5
865.098	3615.5
865.342	3611.5
865.587	3556.5
865.832	3608.5
866.076	3628.5
866.321	3529.5
866.565	3549.5
866.81	3492.5
867.054	3519.5
867.298	3572.5
867.543	3475.5
867.787	3577.5
868.031	3509.5
868.275	3537.5
868.519	3504.5
868.764	3513.5
869.008	3509.5
869.252	3558.5
869.496	3537.5
869.739	3535.5
869.983	3563.5
870.227	3539.5
870.471	3533.5
870.715	3566.5
870.958	3636.5
871.202	3533.5
871.446	3594.5
871.689	3554.5
871.933	3606.5
872.176	3541.5
872.42	3567.5
872.663	3530.5
872.906	3604.5
873.15	3574.5
873.393	3550.5
873.636	3597.5
873.879	3544.5
874.122	3528.5
874.366	3455.5
874.609	3454.5
874.852	3421.5
875.095	3415.5
875.337	3357.5
875.58	3310.5
875.823	3327.5
876.066	3330.5
876.309	3386.5
876.551	3303.5
876.794	3240.5
877.037	3285.5
877.279	3234.5
877.522	3267.5
877.764	3305.5
878.007	3266.5
878.249	3276.5
878.491	3220.5
878.734	3245.5
878.976	3242.5
879.218	3171.5
879.46	3265.5
879.702	3194.5
879.945	3179.5
880.187	3112.5
880.429	3111.5
880.671	3069.5
880.912	3106.5
881.154	3113.5
881.396	2993.5
881.638	3113.5
881.88	3075.5
882.121	3041.5
882.363	3085.5
882.605	3168.5
882.846	3083.5
883.088	3144.5
883.329	3091.5
883.571	3090.5
883.812	3150.5
884.053	3228.5
884.295	3340.5
884.536	3504.5
884.777	3426.5
885.018	3407.5
885.259	3424.5
885.5	3333.5
885.742	3546.5
885.982	3309.5
886.223	3245.5
886.464	3190.5
886.705	3151.5
886.946	3144.5
887.187	3008.5
887.428	3095.5
887.668	2963.5
887.909	2907.5
888.15	2863.5
888.39	2884.5
888.631	2922.5
888.871	2853.5
889.111	2827.5
889.352	2774.5
889.592	2762.5
889.833	2762.5
890.073	2741.5
890.313	2783.5
890.553	2674.5
890.793	2728.5
891.033	2673.5
891.273	2632.5
891.513	2679.5
891.753	2729.5
891.993	2677.5
892.233	2698.5
892.473	2780.5
892.713	2721.5
892.952	2689.5
893.192	2712.5
893.432	2672.5
893.671	2744.5
893.911	2706.5
894.15	2706.5
894.39	2601.5
894.629	2672.5
894.869	2683.5
895.108	2625.5
895.347	2629.5
895.587	2634.5
895.826	2612.5
896.065	2615.5
896.304	2670.5
896.543	2715.5
896.782	2601.5
897.021	2645.5
897.26	2655.5
897.499	2726.5
897.738	2716.5
897.977	2717.5
898.216	2648.5
898.454	2643.5
898.693	2590.5
898.932	2633.5
899.17	2606.5
899.409	2589.5
899.647	2590.5
899.886	2577.5
900.124	2637.5
900.363	2584.5
900.601	2655.5
900.839	2639.5
901.078	2667.5
901.316	2662.5
901.554	2691.5
901.792	2709.5
902.03	2728.5
902.268	2722.5
902.506	2756.5
902.744	2677.5
902.982	2716.5
903.22	2616.5
903.458	2559.5
903.695	2552.5
903.933	2485.5
904.171	2439.5
904.409	2377.5
904.646	2412.5
904.884	2306.5
905.121	2374.5
905.359	2285.5
905.596	2289.5
905.833	2215.5
906.071	2258.5
906.308	2272.5
906.545	2209.5
906.783	2120.5
907.02	2194.5
907.257	2160.5
907.494	2167.5
907.731	2183.5
907.968	2187.5
908.205	2128.5
908.442	2127.5
908.679	2124.5
908.915	2116.5
909.152	2133.5
909.389	2051.5
909.626	2040.5
909.862	2003.5
910.099	2017.5
910.335	2064.5
910.572	1953.5
910.808	2041.5
911.045	2010.5
911.281	1985.5
911.518	2048.5
911.754	1985.5
911.99	1984.5
912.226	1957.5
912.463	1949.5
912.699	1927.5
912.935	1927.5
913.171	1928.5
913.407	1879.5
913.643	1931.5
913.879	1890.5
914.114	1880.5
914.35	1874.5
914.586	1876.5
914.822	1826.5
915.057	1895.5
915.293	1751.5
915.529	1778.5
915.764	1821.5
916	1812.5
916.235	1819.5
916.471	1851.5
916.706	1736.5
916.941	1776.5
917.177	1777.5
917.412	1827.5
917.647	1811.5
917.882	1753.5
918.117	1815.5
918.352	1795.5
918.588	1844.5
918.823	1736.5
919.057	1747.5
919.292	1696.5
919.527	1785.5
919.762	1710.5
919.997	1732.5
920.232	1676.5
920.466	1740.5
920.701	1602.5
920.935	1682.5
921.17	1654.5
921.405	1612.5
921.639	1685.5
921.873	1602.5
922.108	1645.5
922.342	1661.5
922.576	1590.5
922.811	1595.5
923.045	1645.5
923.279	1676.5
923.513	1540.5
923.747	1660.5
923.981	1645.5
924.215	1564.5
924.449	1578.5
924.683	1536.5
924.917	1560.5
925.151	1546.5
925.385	1609.5
925.618	1567.5
925.852	1587.5
926.086	1503.5
926.319	1585.5
926.553	1554.5
926.786	1575.5
927.02	1562.5
927.253	1602.5
927.486	1602.5
927.72	1505.5
927.953	1605.5
928.186	1559.5
928.42	1567.5
928.653	1517.5
928.886	1485.5
929.119	1530.5
929.352	1560.5
929.585	1532.5
929.818	1505.5
930.051	1504.5
930.284	1535.5
930.516	1455.5
930.749	1475.5
930.982	1520.5
931.215	1510.5
931.447	1432.5
931.68	1485.5
931.912	1460.5
932.145	1458.5
932.377	1471.5
932.61	1598.5
932.842	1418.5
933.074	1482.5
933.307	1404.5
933.539	1521.5
933.771	1509.5
934.003	1462.5
934.236	1531.5
934.468	1558.5
934.7	1462.5
934.932	1505.5
935.164	1473.5
935.395	1435.5
935.627	1476.5
935.859	1497.5
936.091	1409.5
936.323	1475.5
936.554	1517.5
936.786	1477.5
937.017	1402.5
937.249	1477.5
937.481	1392.5
937.712	1471.5
937.943	1448.5
938.175	1424.5
938.406	1409.5
938.637	1484.5
938.869	1391.5
939.1	1472.5
939.331	1413.5
939.562	1469.5
939.793	1445.5
940.024	1453.5
940.255	1458.5
940.486	1422.5
940.717	1414.5
940.948	1430.5
941.179	1366.5
941.409	1388.5
941.64	1379.5
941.871	1384.5
942.102	1383.5
942.332	1401.5
942.563	1422.5
942.793	1428.5
943.024	1362.5
943.254	1388.5
943.484	1449.5
943.715	1447.5
943.945	1413.5
944.175	1364.5
944.405	1351.5
944.636	1351.5
944.866	1373.5
945.096	1401.5
945.326	1339.5
945.556	1407.5
945.786	1405.5
946.016	1370.5
946.245	1357.5
946.475	1347.5
946.705	1373.5
946.935	1376.5
947.164	1369.5
947.394	1312.5
947.624	1337.5
947.853	1379.5
948.083	1350.5
948.312	1326.5
948.542	1280.5
948.771	1268.5
949	1265.5
949.23	1308.5
949.459	1303.5
949.688	1373.5
949.917	1340.5
950.146	1315.5
950.375	1363.5
950.604	1257.5
950.833	1340.5
951.062	1363.5
951.291	1331.5
951.52	1286.5
951.749	1300.5
951.978	1288.5
952.206	1305.5
952.435	1275.5
952.664	1317.5
952.892	1325.5
953.121	1310.5
953.349	1334.5
953.578	1330.5
953.806	1314.5
954.035	1266.5
954.263	1271.5
954.491	1248.5
954.719	1318.5
954.948	1248.5
955.176	1230.5
955.404	1178.5
955.632	1266.5
955.86	1285.5
956.088	1261.5
956.316	1279.5
956.544	1299.5
956.772	1238.5
956.999	1218.5
957.227	1309.5
957.455	1224.5
957.683	1241.5
957.91	1200.5
958.138	1205.5
958.365	1214.5
958.593	1220.5
958.82	1141.5
959.048	1239.5
959.275	1218.5
959.502	1196.5
959.73	1202.5
959.957	1210.5
960.184	1267.5
960.411	1205.5
960.638	1263.5
960.865	1208.5
961.092	1261.5
961.319	1161.5
961.546	1235.5
961.773	1248.5
962	1215.5
962.227	1241.5
962.454	1206.5
962.68	1174.5
962.907	1227.5
963.134	1153.5
963.36	1196.5
963.587	1222.5
963.813	1161.5
964.04	1211.5
964.266	1138.5
964.493	1245.5
964.719	1229.5
964.945	1215.5
965.171	1098.5
965.398	1175.5
965.624	1181.5
965.85	1160.5
966.076	1145.5
966.302	1169.5
966.528	1144.5
966.754	1187.5
966.98	1196.5
967.206	1164.5
967.431	1119.5
967.657	1197.5
967.883	1178.5
968.109	1159.5
968.334	1111.5
968.56	1107.5
968.785	1127.5
969.011	1077.5
969.236	1154.5
969.462	1110.5
969.687	1125.5
969.912	1152.5
970.138	1174.5
970.363	1116.5
970.588	1117.5
970.813	1105.5
971.038	1091.5
971.263	1152.5
971.488	1149.5
971.713	1170.5
971.938	1151.5
972.163	1065.5
972.388	1098.5
972.613	1073.5
972.838	1103.5
973.062	1092.5
973.287	1083.5
973.512	1047.5
973.736	1066.5
973.961	1073.5
974.185	1069.5
974.41	1104.5
974.634	1025.5
974.858	1023.5
975.083	1055.5
975.307	1089.5
975.531	1048.5
975.755	988.5
975.98	1023.5
976.204	972.5
976.428	965.5
976.652	968.5
976.876	985.5
977.1	1016.5
977.324	974.5
977.547	1057.5
977.771	1010.5
977.995	1025.5
978.219	965.5
978.442	1058.5
978.666	1002.5
978.89	1006.5
979.113	1006.5
979.337	1006.5
979.56	991.5
979.783	1046.5
980.007	962.5
980.23	1000.5
980.453	957.5
980.677	994.5
980.9	1001.5
981.123	920.5
981.346	1010.5
981.569	1026.5
981.792	1003.5
982.015	983.5
982.238	968.5
982.461	973.5
982.684	964.5
982.907	928.5
983.129	943.5
983.352	992.5
983.575	980.5
983.797	981.5
984.02	931.5
984.242	955.5
984.465	952.5
984.687	1003.5
984.91	1003.5
985.132	996.5
985.354	1008.5
985.577	992.5
985.799	946.5
986.021	892.5
986.243	919.5
986.465	960.5
986.687	1010.5
986.909	1033.5
987.131	964.5
987.353	962.5
987.575	965.5
987.797	950.5
988.019	910.5
988.241	946.5
988.462	924.5
988.684	963.5
988.906	990.5
989.127	1029.5
989.349	911.5
989.57	948.5
989.792	993.5
990.013	1018.5
990.234	996.5
990.456	1046.5
990.677	1017.5
990.898	946.5
991.119	952.5
991.341	989.5
991.562	940.5
991.783	984.5
992.004	926.5
992.225	896.5
992.446	971.5
992.667	901.5
992.887	959.5
993.108	880.5
993.329	1003.5
993.55	965.5
993.77	885.5
993.991	911.5
994.212	939.5
994.432	941.5
994.653	966.5
994.873	949.5
995.093	856.5
995.314	873.5
995.534	970.5
995.754	982.5
995.975	992.5
996.195	916.5
996.415	960.5
996.635	944.5
996.855	953.5
997.075	907.5
997.295	920.5
997.515	919.5
997.735	974.5
997.955	935.5
998.174	929.5
998.394	917.5
998.614	966.5
998.834	931.5
999.053	990.5
999.273	959.5
999.492	1003.5
999.712	936.5
999.931	930.5
1000.151	983.5
1000.37	958.5
1000.589	1013.5
1000.809	951.5
1001.028	1047.5
1001.247	997.5
1001.466	890.5
1001.685	1044.5
1001.904	984.5
1002.123	991.5
1002.342	984.5
1002.561	935.5
1002.78	999.5
1002.999	1043.5
1003.218	991.5
1003.436	969.5
1003.655	1015.5
1003.874	939.5
1004.092	971.5
1004.311	1027.5
1004.53	992.5
1004.748	1077.5
1004.966	993.5
1005.185	1044.5
1005.403	1055.5
1005.622	1020.5
1005.84	1088.5
1006.058	990.5
1006.276	1017.5
1006.494	1503.5
1006.712	998.5
1006.931	1080.5
1007.149	993.5
1007.367	984.5
1007.584	1038.5
1007.802	1091.5
1008.02	1009.5
1008.238	1125.5
1008.456	1098.5
1008.673	956.5
1008.891	1079.5
1009.109	1038.5
1009.326	1056.5
1009.544	1166.5
1009.761	1054.5
1009.979	1144.5
1010.196	1170.5
1010.413	1234.5
1010.631	1277.5
1010.848	1302.5
1011.065	1308.5
1011.282	1252.5
1011.5	1201.5
1011.717	1306.5
1011.934	1277.5
1012.151	1309.5
1012.368	1285.5
1012.585	1247.5
1012.801	1277.5
1013.018	1234.5
1013.235	1201.5
1013.452	1244.5
1013.669	1263.5
1013.885	1230.5
1014.102	1265.5
1014.318	1213.5
1014.535	1179.5
1014.751	1242.5
1014.968	1252.5
1015.184	1247.5
1015.401	1183.5
1015.617	1230.5
1015.833	1184.5
1016.049	1198.5
1016.266	1172.5
1016.482	1195.5
1016.698	1133.5
1016.914	1186.5
1017.13	1114.5
1017.346	1122.5
1017.562	1210.5
1017.778	1133.5
1017.993	1121.5
1018.209	1162.5
1018.425	1148.5
1018.641	1129.5
1018.856	1108.5
1019.072	1141.5
1019.288	1177.5
1019.503	1120.5
1019.719	1052.5
1019.934	1060.5
1020.149	1164.5
1020.365	1079.5
1020.58	1053.5
1020.795	1105.5
1021.011	1028.5
1021.226	1038.5
1021.441	1063.5
1021.656	993.5
1021.871	938.5
1022.086	923.5
1022.301	937.5
1022.516	926.5
1022.731	1000.5
1022.946	918.5
1023.16	888.5
1023.375	857.5
1023.59	851.5
1023.804	835.5
1024.019	926.5
1024.234	824.5
1024.448	860.5
1024.663	780.5
1024.877	802.5
1025.092	830.5
1025.306	836.5
1025.52	727.5
1025.734	828.5
1025.949	757.5
1026.163	743.5
1026.377	683.5
1026.591	738.5
1026.805	673.5
1027.019	690.5
1027.233	639.5
1027.447	586.5
1027.661	688.5
1027.875	645.5
1028.088	647.5
1028.302	575.5
1028.516	601.5
1028.73	589.5
1028.943	577.5
1029.157	543.5
1029.37	526.5
1029.584	-3.5
1029.797	-1.5
1030.011	0.5
1030.224	-2.5
