Data from QEP037381__281__11-07-26-589.txt Node

Date: Wed Dec 21 11:07:26 EST 2022
User: dcclab
Spectrometer: QEP03738
Trigger mode: 4
Integration Time (sec): 1.000000E1
Scans to average: 1
Electric dark correction enabled: true
Nonlinearity correction enabled: false
Boxcar width: 0
XAxis mode: Wavelengths
Number of Pixels in Spectrum: 1044
>>>>>Begin Spectral Data<<<<<
784.041	13.75
784.3	1.75
784.558	-1.25
784.817	-6.25
785.075	97429.75
785.334	17032.75
785.592	7985.75
785.851	5528.75
786.109	4161.75
786.368	3239.75
786.626	2596.75
786.884	2152.75
787.143	1787.75
787.401	1487.75
787.659	1374.75
787.917	1131.75
788.175	1049.75
788.433	910.75
788.691	836.75
788.949	766.75
789.207	726.75
789.465	629.75
789.723	612.75
789.98	562.75
790.238	587.75
790.496	551.75
790.753	535.75
791.011	565.75
791.268	497.75
791.526	489.75
791.783	497.75
792.041	480.75
792.298	389.75
792.556	450.75
792.813	450.75
793.07	421.75
793.327	412.75
793.584	495.75
793.841	418.75
794.099	418.75
794.356	480.75
794.613	382.75
794.869	419.75
795.126	388.75
795.383	381.75
795.64	379.75
795.897	355.75
796.153	401.75
796.41	387.75
796.667	365.75
796.923	381.75
797.18	367.75
797.436	393.75
797.693	366.75
797.949	405.75
798.206	442.75
798.462	338.75
798.718	397.75
798.974	360.75
799.231	389.75
799.487	398.75
799.743	408.75
799.999	400.75
800.255	393.75
800.511	373.75
800.767	412.75
801.023	390.75
801.279	402.75
801.534	412.75
801.79	414.75
802.046	405.75
802.302	476.75
802.557	471.75
802.813	522.75
803.068	513.75
803.324	637.75
803.579	723.75
803.835	920.75
804.09	1213.75
804.345	1485.75
804.601	1822.75
804.856	2220.75
805.111	2543.75
805.366	2714.75
805.621	2880.75
805.876	2992.75
806.131	3034.75
806.386	3056.75
806.641	3091.75
806.896	3132.75
807.151	3285.75
807.406	3280.75
807.661	3347.75
807.915	3377.75
808.17	3468.75
808.425	3512.75
808.679	3495.75
808.934	3595.75
809.188	3593.75
809.443	3652.75
809.697	3769.75
809.951	3692.75
810.206	3708.75
810.46	3830.75
810.714	3791.75
810.968	3921.75
811.223	3857.75
811.477	3900.75
811.731	3974.75
811.985	3959.75
812.239	3882.75
812.493	3959.75
812.747	4010.75
813	4009.75
813.254	4067.75
813.508	4102.75
813.762	4085.75
814.015	4065.75
814.269	4176.75
814.522	4238.75
814.776	4230.75
815.03	4313.75
815.283	4358.75
815.536	4430.75
815.79	4520.75
816.043	4508.75
816.296	4629.75
816.55	4674.75
816.803	4711.75
817.056	4836.75
817.309	4872.75
817.562	4886.75
817.815	5009.75
818.068	4953.75
818.321	5017.75
818.574	5119.75
818.827	5153.75
819.079	5241.75
819.332	5460.75
819.585	5436.75
819.838	5535.75
820.09	5502.75
820.343	5629.75
820.595	5569.75
820.848	5640.75
821.1	5664.75
821.353	5576.75
821.605	5677.75
821.857	5689.75
822.11	5572.75
822.362	5519.75
822.614	5558.75
822.866	5646.75
823.118	5565.75
823.37	5696.75
823.622	5722.75
823.874	5691.75
824.126	5792.75
824.378	5745.75
824.63	5834.75
824.882	5862.75
825.134	5743.75
825.385	5783.75
825.637	5720.75
825.888	5684.75
826.14	5711.75
826.392	5732.75
826.643	5625.75
826.895	5644.75
827.146	5577.75
827.397	5602.75
827.649	5610.75
827.9	5540.75
828.151	5527.75
828.402	5566.75
828.653	5586.75
828.905	5630.75
829.156	5688.75
829.407	5600.75
829.658	5623.75
829.909	5694.75
830.159	5712.75
830.41	5683.75
830.661	5634.75
830.912	5651.75
831.162	5629.75
831.413	5639.75
831.664	5682.75
831.914	5635.75
832.165	5592.75
832.415	5597.75
832.666	5671.75
832.916	5666.75
833.167	5629.75
833.417	5695.75
833.667	5558.75
833.917	5594.75
834.168	5615.75
834.418	5580.75
834.668	5634.75
834.918	5562.75
835.168	5564.75
835.418	5498.75
835.668	5514.75
835.918	5495.75
836.167	5522.75
836.417	5453.75
836.667	5516.75
836.917	5511.75
837.166	5469.75
837.416	5513.75
837.666	5454.75
837.915	5446.75
838.165	5431.75
838.414	5383.75
838.663	5359.75
838.913	5435.75
839.162	5434.75
839.411	5471.75
839.661	5391.75
839.91	5423.75
840.159	5381.75
840.408	5476.75
840.657	5437.75
840.906	5387.75
841.155	5505.75
841.404	5452.75
841.653	5452.75
841.902	5414.75
842.15	5509.75
842.399	5501.75
842.648	5450.75
842.897	5494.75
843.145	5387.75
843.394	5362.75
843.642	5334.75
843.891	5283.75
844.139	5320.75
844.388	5238.75
844.636	5209.75
844.884	5228.75
845.133	5197.75
845.381	5201.75
845.629	5259.75
845.877	5241.75
846.125	5304.75
846.373	5301.75
846.621	5207.75
846.869	5210.75
847.117	5218.75
847.365	5136.75
847.613	5152.75
847.861	5158.75
848.108	5210.75
848.356	5160.75
848.604	5110.75
848.851	5158.75
849.099	5194.75
849.346	5235.75
849.594	5242.75
849.841	5290.75
850.089	5281.75
850.336	5323.75
850.583	5435.75
850.831	5377.75
851.078	5374.75
851.325	5356.75
851.572	5450.75
851.819	5390.75
852.066	5171.75
852.313	5034.75
852.56	4988.75
852.807	4927.75
853.054	4914.75
853.301	4939.75
853.548	5031.75
853.794	5136.75
854.041	5127.75
854.288	5012.75
854.534	5194.75
854.781	5122.75
855.028	5095.75
855.274	5131.75
855.52	5078.75
855.767	5015.75
856.013	5094.75
856.26	5389.75
856.506	5007.75
856.752	5072.75
856.998	4984.75
857.244	5026.75
857.49	5102.75
857.736	5122.75
857.982	5116.75
858.228	5084.75
858.474	4956.75
858.72	4990.75
858.966	5014.75
859.212	4905.75
859.458	4872.75
859.703	4822.75
859.949	4687.75
860.195	4750.75
860.44	4741.75
860.686	4722.75
860.931	4718.75
861.177	4621.75
861.422	4670.75
861.667	4606.75
861.913	4634.75
862.158	4639.75
862.403	4722.75
862.648	4715.75
862.893	4745.75
863.138	4710.75
863.384	4676.75
863.629	4670.75
863.873	4689.75
864.118	4695.75
864.363	4591.75
864.608	4649.75
864.853	4678.75
865.098	4602.75
865.342	4569.75
865.587	4556.75
865.832	4605.75
866.076	4584.75
866.321	4579.75
866.565	4545.75
866.81	4488.75
867.054	4535.75
867.298	4519.75
867.543	4485.75
867.787	4577.75
868.031	4539.75
868.275	4537.75
868.519	4518.75
868.764	4518.75
869.008	4510.75
869.252	4559.75
869.496	4486.75
869.739	4539.75
869.983	4554.75
870.227	4538.75
870.471	4555.75
870.715	4578.75
870.958	4598.75
871.202	4550.75
871.446	4604.75
871.689	4586.75
871.933	4610.75
872.176	4616.75
872.42	4561.75
872.663	4584.75
872.906	4640.75
873.15	4613.75
873.393	4538.75
873.636	4619.75
873.879	4568.75
874.122	4540.75
874.366	4458.75
874.609	4363.75
874.852	4367.75
875.095	4361.75
875.337	4298.75
875.58	4239.75
875.823	4288.75
876.066	4314.75
876.309	4368.75
876.551	4225.75
876.794	4199.75
877.037	4280.75
877.279	4201.75
877.522	4203.75
877.764	4255.75
878.007	4136.75
878.249	4159.75
878.491	4173.75
878.734	4246.75
878.976	4203.75
879.218	4112.75
879.46	4172.75
879.702	4109.75
879.945	4091.75
880.187	4004.75
880.429	4046.75
880.671	4019.75
880.912	4064.75
881.154	3964.75
881.396	3881.75
881.638	4001.75
881.88	3953.75
882.121	3916.75
882.363	3966.75
882.605	4015.75
882.846	3932.75
883.088	4028.75
883.329	3942.75
883.571	3935.75
883.812	4048.75
884.053	4173.75
884.295	4263.75
884.536	4475.75
884.777	4387.75
885.018	4343.75
885.259	4338.75
885.5	4248.75
885.742	4461.75
885.982	4270.75
886.223	4165.75
886.464	4143.75
886.705	4053.75
886.946	4056.75
887.187	3906.75
887.428	3930.75
887.668	3861.75
887.909	3753.75
888.15	3683.75
888.39	3748.75
888.631	3782.75
888.871	3681.75
889.111	3643.75
889.352	3638.75
889.592	3595.75
889.833	3583.75
890.073	3541.75
890.313	3609.75
890.553	3454.75
890.793	3497.75
891.033	3445.75
891.273	3450.75
891.513	3484.75
891.753	3479.75
891.993	3428.75
892.233	3493.75
892.473	3549.75
892.713	3538.75
892.952	3481.75
893.192	3520.75
893.432	3523.75
893.671	3564.75
893.911	3564.75
894.15	3505.75
894.39	3399.75
894.629	3422.75
894.869	3432.75
895.108	3422.75
895.347	3364.75
895.587	3393.75
895.826	3403.75
896.065	3376.75
896.304	3410.75
896.543	3433.75
896.782	3360.75
897.021	3405.75
897.26	3415.75
897.499	3472.75
897.738	3515.75
897.977	3446.75
898.216	3427.75
898.454	3368.75
898.693	3346.75
898.932	3354.75
899.17	3340.75
899.409	3304.75
899.647	3348.75
899.886	3329.75
900.124	3339.75
900.363	3305.75
900.601	3429.75
900.839	3381.75
901.078	3371.75
901.316	3433.75
901.554	3480.75
901.792	3513.75
902.03	3478.75
902.268	3507.75
902.506	3522.75
902.744	3440.75
902.982	3474.75
903.22	3358.75
903.458	3271.75
903.695	3273.75
903.933	3230.75
904.171	3122.75
904.409	3053.75
904.646	3044.75
904.884	2982.75
905.121	3004.75
905.359	2931.75
905.596	2949.75
905.833	2892.75
906.071	2890.75
906.308	2915.75
906.545	2870.75
906.783	2804.75
907.02	2866.75
907.257	2797.75
907.494	2838.75
907.731	2780.75
907.968	2821.75
908.205	2757.75
908.442	2759.75
908.679	2763.75
908.915	2754.75
909.152	2733.75
909.389	2634.75
909.626	2660.75
909.862	2649.75
910.099	2688.75
910.335	2676.75
910.572	2569.75
910.808	2601.75
911.045	2603.75
911.281	2548.75
911.518	2644.75
911.754	2541.75
911.99	2562.75
912.226	2558.75
912.463	2505.75
912.699	2494.75
912.935	2486.75
913.171	2481.75
913.407	2433.75
913.643	2491.75
913.879	2469.75
914.114	2419.75
914.35	2410.75
914.586	2381.75
914.822	2344.75
915.057	2426.75
915.293	2301.75
915.529	2316.75
915.764	2341.75
916	2346.75
916.235	2329.75
916.471	2355.75
916.706	2244.75
916.941	2313.75
917.177	2302.75
917.412	2318.75
917.647	2355.75
917.882	2274.75
918.117	2344.75
918.352	2312.75
918.588	2356.75
918.823	2278.75
919.057	2280.75
919.292	2156.75
919.527	2284.75
919.762	2180.75
919.997	2238.75
920.232	2186.75
920.466	2189.75
920.701	2074.75
920.935	2154.75
921.17	2104.75
921.405	2080.75
921.639	2149.75
921.873	2114.75
922.108	2165.75
922.342	2130.75
922.576	2062.75
922.811	2089.75
923.045	2074.75
923.279	2140.75
923.513	2034.75
923.747	2117.75
923.981	2045.75
924.215	2013.75
924.449	2056.75
924.683	1989.75
924.917	2007.75
925.151	2000.75
925.385	2084.75
925.618	2028.75
925.852	1991.75
926.086	1964.75
926.319	2022.75
926.553	1987.75
926.786	2016.75
927.02	1983.75
927.253	2010.75
927.486	2051.75
927.72	1959.75
927.953	2029.75
928.186	1966.75
928.42	2026.75
928.653	1956.75
928.886	1949.75
929.119	1979.75
929.352	1945.75
929.585	1986.75
929.818	1912.75
930.051	1924.75
930.284	1950.75
930.516	1864.75
930.749	1895.75
930.982	1916.75
931.215	1931.75
931.447	1868.75
931.68	1872.75
931.912	1821.75
932.145	1873.75
932.377	1883.75
932.61	2015.75
932.842	1806.75
933.074	1891.75
933.307	1863.75
933.539	1946.75
933.771	1931.75
934.003	1858.75
934.236	1951.75
934.468	1991.75
934.7	1872.75
934.932	1899.75
935.164	1829.75
935.395	1828.75
935.627	1867.75
935.859	1873.75
936.091	1835.75
936.323	1855.75
936.554	1895.75
936.786	1854.75
937.017	1813.75
937.249	1868.75
937.481	1785.75
937.712	1865.75
937.943	1864.75
938.175	1804.75
938.406	1822.75
938.637	1876.75
938.869	1792.75
939.1	1864.75
939.331	1817.75
939.562	1830.75
939.793	1811.75
940.024	1842.75
940.255	1881.75
940.486	1821.75
940.717	1786.75
940.948	1802.75
941.179	1744.75
941.409	1818.75
941.64	1748.75
941.871	1795.75
942.102	1775.75
942.332	1765.75
942.563	1836.75
942.793	1856.75
943.024	1727.75
943.254	1757.75
943.484	1822.75
943.715	1836.75
943.945	1786.75
944.175	1765.75
944.405	1736.75
944.636	1754.75
944.866	1780.75
945.096	1791.75
945.326	1710.75
945.556	1783.75
945.786	1819.75
946.016	1781.75
946.245	1683.75
946.475	1699.75
946.705	1724.75
946.935	1731.75
947.164	1732.75
947.394	1696.75
947.624	1688.75
947.853	1733.75
948.083	1743.75
948.312	1691.75
948.542	1654.75
948.771	1604.75
949	1675.75
949.23	1667.75
949.459	1643.75
949.688	1713.75
949.917	1659.75
950.146	1685.75
950.375	1742.75
950.604	1652.75
950.833	1742.75
951.062	1737.75
951.291	1674.75
951.52	1651.75
951.749	1665.75
951.978	1607.75
952.206	1645.75
952.435	1644.75
952.664	1648.75
952.892	1665.75
953.121	1665.75
953.349	1668.75
953.578	1685.75
953.806	1637.75
954.035	1572.75
954.263	1632.75
954.491	1583.75
954.719	1631.75
954.948	1625.75
955.176	1608.75
955.404	1524.75
955.632	1594.75
955.86	1575.75
956.088	1605.75
956.316	1638.75
956.544	1631.75
956.772	1581.75
956.999	1572.75
957.227	1627.75
957.455	1534.75
957.683	1559.75
957.91	1537.75
958.138	1531.75
958.365	1527.75
958.593	1535.75
958.82	1479.75
959.048	1563.75
959.275	1537.75
959.502	1520.75
959.73	1500.75
959.957	1551.75
960.184	1581.75
960.411	1523.75
960.638	1581.75
960.865	1529.75
961.092	1559.75
961.319	1449.75
961.546	1563.75
961.773	1580.75
962	1514.75
962.227	1571.75
962.454	1526.75
962.68	1515.75
962.907	1547.75
963.134	1492.75
963.36	1485.75
963.587	1527.75
963.813	1483.75
964.04	1518.75
964.266	1453.75
964.493	1529.75
964.719	1546.75
964.945	1507.75
965.171	1391.75
965.398	1490.75
965.624	1505.75
965.85	1414.75
966.076	1440.75
966.302	1447.75
966.528	1425.75
966.754	1468.75
966.98	1473.75
967.206	1472.75
967.431	1383.75
967.657	1476.75
967.883	1438.75
968.109	1433.75
968.334	1411.75
968.56	1379.75
968.785	1407.75
969.011	1384.75
969.236	1417.75
969.462	1378.75
969.687	1399.75
969.912	1446.75
970.138	1460.75
970.363	1385.75
970.588	1420.75
970.813	1405.75
971.038	1360.75
971.263	1398.75
971.488	1417.75
971.713	1446.75
971.938	1422.75
972.163	1334.75
972.388	1362.75
972.613	1351.75
972.838	1374.75
973.062	1350.75
973.287	1350.75
973.512	1297.75
973.736	1335.75
973.961	1318.75
974.185	1311.75
974.41	1346.75
974.634	1276.75
974.858	1267.75
975.083	1334.75
975.307	1344.75
975.531	1296.75
975.755	1216.75
975.98	1259.75
976.204	1221.75
976.428	1239.75
976.652	1237.75
976.876	1198.75
977.1	1240.75
977.324	1218.75
977.547	1255.75
977.771	1297.75
977.995	1257.75
978.219	1192.75
978.442	1321.75
978.666	1274.75
978.89	1270.75
979.113	1253.75
979.337	1235.75
979.56	1197.75
979.783	1295.75
980.007	1188.75
980.23	1231.75
980.453	1180.75
980.677	1234.75
980.9	1226.75
981.123	1141.75
981.346	1226.75
981.569	1246.75
981.792	1267.75
982.015	1190.75
982.238	1156.75
982.461	1220.75
982.684	1159.75
982.907	1168.75
983.129	1143.75
983.352	1206.75
983.575	1217.75
983.797	1211.75
984.02	1143.75
984.242	1182.75
984.465	1191.75
984.687	1199.75
984.91	1236.75
985.132	1196.75
985.354	1233.75
985.577	1170.75
985.799	1169.75
986.021	1100.75
986.243	1141.75
986.465	1159.75
986.687	1208.75
986.909	1235.75
987.131	1159.75
987.353	1136.75
987.575	1191.75
987.797	1151.75
988.019	1095.75
988.241	1152.75
988.462	1104.75
988.684	1182.75
988.906	1214.75
989.127	1217.75
989.349	1119.75
989.57	1140.75
989.792	1157.75
990.013	1202.75
990.234	1212.75
990.456	1216.75
990.677	1200.75
990.898	1155.75
991.119	1134.75
991.341	1191.75
991.562	1133.75
991.783	1166.75
992.004	1105.75
992.225	1100.75
992.446	1126.75
992.667	1077.75
992.887	1143.75
993.108	1041.75
993.329	1176.75
993.55	1120.75
993.77	1088.75
993.991	1056.75
994.212	1138.75
994.432	1087.75
994.653	1124.75
994.873	1105.75
995.093	1020.75
995.314	1076.75
995.534	1133.75
995.754	1104.75
995.975	1180.75
996.195	1064.75
996.415	1113.75
996.635	1111.75
996.855	1114.75
997.075	1098.75
997.295	1093.75
997.515	1071.75
997.735	1110.75
997.955	1105.75
998.174	1085.75
998.394	1063.75
998.614	1119.75
998.834	1075.75
999.053	1163.75
999.273	1122.75
999.492	1160.75
999.712	1100.75
999.931	1085.75
1000.151	1127.75
1000.37	1114.75
1000.589	1148.75
1000.809	1075.75
1001.028	1180.75
1001.247	1130.75
1001.466	1058.75
1001.685	1200.75
1001.904	1124.75
1002.123	1124.75
1002.342	1147.75
1002.561	1070.75
1002.78	1119.75
1002.999	1170.75
1003.218	1107.75
1003.436	1093.75
1003.655	1169.75
1003.874	1107.75
1004.092	1116.75
1004.311	1165.75
1004.53	1129.75
1004.748	1211.75
1004.966	1122.75
1005.185	1170.75
1005.403	1192.75
1005.622	1160.75
1005.84	1218.75
1006.058	1118.75
1006.276	1149.75
1006.494	1648.75
1006.712	1148.75
1006.931	1218.75
1007.149	1136.75
1007.367	1129.75
1007.584	1150.75
1007.802	1199.75
1008.02	1137.75
1008.238	1253.75
1008.456	1223.75
1008.673	1128.75
1008.891	1236.75
1009.109	1173.75
1009.326	1197.75
1009.544	1327.75
1009.761	1213.75
1009.979	1312.75
1010.196	1294.75
1010.413	1419.75
1010.631	1449.75
1010.848	1478.75
1011.065	1481.75
1011.282	1460.75
1011.5	1383.75
1011.717	1488.75
1011.934	1417.75
1012.151	1444.75
1012.368	1476.75
1012.585	1371.75
1012.801	1434.75
1013.018	1428.75
1013.235	1413.75
1013.452	1408.75
1013.669	1461.75
1013.885	1397.75
1014.102	1421.75
1014.318	1424.75
1014.535	1366.75
1014.751	1426.75
1014.968	1415.75
1015.184	1466.75
1015.401	1374.75
1015.617	1424.75
1015.833	1339.75
1016.049	1358.75
1016.266	1347.75
1016.482	1378.75
1016.698	1283.75
1016.914	1351.75
1017.13	1289.75
1017.346	1291.75
1017.562	1353.75
1017.778	1314.75
1017.993	1273.75
1018.209	1329.75
1018.425	1309.75
1018.641	1285.75
1018.856	1253.75
1019.072	1298.75
1019.288	1355.75
1019.503	1290.75
1019.719	1199.75
1019.934	1233.75
1020.149	1327.75
1020.365	1228.75
1020.58	1217.75
1020.795	1245.75
1021.011	1197.75
1021.226	1181.75
1021.441	1205.75
1021.656	1136.75
1021.871	1073.75
1022.086	1064.75
1022.301	1076.75
1022.516	1051.75
1022.731	1094.75
1022.946	1006.75
1023.16	1007.75
1023.375	981.75
1023.59	981.75
1023.804	928.75
1024.019	1033.75
1024.234	914.75
1024.448	950.75
1024.663	883.75
1024.877	891.75
1025.092	916.75
1025.306	913.75
1025.52	823.75
1025.734	941.75
1025.949	843.75
1026.163	830.75
1026.377	766.75
1026.591	813.75
1026.805	743.75
1027.019	725.75
1027.233	719.75
1027.447	667.75
1027.661	765.75
1027.875	716.75
1028.088	723.75
1028.302	661.75
1028.516	635.75
1028.73	659.75
1028.943	640.75
1029.157	590.75
1029.37	563.75
1029.584	-3.25
1029.797	-4.25
1030.011	-0.25
1030.224	-0.25
