Data from QEP037381__265__11-04-46-588.txt Node

Date: Wed Dec 21 11:04:46 EST 2022
User: dcclab
Spectrometer: QEP03738
Trigger mode: 4
Integration Time (sec): 1.000000E1
Scans to average: 1
Electric dark correction enabled: true
Nonlinearity correction enabled: false
Boxcar width: 0
XAxis mode: Wavelengths
Number of Pixels in Spectrum: 1044
>>>>>Begin Spectral Data<<<<<
784.041	14.25
784.3	-0.75
784.558	-1.75
784.817	-3.75
785.075	90518.25
785.334	15426.25
785.592	7201.25
785.851	4977.25
786.109	3783.25
786.368	2959.25
786.626	2350.25
786.884	1995.25
787.143	1648.25
787.401	1384.25
787.659	1250.25
787.917	1064.25
788.175	970.25
788.433	862.25
788.691	784.25
788.949	704.25
789.207	677.25
789.465	611.25
789.723	569.25
789.98	525.25
790.238	552.25
790.496	540.25
790.753	509.25
791.011	563.25
791.268	504.25
791.526	477.25
791.783	492.25
792.041	486.25
792.298	406.25
792.556	464.25
792.813	436.25
793.07	415.25
793.327	408.25
793.584	489.25
793.841	402.25
794.099	427.25
794.356	465.25
794.613	371.25
794.869	406.25
795.126	392.25
795.383	358.25
795.64	383.25
795.897	343.25
796.153	394.25
796.41	379.25
796.667	379.25
796.923	373.25
797.18	365.25
797.436	393.25
797.693	350.25
797.949	406.25
798.206	439.25
798.462	352.25
798.718	392.25
798.974	353.25
799.231	397.25
799.487	385.25
799.743	394.25
799.999	414.25
800.255	402.25
800.511	371.25
800.767	416.25
801.023	386.25
801.279	401.25
801.534	408.25
801.79	413.25
802.046	413.25
802.302	468.25
802.557	444.25
802.813	497.25
803.068	475.25
803.324	595.25
803.579	682.25
803.835	804.25
804.09	1064.25
804.345	1305.25
804.601	1578.25
804.856	1884.25
805.111	2177.25
805.366	2371.25
805.621	2481.25
805.876	2565.25
806.131	2641.25
806.386	2663.25
806.641	2653.25
806.896	2759.25
807.151	2840.25
807.406	2845.25
807.661	2933.25
807.915	2912.25
808.17	3010.25
808.425	3004.25
808.679	2995.25
808.934	3166.25
809.188	3124.25
809.443	3197.25
809.697	3225.25
809.951	3227.25
810.206	3184.25
810.46	3330.25
810.714	3268.25
810.968	3377.25
811.223	3343.25
811.477	3402.25
811.731	3445.25
811.985	3401.25
812.239	3393.25
812.493	3482.25
812.747	3450.25
813	3447.25
813.254	3507.25
813.508	3555.25
813.762	3535.25
814.015	3545.25
814.269	3576.25
814.522	3639.25
814.776	3649.25
815.03	3709.25
815.283	3775.25
815.536	3836.25
815.79	3871.25
816.043	3906.25
816.296	4008.25
816.55	3995.25
816.803	4097.25
817.056	4174.25
817.309	4173.25
817.562	4199.25
817.815	4304.25
818.068	4264.25
818.321	4291.25
818.574	4361.25
818.827	4513.25
819.079	4498.25
819.332	4722.25
819.585	4690.25
819.838	4763.25
820.09	4691.25
820.343	4791.25
820.595	4767.25
820.848	4813.25
821.1	4898.25
821.353	4856.25
821.605	4850.25
821.857	4864.25
822.11	4766.25
822.362	4822.25
822.614	4761.25
822.866	4825.25
823.118	4840.25
823.37	4915.25
823.622	4931.25
823.874	4909.25
824.126	5025.25
824.378	4953.25
824.63	5013.25
824.882	4997.25
825.134	4966.25
825.385	4986.25
825.637	4928.25
825.888	4894.25
826.14	4862.25
826.392	4855.25
826.643	4791.25
826.895	4792.25
827.146	4819.25
827.397	4776.25
827.649	4851.25
827.9	4799.25
828.151	4786.25
828.402	4716.25
828.653	4753.25
828.905	4800.25
829.156	4847.25
829.407	4751.25
829.658	4868.25
829.909	4913.25
830.159	4862.25
830.41	4883.25
830.661	4846.25
830.912	4727.25
831.162	4759.25
831.413	4747.25
831.664	4808.25
831.914	4793.25
832.165	4818.25
832.415	4815.25
832.666	4807.25
832.916	4847.25
833.167	4776.25
833.417	4801.25
833.667	4748.25
833.917	4775.25
834.168	4840.25
834.418	4820.25
834.668	4804.25
834.918	4706.25
835.168	4764.25
835.418	4720.25
835.668	4731.25
835.918	4736.25
836.167	4709.25
836.417	4648.25
836.667	4722.25
836.917	4665.25
837.166	4682.25
837.416	4671.25
837.666	4666.25
837.915	4643.25
838.165	4666.25
838.414	4598.25
838.663	4570.25
838.913	4581.25
839.162	4586.25
839.411	4636.25
839.661	4586.25
839.91	4610.25
840.159	4558.25
840.408	4633.25
840.657	4573.25
840.906	4609.25
841.155	4657.25
841.404	4598.25
841.653	4642.25
841.902	4621.25
842.15	4650.25
842.399	4669.25
842.648	4645.25
842.897	4645.25
843.145	4556.25
843.394	4564.25
843.642	4510.25
843.891	4549.25
844.139	4500.25
844.388	4412.25
844.636	4355.25
844.884	4467.25
845.133	4391.25
845.381	4469.25
845.629	4479.25
845.877	4410.25
846.125	4431.25
846.373	4459.25
846.621	4421.25
846.869	4423.25
847.117	4353.25
847.365	4352.25
847.613	4342.25
847.861	4390.25
848.108	4444.25
848.356	4322.25
848.604	4302.25
848.851	4390.25
849.099	4408.25
849.346	4373.25
849.594	4440.25
849.841	4478.25
850.089	4485.25
850.336	4515.25
850.583	4563.25
850.831	4593.25
851.078	4608.25
851.325	4598.25
851.572	4699.25
851.819	4604.25
852.066	4418.25
852.313	4245.25
852.56	4155.25
852.807	4147.25
853.054	4181.25
853.301	4202.25
853.548	4233.25
853.794	4319.25
854.041	4279.25
854.288	4311.25
854.534	4465.25
854.781	4339.25
855.028	4276.25
855.274	4333.25
855.52	4246.25
855.767	4251.25
856.013	4330.25
856.26	4539.25
856.506	4250.25
856.752	4240.25
856.998	4232.25
857.244	4216.25
857.49	4237.25
857.736	4298.25
857.982	4279.25
858.228	4275.25
858.474	4220.25
858.72	4225.25
858.966	4144.25
859.212	4147.25
859.458	4045.25
859.703	4036.25
859.949	3954.25
860.195	3954.25
860.44	4003.25
860.686	3911.25
860.931	3974.25
861.177	3880.25
861.422	3930.25
861.667	3861.25
861.913	3873.25
862.158	3918.25
862.403	3948.25
862.648	3949.25
862.893	3990.25
863.138	3921.25
863.384	3951.25
863.629	3966.25
863.873	3929.25
864.118	3869.25
864.363	3853.25
864.608	3923.25
864.853	3906.25
865.098	3889.25
865.342	3936.25
865.587	3809.25
865.832	3863.25
866.076	3829.25
866.321	3823.25
866.565	3859.25
866.81	3792.25
867.054	3821.25
867.298	3812.25
867.543	3813.25
867.787	3777.25
868.031	3750.25
868.275	3787.25
868.519	3774.25
868.764	3818.25
869.008	3789.25
869.252	3844.25
869.496	3813.25
869.739	3794.25
869.983	3846.25
870.227	3852.25
870.471	3828.25
870.715	3858.25
870.958	3891.25
871.202	3866.25
871.446	3847.25
871.689	3853.25
871.933	3853.25
872.176	3854.25
872.42	3812.25
872.663	3811.25
872.906	3862.25
873.15	3815.25
873.393	3752.25
873.636	3864.25
873.879	3800.25
874.122	3798.25
874.366	3703.25
874.609	3683.25
874.852	3654.25
875.095	3684.25
875.337	3621.25
875.58	3567.25
875.823	3580.25
876.066	3590.25
876.309	3658.25
876.551	3544.25
876.794	3515.25
877.037	3572.25
877.279	3504.25
877.522	3513.25
877.764	3537.25
878.007	3483.25
878.249	3538.25
878.491	3462.25
878.734	3544.25
878.976	3525.25
879.218	3444.25
879.46	3491.25
879.702	3466.25
879.945	3427.25
880.187	3302.25
880.429	3374.25
880.671	3343.25
880.912	3353.25
881.154	3335.25
881.396	3264.25
881.638	3346.25
881.88	3311.25
882.121	3294.25
882.363	3288.25
882.605	3367.25
882.846	3359.25
883.088	3365.25
883.329	3341.25
883.571	3294.25
883.812	3355.25
884.053	3489.25
884.295	3601.25
884.536	3678.25
884.777	3700.25
885.018	3609.25
885.259	3659.25
885.5	3514.25
885.742	3744.25
885.982	3554.25
886.223	3475.25
886.464	3461.25
886.705	3378.25
886.946	3377.25
887.187	3213.25
887.428	3282.25
887.668	3175.25
887.909	3166.25
888.15	3070.25
888.39	3131.25
888.631	3163.25
888.871	3101.25
889.111	3041.25
889.352	3069.25
889.592	2979.25
889.833	2970.25
890.073	2973.25
890.313	3003.25
890.553	2900.25
890.793	2943.25
891.033	2897.25
891.273	2880.25
891.513	2901.25
891.753	2936.25
891.993	2873.25
892.233	2930.25
892.473	2973.25
892.713	2912.25
892.952	2884.25
893.192	2922.25
893.432	2932.25
893.671	2980.25
893.911	2931.25
894.15	2919.25
894.39	2825.25
894.629	2858.25
894.869	2891.25
895.108	2890.25
895.347	2885.25
895.587	2863.25
895.826	2843.25
896.065	2836.25
896.304	2894.25
896.543	2897.25
896.782	2807.25
897.021	2877.25
897.26	2865.25
897.499	2932.25
897.738	2990.25
897.977	2881.25
898.216	2853.25
898.454	2850.25
898.693	2794.25
898.932	2809.25
899.17	2799.25
899.409	2823.25
899.647	2818.25
899.886	2777.25
900.124	2836.25
900.363	2790.25
900.601	2870.25
900.839	2837.25
901.078	2860.25
901.316	2899.25
901.554	2916.25
901.792	2988.25
902.03	2918.25
902.268	2918.25
902.506	2961.25
902.744	2928.25
902.982	2899.25
903.22	2786.25
903.458	2725.25
903.695	2776.25
903.933	2721.25
904.171	2629.25
904.409	2558.25
904.646	2625.25
904.884	2534.25
905.121	2538.25
905.359	2477.25
905.596	2460.25
905.833	2396.25
906.071	2389.25
906.308	2432.25
906.545	2374.25
906.783	2317.25
907.02	2367.25
907.257	2335.25
907.494	2315.25
907.731	2380.25
907.968	2373.25
908.205	2299.25
908.442	2248.25
908.679	2301.25
908.915	2284.25
909.152	2272.25
909.389	2191.25
909.626	2231.25
909.862	2175.25
910.099	2192.25
910.335	2254.25
910.572	2139.25
910.808	2183.25
911.045	2140.25
911.281	2162.25
911.518	2194.25
911.754	2137.25
911.99	2130.25
912.226	2151.25
912.463	2060.25
912.699	2054.25
912.935	2081.25
913.171	2014.25
913.407	2051.25
913.643	2067.25
913.879	2037.25
914.114	2029.25
914.35	1988.25
914.586	2006.25
914.822	1938.25
915.057	2002.25
915.293	1916.25
915.529	1922.25
915.764	1968.25
916	1952.25
916.235	1965.25
916.471	1961.25
916.706	1895.25
916.941	1925.25
917.177	1925.25
917.412	1940.25
917.647	1953.25
917.882	1925.25
918.117	1964.25
918.352	1898.25
918.588	1945.25
918.823	1888.25
919.057	1890.25
919.292	1794.25
919.527	1917.25
919.762	1839.25
919.997	1899.25
920.232	1816.25
920.466	1823.25
920.701	1713.25
920.935	1791.25
921.17	1760.25
921.405	1741.25
921.639	1801.25
921.873	1777.25
922.108	1775.25
922.342	1802.25
922.576	1740.25
922.811	1738.25
923.045	1800.25
923.279	1796.25
923.513	1680.25
923.747	1769.25
923.981	1742.25
924.215	1683.25
924.449	1724.25
924.683	1659.25
924.917	1665.25
925.151	1674.25
925.385	1750.25
925.618	1703.25
925.852	1701.25
926.086	1621.25
926.319	1684.25
926.553	1674.25
926.786	1700.25
927.02	1680.25
927.253	1684.25
927.486	1717.25
927.72	1630.25
927.953	1699.25
928.186	1630.25
928.42	1711.25
928.653	1642.25
928.886	1628.25
929.119	1680.25
929.352	1664.25
929.585	1622.25
929.818	1605.25
930.051	1647.25
930.284	1646.25
930.516	1571.25
930.749	1574.25
930.982	1652.25
931.215	1592.25
931.447	1548.25
931.68	1583.25
931.912	1537.25
932.145	1567.25
932.377	1595.25
932.61	1686.25
932.842	1524.25
933.074	1621.25
933.307	1545.25
933.539	1623.25
933.771	1605.25
934.003	1585.25
934.236	1645.25
934.468	1646.25
934.7	1568.25
934.932	1616.25
935.164	1554.25
935.395	1547.25
935.627	1566.25
935.859	1568.25
936.091	1507.25
936.323	1584.25
936.554	1617.25
936.786	1567.25
937.017	1494.25
937.249	1546.25
937.481	1496.25
937.712	1564.25
937.943	1541.25
938.175	1514.25
938.406	1517.25
938.637	1590.25
938.869	1508.25
939.1	1550.25
939.331	1514.25
939.562	1556.25
939.793	1554.25
940.024	1560.25
940.255	1588.25
940.486	1518.25
940.717	1524.25
940.948	1501.25
941.179	1453.25
941.409	1512.25
941.64	1514.25
941.871	1501.25
942.102	1481.25
942.332	1492.25
942.563	1535.25
942.793	1505.25
943.024	1437.25
943.254	1502.25
943.484	1527.25
943.715	1555.25
943.945	1508.25
944.175	1454.25
944.405	1449.25
944.636	1450.25
944.866	1487.25
945.096	1510.25
945.326	1472.25
945.556	1512.25
945.786	1531.25
946.016	1493.25
946.245	1427.25
946.475	1461.25
946.705	1453.25
946.935	1464.25
947.164	1463.25
947.394	1399.25
947.624	1431.25
947.853	1472.25
948.083	1441.25
948.312	1445.25
948.542	1380.25
948.771	1368.25
949	1393.25
949.23	1388.25
949.459	1400.25
949.688	1486.25
949.917	1406.25
950.146	1443.25
950.375	1479.25
950.604	1371.25
950.833	1494.25
951.062	1469.25
951.291	1380.25
951.52	1393.25
951.749	1422.25
951.978	1372.25
952.206	1385.25
952.435	1362.25
952.664	1410.25
952.892	1421.25
953.121	1389.25
953.349	1421.25
953.578	1415.25
953.806	1389.25
954.035	1341.25
954.263	1388.25
954.491	1329.25
954.719	1383.25
954.948	1333.25
955.176	1360.25
955.404	1296.25
955.632	1352.25
955.86	1367.25
956.088	1355.25
956.316	1387.25
956.544	1378.25
956.772	1318.25
956.999	1322.25
957.227	1401.25
957.455	1304.25
957.683	1320.25
957.91	1284.25
958.138	1279.25
958.365	1272.25
958.593	1291.25
958.82	1241.25
959.048	1330.25
959.275	1293.25
959.502	1299.25
959.73	1256.25
959.957	1320.25
960.184	1345.25
960.411	1285.25
960.638	1365.25
960.865	1280.25
961.092	1320.25
961.319	1223.25
961.546	1341.25
961.773	1325.25
962	1256.25
962.227	1308.25
962.454	1290.25
962.68	1291.25
962.907	1292.25
963.134	1253.25
963.36	1303.25
963.587	1294.25
963.813	1234.25
964.04	1255.25
964.266	1218.25
964.493	1295.25
964.719	1289.25
964.945	1308.25
965.171	1181.25
965.398	1252.25
965.624	1282.25
965.85	1238.25
966.076	1205.25
966.302	1241.25
966.528	1194.25
966.754	1245.25
966.98	1260.25
967.206	1226.25
967.431	1169.25
967.657	1258.25
967.883	1239.25
968.109	1253.25
968.334	1190.25
968.56	1180.25
968.785	1202.25
969.011	1170.25
969.236	1231.25
969.462	1157.25
969.687	1197.25
969.912	1257.25
970.138	1251.25
970.363	1168.25
970.588	1219.25
970.813	1185.25
971.038	1160.25
971.263	1202.25
971.488	1222.25
971.713	1232.25
971.938	1221.25
972.163	1122.25
972.388	1171.25
972.613	1157.25
972.838	1164.25
973.062	1170.25
973.287	1174.25
973.512	1105.25
973.736	1162.25
973.961	1136.25
974.185	1112.25
974.41	1173.25
974.634	1087.25
974.858	1094.25
975.083	1149.25
975.307	1156.25
975.531	1096.25
975.755	1055.25
975.98	1074.25
976.204	1014.25
976.428	1032.25
976.652	1050.25
976.876	1040.25
977.1	1072.25
977.324	1034.25
977.547	1077.25
977.771	1098.25
977.995	1068.25
978.219	1020.25
978.442	1130.25
978.666	1051.25
978.89	1052.25
979.113	1053.25
979.337	1068.25
979.56	1060.25
979.783	1118.25
980.007	1040.25
980.23	1068.25
980.453	1023.25
980.677	1067.25
980.9	1049.25
981.123	993.25
981.346	1055.25
981.569	1057.25
981.792	1072.25
982.015	1036.25
982.238	999.25
982.461	1035.25
982.684	996.25
982.907	994.25
983.129	998.25
983.352	1055.25
983.575	1033.25
983.797	1023.25
984.02	991.25
984.242	998.25
984.465	1011.25
984.687	1046.25
984.91	1063.25
985.132	1043.25
985.354	1059.25
985.577	1037.25
985.799	1021.25
986.021	960.25
986.243	982.25
986.465	984.25
986.687	1061.25
986.909	1086.25
987.131	1017.25
987.353	981.25
987.575	1047.25
987.797	1008.25
988.019	944.25
988.241	997.25
988.462	951.25
988.684	1022.25
988.906	1049.25
989.127	1087.25
989.349	975.25
989.57	1013.25
989.792	1036.25
990.013	1032.25
990.234	1054.25
990.456	1081.25
990.677	1050.25
990.898	1007.25
991.119	1004.25
991.341	1042.25
991.562	974.25
991.783	1034.25
992.004	957.25
992.225	941.25
992.446	1034.25
992.667	938.25
992.887	1016.25
993.108	917.25
993.329	1049.25
993.55	1000.25
993.77	935.25
993.991	945.25
994.212	987.25
994.432	999.25
994.653	990.25
994.873	997.25
995.093	898.25
995.314	953.25
995.534	990.25
995.754	1023.25
995.975	1039.25
996.195	937.25
996.415	999.25
996.635	960.25
996.855	996.25
997.075	943.25
997.295	966.25
997.515	957.25
997.735	1006.25
997.955	986.25
998.174	951.25
998.394	956.25
998.614	986.25
998.834	955.25
999.053	1006.25
999.273	1009.25
999.492	1078.25
999.712	986.25
999.931	950.25
1000.151	996.25
1000.37	977.25
1000.589	1045.25
1000.809	970.25
1001.028	1087.25
1001.247	1034.25
1001.466	913.25
1001.685	1069.25
1001.904	1021.25
1002.123	1012.25
1002.342	1034.25
1002.561	961.25
1002.78	1012.25
1002.999	1060.25
1003.218	1027.25
1003.436	990.25
1003.655	1074.25
1003.874	995.25
1004.092	1019.25
1004.311	1075.25
1004.53	1014.25
1004.748	1115.25
1004.966	1013.25
1005.185	1077.25
1005.403	1073.25
1005.622	1060.25
1005.84	1119.25
1006.058	1019.25
1006.276	1072.25
1006.494	1537.25
1006.712	1047.25
1006.931	1100.25
1007.149	1026.25
1007.367	1008.25
1007.584	1077.25
1007.802	1088.25
1008.02	1050.25
1008.238	1160.25
1008.456	1133.25
1008.673	1008.25
1008.891	1093.25
1009.109	1062.25
1009.326	1111.25
1009.544	1204.25
1009.761	1077.25
1009.979	1189.25
1010.196	1173.25
1010.413	1280.25
1010.631	1296.25
1010.848	1330.25
1011.065	1325.25
1011.282	1291.25
1011.5	1220.25
1011.717	1339.25
1011.934	1279.25
1012.151	1326.25
1012.368	1312.25
1012.585	1236.25
1012.801	1300.25
1013.018	1256.25
1013.235	1264.25
1013.452	1261.25
1013.669	1258.25
1013.885	1281.25
1014.102	1294.25
1014.318	1264.25
1014.535	1204.25
1014.751	1279.25
1014.968	1259.25
1015.184	1311.25
1015.401	1206.25
1015.617	1267.25
1015.833	1232.25
1016.049	1224.25
1016.266	1198.25
1016.482	1216.25
1016.698	1183.25
1016.914	1218.25
1017.13	1185.25
1017.346	1177.25
1017.562	1205.25
1017.778	1192.25
1017.993	1154.25
1018.209	1198.25
1018.425	1209.25
1018.641	1146.25
1018.856	1151.25
1019.072	1167.25
1019.288	1207.25
1019.503	1166.25
1019.719	1082.25
1019.934	1097.25
1020.149	1200.25
1020.365	1126.25
1020.58	1086.25
1020.795	1134.25
1021.011	1077.25
1021.226	1067.25
1021.441	1098.25
1021.656	1017.25
1021.871	962.25
1022.086	968.25
1022.301	961.25
1022.516	966.25
1022.731	1012.25
1022.946	926.25
1023.16	922.25
1023.375	892.25
1023.59	853.25
1023.804	855.25
1024.019	960.25
1024.234	838.25
1024.448	868.25
1024.663	794.25
1024.877	840.25
1025.092	839.25
1025.306	860.25
1025.52	771.25
1025.734	831.25
1025.949	766.25
1026.163	762.25
1026.377	714.25
1026.591	775.25
1026.805	701.25
1027.019	674.25
1027.233	663.25
1027.447	626.25
1027.661	708.25
1027.875	658.25
1028.088	679.25
1028.302	605.25
1028.516	599.25
1028.73	608.25
1028.943	612.25
1029.157	559.25
1029.37	526.25
1029.584	-2.75
1029.797	-3.75
1030.011	-0.75
1030.224	-0.75
