Data from QEP037381__263__11-04-26-587.txt Node

Date: Wed Dec 21 11:04:26 EST 2022
User: dcclab
Spectrometer: QEP03738
Trigger mode: 4
Integration Time (sec): 1.000000E1
Scans to average: 1
Electric dark correction enabled: true
Nonlinearity correction enabled: false
Boxcar width: 0
XAxis mode: Wavelengths
Number of Pixels in Spectrum: 1044
>>>>>Begin Spectral Data<<<<<
784.041	12.75
784.3	-1.25
784.558	-2.25
784.817	-1.25
785.075	95259.75
785.334	16232.75
785.592	7485.75
785.851	5149.75
786.109	3843.75
786.368	3014.75
786.626	2433.75
786.884	2016.75
787.143	1692.75
787.401	1383.75
787.659	1260.75
787.917	1088.75
788.175	1008.75
788.433	887.75
788.691	801.75
788.949	752.75
789.207	706.75
789.465	617.75
789.723	608.75
789.98	517.75
790.238	588.75
790.496	542.75
790.753	527.75
791.011	568.75
791.268	500.75
791.526	477.75
791.783	506.75
792.041	482.75
792.298	399.75
792.556	477.75
792.813	446.75
793.07	435.75
793.327	398.75
793.584	485.75
793.841	400.75
794.099	436.75
794.356	479.75
794.613	389.75
794.869	427.75
795.126	375.75
795.383	364.75
795.64	391.75
795.897	339.75
796.153	396.75
796.41	381.75
796.667	369.75
796.923	371.75
797.18	373.75
797.436	393.75
797.693	355.75
797.949	397.75
798.206	426.75
798.462	338.75
798.718	398.75
798.974	367.75
799.231	405.75
799.487	401.75
799.743	391.75
799.999	399.75
800.255	402.75
800.511	382.75
800.767	416.75
801.023	388.75
801.279	403.75
801.534	413.75
801.79	427.75
802.046	424.75
802.302	470.75
802.557	475.75
802.813	528.75
803.068	508.75
803.324	635.75
803.579	740.75
803.835	920.75
804.09	1228.75
804.345	1526.75
804.601	1882.75
804.856	2280.75
805.111	2588.75
805.366	2792.75
805.621	2917.75
805.876	3040.75
806.131	3063.75
806.386	3123.75
806.641	3080.75
806.896	3188.75
807.151	3283.75
807.406	3309.75
807.661	3371.75
807.915	3442.75
808.17	3469.75
808.425	3513.75
808.679	3508.75
808.934	3672.75
809.188	3617.75
809.443	3678.75
809.697	3747.75
809.951	3765.75
810.206	3765.75
810.46	3833.75
810.714	3826.75
810.968	3918.75
811.223	3873.75
811.477	3967.75
811.731	3987.75
811.985	3974.75
812.239	3998.75
812.493	3971.75
812.747	4084.75
813	3988.75
813.254	4074.75
813.508	4091.75
813.762	4072.75
814.015	4116.75
814.269	4159.75
814.522	4279.75
814.776	4295.75
815.03	4339.75
815.283	4355.75
815.536	4468.75
815.79	4510.75
816.043	4571.75
816.296	4610.75
816.55	4685.75
816.803	4779.75
817.056	4901.75
817.309	4841.75
817.562	4957.75
817.815	5046.75
818.068	5005.75
818.321	5056.75
818.574	5127.75
818.827	5234.75
819.079	5328.75
819.332	5473.75
819.585	5524.75
819.838	5604.75
820.09	5529.75
820.343	5597.75
820.595	5603.75
820.848	5704.75
821.1	5739.75
821.353	5700.75
821.605	5690.75
821.857	5754.75
822.11	5645.75
822.362	5652.75
822.614	5622.75
822.866	5671.75
823.118	5664.75
823.37	5797.75
823.622	5776.75
823.874	5783.75
824.126	5911.75
824.378	5772.75
824.63	5906.75
824.882	5927.75
825.134	5793.75
825.385	5818.75
825.637	5768.75
825.888	5746.75
826.14	5752.75
826.392	5726.75
826.643	5675.75
826.895	5728.75
827.146	5686.75
827.397	5618.75
827.649	5688.75
827.9	5583.75
828.151	5584.75
828.402	5606.75
828.653	5649.75
828.905	5675.75
829.156	5818.75
829.407	5663.75
829.658	5690.75
829.909	5727.75
830.159	5736.75
830.41	5759.75
830.661	5698.75
830.912	5592.75
831.162	5632.75
831.413	5648.75
831.664	5717.75
831.914	5683.75
832.165	5676.75
832.415	5648.75
832.666	5686.75
832.916	5669.75
833.167	5696.75
833.417	5728.75
833.667	5665.75
833.917	5633.75
834.168	5663.75
834.418	5677.75
834.668	5652.75
834.918	5630.75
835.168	5585.75
835.418	5517.75
835.668	5592.75
835.918	5580.75
836.167	5587.75
836.417	5528.75
836.667	5600.75
836.917	5587.75
837.166	5519.75
837.416	5556.75
837.666	5494.75
837.915	5486.75
838.165	5507.75
838.414	5428.75
838.663	5393.75
838.913	5469.75
839.162	5431.75
839.411	5500.75
839.661	5466.75
839.91	5447.75
840.159	5391.75
840.408	5425.75
840.657	5456.75
840.906	5506.75
841.155	5556.75
841.404	5478.75
841.653	5481.75
841.902	5397.75
842.15	5517.75
842.399	5482.75
842.648	5438.75
842.897	5463.75
843.145	5432.75
843.394	5368.75
843.642	5364.75
843.891	5367.75
844.139	5346.75
844.388	5210.75
844.636	5222.75
844.884	5238.75
845.133	5240.75
845.381	5254.75
845.629	5266.75
845.877	5217.75
846.125	5210.75
846.373	5265.75
846.621	5188.75
846.869	5234.75
847.117	5195.75
847.365	5137.75
847.613	5133.75
847.861	5144.75
848.108	5234.75
848.356	5208.75
848.604	5106.75
848.851	5184.75
849.099	5176.75
849.346	5199.75
849.594	5261.75
849.841	5339.75
850.089	5352.75
850.336	5293.75
850.583	5382.75
850.831	5427.75
851.078	5378.75
851.325	5387.75
851.572	5513.75
851.819	5431.75
852.066	5191.75
852.313	5037.75
852.56	4914.75
852.807	4904.75
853.054	4943.75
853.301	4970.75
853.548	4969.75
853.794	5131.75
854.041	5130.75
854.288	5094.75
854.534	5239.75
854.781	5145.75
855.028	5090.75
855.274	5130.75
855.52	5050.75
855.767	5020.75
856.013	5101.75
856.26	5383.75
856.506	5003.75
856.752	5032.75
856.998	5009.75
857.244	5014.75
857.49	5086.75
857.736	5122.75
857.982	5051.75
858.228	5056.75
858.474	4962.75
858.72	4967.75
858.966	4950.75
859.212	4887.75
859.458	4842.75
859.703	4774.75
859.949	4675.75
860.195	4693.75
860.44	4713.75
860.686	4717.75
860.931	4743.75
861.177	4666.75
861.422	4684.75
861.667	4609.75
861.913	4580.75
862.158	4604.75
862.403	4708.75
862.648	4719.75
862.893	4744.75
863.138	4708.75
863.384	4613.75
863.629	4682.75
863.873	4671.75
864.118	4626.75
864.363	4586.75
864.608	4671.75
864.853	4667.75
865.098	4580.75
865.342	4630.75
865.587	4554.75
865.832	4627.75
866.076	4619.75
866.321	4520.75
866.565	4534.75
866.81	4522.75
867.054	4491.75
867.298	4544.75
867.543	4508.75
867.787	4537.75
868.031	4485.75
868.275	4522.75
868.519	4514.75
868.764	4478.75
869.008	4496.75
869.252	4555.75
869.496	4449.75
869.739	4473.75
869.983	4555.75
870.227	4494.75
870.471	4470.75
870.715	4549.75
870.958	4565.75
871.202	4572.75
871.446	4557.75
871.689	4489.75
871.933	4537.75
872.176	4559.75
872.42	4556.75
872.663	4493.75
872.906	4549.75
873.15	4522.75
873.393	4498.75
873.636	4554.75
873.879	4505.75
874.122	4524.75
874.366	4416.75
874.609	4321.75
874.852	4308.75
875.095	4357.75
875.337	4248.75
875.58	4180.75
875.823	4286.75
876.066	4303.75
876.309	4278.75
876.551	4227.75
876.794	4136.75
877.037	4214.75
877.279	4178.75
877.522	4137.75
877.764	4208.75
878.007	4139.75
878.249	4180.75
878.491	4137.75
878.734	4198.75
878.976	4141.75
879.218	4084.75
879.46	4142.75
879.702	4105.75
879.945	4071.75
880.187	3989.75
880.429	3983.75
880.671	3936.75
880.912	3930.75
881.154	3962.75
881.396	3898.75
881.638	3951.75
881.88	3939.75
882.121	3919.75
882.363	3920.75
882.605	3996.75
882.846	3922.75
883.088	3967.75
883.329	3938.75
883.571	3896.75
883.812	4000.75
884.053	4094.75
884.295	4138.75
884.536	4354.75
884.777	4248.75
885.018	4293.75
885.259	4211.75
885.5	4188.75
885.742	4364.75
885.982	4129.75
886.223	4081.75
886.464	4032.75
886.705	3932.75
886.946	3979.75
887.187	3832.75
887.428	3886.75
887.668	3743.75
887.909	3734.75
888.15	3672.75
888.39	3690.75
888.631	3734.75
888.871	3685.75
889.111	3635.75
889.352	3582.75
889.592	3584.75
889.833	3551.75
890.073	3501.75
890.313	3583.75
890.553	3446.75
890.793	3472.75
891.033	3435.75
891.273	3436.75
891.513	3413.75
891.753	3482.75
891.993	3437.75
892.233	3446.75
892.473	3551.75
892.713	3469.75
892.952	3465.75
893.192	3475.75
893.432	3467.75
893.671	3511.75
893.911	3501.75
894.15	3451.75
894.39	3374.75
894.629	3390.75
894.869	3443.75
895.108	3395.75
895.347	3331.75
895.587	3358.75
895.826	3359.75
896.065	3335.75
896.304	3418.75
896.543	3413.75
896.782	3350.75
897.021	3389.75
897.26	3344.75
897.499	3461.75
897.738	3486.75
897.977	3394.75
898.216	3360.75
898.454	3282.75
898.693	3294.75
898.932	3348.75
899.17	3253.75
899.409	3281.75
899.647	3304.75
899.886	3276.75
900.124	3309.75
900.363	3266.75
900.601	3314.75
900.839	3268.75
901.078	3364.75
901.316	3334.75
901.554	3395.75
901.792	3387.75
902.03	3369.75
902.268	3394.75
902.506	3427.75
902.744	3367.75
902.982	3395.75
903.22	3265.75
903.458	3240.75
903.695	3216.75
903.933	3153.75
904.171	3042.75
904.409	3022.75
904.646	3073.75
904.884	2963.75
905.121	2948.75
905.359	2920.75
905.596	2908.75
905.833	2842.75
906.071	2810.75
906.308	2861.75
906.545	2821.75
906.783	2792.75
907.02	2779.75
907.257	2769.75
907.494	2769.75
907.731	2803.75
907.968	2764.75
908.205	2727.75
908.442	2742.75
908.679	2730.75
908.915	2688.75
909.152	2740.75
909.389	2623.75
909.626	2642.75
909.862	2623.75
910.099	2592.75
910.335	2627.75
910.572	2516.75
910.808	2587.75
911.045	2555.75
911.281	2531.75
911.518	2607.75
911.754	2552.75
911.99	2551.75
912.226	2520.75
912.463	2498.75
912.699	2469.75
912.935	2502.75
913.171	2456.75
913.407	2412.75
913.643	2499.75
913.879	2435.75
914.114	2391.75
914.35	2409.75
914.586	2367.75
914.822	2329.75
915.057	2384.75
915.293	2258.75
915.529	2273.75
915.764	2344.75
916	2322.75
916.235	2312.75
916.471	2330.75
916.706	2263.75
916.941	2266.75
917.177	2287.75
917.412	2342.75
917.647	2315.75
917.882	2272.75
918.117	2338.75
918.352	2296.75
918.588	2346.75
918.823	2271.75
919.057	2267.75
919.292	2166.75
919.527	2247.75
919.762	2200.75
919.997	2246.75
920.232	2156.75
920.466	2188.75
920.701	2066.75
920.935	2119.75
921.17	2083.75
921.405	2078.75
921.639	2125.75
921.873	2078.75
922.108	2096.75
922.342	2092.75
922.576	2023.75
922.811	2040.75
923.045	2102.75
923.279	2134.75
923.513	2004.75
923.747	2132.75
923.981	2077.75
924.215	2017.75
924.449	2027.75
924.683	1964.75
924.917	2030.75
925.151	1983.75
925.385	2066.75
925.618	1984.75
925.852	1984.75
926.086	1903.75
926.319	1958.75
926.553	1985.75
926.786	1984.75
927.02	1966.75
927.253	2000.75
927.486	2032.75
927.72	1936.75
927.953	1974.75
928.186	1965.75
928.42	1960.75
928.653	1921.75
928.886	1915.75
929.119	1953.75
929.352	1927.75
929.585	1946.75
929.818	1880.75
930.051	1932.75
930.284	1934.75
930.516	1873.75
930.749	1855.75
930.982	1905.75
931.215	1907.75
931.447	1803.75
931.68	1848.75
931.912	1827.75
932.145	1820.75
932.377	1871.75
932.61	1998.75
932.842	1786.75
933.074	1856.75
933.307	1807.75
933.539	1908.75
933.771	1905.75
934.003	1827.75
934.236	1932.75
934.468	1938.75
934.7	1838.75
934.932	1889.75
935.164	1823.75
935.395	1804.75
935.627	1826.75
935.859	1810.75
936.091	1781.75
936.323	1861.75
936.554	1872.75
936.786	1807.75
937.017	1759.75
937.249	1825.75
937.481	1746.75
937.712	1807.75
937.943	1822.75
938.175	1790.75
938.406	1785.75
938.637	1842.75
938.869	1781.75
939.1	1817.75
939.331	1761.75
939.562	1829.75
939.793	1829.75
940.024	1830.75
940.255	1826.75
940.486	1803.75
940.717	1763.75
940.948	1795.75
941.179	1733.75
941.409	1759.75
941.64	1724.75
941.871	1767.75
942.102	1730.75
942.332	1734.75
942.563	1804.75
942.793	1758.75
943.024	1710.75
943.254	1744.75
943.484	1790.75
943.715	1817.75
943.945	1774.75
944.175	1689.75
944.405	1679.75
944.636	1719.75
944.866	1744.75
945.096	1770.75
945.326	1702.75
945.556	1753.75
945.786	1747.75
946.016	1712.75
946.245	1660.75
946.475	1705.75
946.705	1693.75
946.935	1687.75
947.164	1730.75
947.394	1648.75
947.624	1679.75
947.853	1714.75
948.083	1687.75
948.312	1642.75
948.542	1608.75
948.771	1616.75
949	1627.75
949.23	1639.75
949.459	1643.75
949.688	1690.75
949.917	1656.75
950.146	1698.75
950.375	1720.75
950.604	1602.75
950.833	1716.75
951.062	1699.75
951.291	1630.75
951.52	1614.75
951.749	1641.75
951.978	1606.75
952.206	1621.75
952.435	1594.75
952.664	1634.75
952.892	1634.75
953.121	1601.75
953.349	1650.75
953.578	1632.75
953.806	1621.75
954.035	1559.75
954.263	1610.75
954.491	1535.75
954.719	1610.75
954.948	1548.75
955.176	1569.75
955.404	1478.75
955.632	1574.75
955.86	1586.75
956.088	1577.75
956.316	1581.75
956.544	1580.75
956.772	1551.75
956.999	1526.75
957.227	1613.75
957.455	1513.75
957.683	1537.75
957.91	1512.75
958.138	1501.75
958.365	1508.75
958.593	1487.75
958.82	1456.75
959.048	1529.75
959.275	1497.75
959.502	1447.75
959.73	1466.75
959.957	1520.75
960.184	1592.75
960.411	1480.75
960.638	1563.75
960.865	1501.75
961.092	1546.75
961.319	1420.75
961.546	1523.75
961.773	1513.75
962	1499.75
962.227	1529.75
962.454	1476.75
962.68	1496.75
962.907	1495.75
963.134	1423.75
963.36	1481.75
963.587	1514.75
963.813	1411.75
964.04	1470.75
964.266	1425.75
964.493	1477.75
964.719	1488.75
964.945	1465.75
965.171	1370.75
965.398	1467.75
965.624	1463.75
965.85	1404.75
966.076	1400.75
966.302	1436.75
966.528	1401.75
966.754	1449.75
966.98	1423.75
967.206	1455.75
967.431	1346.75
967.657	1446.75
967.883	1427.75
968.109	1402.75
968.334	1378.75
968.56	1372.75
968.785	1390.75
969.011	1337.75
969.236	1403.75
969.462	1365.75
969.687	1363.75
969.912	1417.75
970.138	1440.75
970.363	1350.75
970.588	1369.75
970.813	1381.75
971.038	1334.75
971.263	1379.75
971.488	1389.75
971.713	1419.75
971.938	1400.75
972.163	1298.75
972.388	1326.75
972.613	1327.75
972.838	1323.75
973.062	1324.75
973.287	1335.75
973.512	1264.75
973.736	1319.75
973.961	1289.75
974.185	1286.75
974.41	1332.75
974.634	1227.75
974.858	1245.75
975.083	1294.75
975.307	1309.75
975.531	1251.75
975.755	1190.75
975.98	1229.75
976.204	1152.75
976.428	1203.75
976.652	1196.75
976.876	1190.75
977.1	1228.75
977.324	1194.75
977.547	1272.75
977.771	1224.75
977.995	1224.75
978.219	1169.75
978.442	1265.75
978.666	1208.75
978.89	1214.75
979.113	1229.75
979.337	1223.75
979.56	1177.75
979.783	1262.75
980.007	1165.75
980.23	1204.75
980.453	1178.75
980.677	1217.75
980.9	1213.75
981.123	1118.75
981.346	1230.75
981.569	1182.75
981.792	1211.75
982.015	1184.75
982.238	1132.75
982.461	1176.75
982.684	1120.75
982.907	1145.75
983.129	1130.75
983.352	1171.75
983.575	1169.75
983.797	1186.75
984.02	1109.75
984.242	1127.75
984.465	1152.75
984.687	1164.75
984.91	1177.75
985.132	1182.75
985.354	1191.75
985.577	1123.75
985.799	1150.75
986.021	1065.75
986.243	1085.75
986.465	1134.75
986.687	1179.75
986.909	1221.75
987.131	1149.75
987.353	1103.75
987.575	1156.75
987.797	1123.75
988.019	1071.75
988.241	1124.75
988.462	1061.75
988.684	1125.75
988.906	1169.75
989.127	1203.75
989.349	1049.75
989.57	1109.75
989.792	1129.75
990.013	1159.75
990.234	1167.75
990.456	1183.75
990.677	1185.75
990.898	1147.75
991.119	1114.75
991.341	1155.75
991.562	1071.75
991.783	1135.75
992.004	1069.75
992.225	1048.75
992.446	1112.75
992.667	1020.75
992.887	1123.75
993.108	1024.75
993.329	1144.75
993.55	1116.75
993.77	1056.75
993.991	1057.75
994.212	1109.75
994.432	1079.75
994.653	1099.75
994.873	1098.75
995.093	1014.75
995.314	1039.75
995.534	1112.75
995.754	1117.75
995.975	1141.75
996.195	1019.75
996.415	1094.75
996.635	1073.75
996.855	1090.75
997.075	1082.75
997.295	1056.75
997.515	1016.75
997.735	1087.75
997.955	1066.75
998.174	1066.75
998.394	1046.75
998.614	1066.75
998.834	1040.75
999.053	1123.75
999.273	1082.75
999.492	1156.75
999.712	1087.75
999.931	1069.75
1000.151	1086.75
1000.37	1081.75
1000.589	1125.75
1000.809	1057.75
1001.028	1168.75
1001.247	1109.75
1001.466	1016.75
1001.685	1166.75
1001.904	1114.75
1002.123	1085.75
1002.342	1110.75
1002.561	1080.75
1002.78	1090.75
1002.999	1153.75
1003.218	1107.75
1003.436	1066.75
1003.655	1149.75
1003.874	1052.75
1004.092	1097.75
1004.311	1140.75
1004.53	1102.75
1004.748	1193.75
1004.966	1099.75
1005.185	1157.75
1005.403	1147.75
1005.622	1126.75
1005.84	1193.75
1006.058	1120.75
1006.276	1128.75
1006.494	1593.75
1006.712	1111.75
1006.931	1177.75
1007.149	1099.75
1007.367	1101.75
1007.584	1135.75
1007.802	1160.75
1008.02	1126.75
1008.238	1199.75
1008.456	1201.75
1008.673	1074.75
1008.891	1169.75
1009.109	1140.75
1009.326	1175.75
1009.544	1273.75
1009.761	1162.75
1009.979	1222.75
1010.196	1263.75
1010.413	1331.75
1010.631	1369.75
1010.848	1391.75
1011.065	1410.75
1011.282	1335.75
1011.5	1274.75
1011.717	1406.75
1011.934	1338.75
1012.151	1393.75
1012.368	1365.75
1012.585	1278.75
1012.801	1343.75
1013.018	1308.75
1013.235	1294.75
1013.452	1302.75
1013.669	1322.75
1013.885	1297.75
1014.102	1340.75
1014.318	1302.75
1014.535	1262.75
1014.751	1311.75
1014.968	1281.75
1015.184	1356.75
1015.401	1279.75
1015.617	1305.75
1015.833	1230.75
1016.049	1253.75
1016.266	1233.75
1016.482	1254.75
1016.698	1181.75
1016.914	1228.75
1017.13	1202.75
1017.346	1210.75
1017.562	1249.75
1017.778	1210.75
1017.993	1199.75
1018.209	1220.75
1018.425	1193.75
1018.641	1201.75
1018.856	1181.75
1019.072	1210.75
1019.288	1249.75
1019.503	1197.75
1019.719	1115.75
1019.934	1132.75
1020.149	1206.75
1020.365	1159.75
1020.58	1119.75
1020.795	1138.75
1021.011	1109.75
1021.226	1083.75
1021.441	1103.75
1021.656	1039.75
1021.871	1000.75
1022.086	990.75
1022.301	988.75
1022.516	967.75
1022.731	1043.75
1022.946	961.75
1023.16	946.75
1023.375	947.75
1023.59	887.75
1023.804	873.75
1024.019	1000.75
1024.234	859.75
1024.448	903.75
1024.663	833.75
1024.877	850.75
1025.092	872.75
1025.306	886.75
1025.52	773.75
1025.734	861.75
1025.949	816.75
1026.163	764.75
1026.377	739.75
1026.591	777.75
1026.805	716.75
1027.019	712.75
1027.233	667.75
1027.447	633.75
1027.661	728.75
1027.875	667.75
1028.088	693.75
1028.302	614.75
1028.516	597.75
1028.73	599.75
1028.943	615.75
1029.157	571.75
1029.37	527.75
1029.584	-2.25
1029.797	0.75
1030.011	-3.25
1030.224	-3.25
