Data from QEP037381__323__11-14-26-592.txt Node

Date: Wed Dec 21 11:14:26 EST 2022
User: dcclab
Spectrometer: QEP03738
Trigger mode: 4
Integration Time (sec): 1.000000E1
Scans to average: 1
Electric dark correction enabled: true
Nonlinearity correction enabled: false
Boxcar width: 0
XAxis mode: Wavelengths
Number of Pixels in Spectrum: 1044
>>>>>Begin Spectral Data<<<<<
784.041	14.62
784.3	0.62
784.558	-2.38
784.817	-5.38
785.075	96406.62
785.334	16861.62
785.592	7961.62
785.851	5548.62
786.109	4200.62
786.368	3247.62
786.626	2622.62
786.884	2154.62
787.143	1835.62
787.401	1551.62
787.659	1404.62
787.917	1185.62
788.175	1084.62
788.433	932.62
788.691	855.62
788.949	801.62
789.207	730.62
789.465	644.62
789.723	611.62
789.98	574.62
790.238	601.62
790.496	552.62
790.753	544.62
791.011	592.62
791.268	522.62
791.526	495.62
791.783	520.62
792.041	490.62
792.298	412.62
792.556	477.62
792.813	460.62
793.07	435.62
793.327	413.62
793.584	500.62
793.841	427.62
794.099	457.62
794.356	502.62
794.613	399.62
794.869	419.62
795.126	407.62
795.383	384.62
795.64	403.62
795.897	361.62
796.153	409.62
796.41	390.62
796.667	386.62
796.923	373.62
797.18	380.62
797.436	420.62
797.693	368.62
797.949	422.62
798.206	456.62
798.462	347.62
798.718	416.62
798.974	385.62
799.231	435.62
799.487	422.62
799.743	410.62
799.999	425.62
800.255	423.62
800.511	387.62
800.767	446.62
801.023	416.62
801.279	430.62
801.534	436.62
801.79	457.62
802.046	442.62
802.302	518.62
802.557	528.62
802.813	596.62
803.068	624.62
803.324	796.62
803.579	975.62
803.835	1221.62
804.09	1664.62
804.345	2100.62
804.601	2632.62
804.856	3194.62
805.111	3668.62
805.366	4028.62
805.621	4248.62
805.876	4419.62
806.131	4571.62
806.386	4596.62
806.641	4678.62
806.896	4745.62
807.151	4883.62
807.406	4906.62
807.661	5030.62
807.915	5156.62
808.17	5264.62
808.425	5279.62
808.679	5344.62
808.934	5474.62
809.188	5437.62
809.443	5584.62
809.697	5666.62
809.951	5677.62
810.206	5692.62
810.46	5767.62
810.714	5846.62
810.968	5928.62
811.223	5900.62
811.477	5971.62
811.731	6073.62
811.985	6074.62
812.239	6047.62
812.493	6072.62
812.747	6176.62
813	6137.62
813.254	6210.62
813.508	6306.62
813.762	6279.62
814.015	6290.62
814.269	6357.62
814.522	6450.62
814.776	6522.62
815.03	6596.62
815.283	6702.62
815.536	6833.62
815.79	6941.62
816.043	7021.62
816.296	7184.62
816.55	7165.62
816.803	7288.62
817.056	7544.62
817.309	7553.62
817.562	7673.62
817.815	7698.62
818.068	7747.62
818.321	7851.62
818.574	7901.62
818.827	8128.62
819.079	8170.62
819.332	8470.62
819.585	8508.62
819.838	8698.62
820.09	8677.62
820.343	8785.62
820.595	8696.62
820.848	8868.62
821.1	8890.62
821.353	8823.62
821.605	8817.62
821.857	8793.62
822.11	8811.62
822.362	8789.62
822.614	8794.62
822.866	8884.62
823.118	8864.62
823.37	8928.62
823.622	8945.62
823.874	8974.62
824.126	9029.62
824.378	9050.62
824.63	9050.62
824.882	9104.62
825.134	9133.62
825.385	9098.62
825.637	8988.62
825.888	8997.62
826.14	8955.62
826.392	8944.62
826.643	8906.62
826.895	8896.62
827.146	8851.62
827.397	8801.62
827.649	8883.62
827.9	8812.62
828.151	8825.62
828.402	8828.62
828.653	8880.62
828.905	8963.62
829.156	8989.62
829.407	8893.62
829.658	9004.62
829.909	9035.62
830.159	9082.62
830.41	9068.62
830.661	9027.62
830.912	8957.62
831.162	8971.62
831.413	8980.62
831.664	8992.62
831.914	9048.62
832.165	8932.62
832.415	8949.62
832.666	8919.62
832.916	9002.62
833.167	8933.62
833.417	9005.62
833.667	9030.62
833.917	8956.62
834.168	8976.62
834.418	8993.62
834.668	8907.62
834.918	8909.62
835.168	8779.62
835.418	8768.62
835.668	8762.62
835.918	8817.62
836.167	8713.62
836.417	8687.62
836.667	8715.62
836.917	8750.62
837.166	8702.62
837.416	8812.62
837.666	8832.62
837.915	8840.62
838.165	8761.62
838.414	8721.62
838.663	8708.62
838.913	8715.62
839.162	8793.62
839.411	8818.62
839.661	8729.62
839.91	8774.62
840.159	8814.62
840.408	8794.62
840.657	8849.62
840.906	8845.62
841.155	8860.62
841.404	8897.62
841.653	8932.62
841.902	8870.62
842.15	8938.62
842.399	8983.62
842.648	8970.62
842.897	8962.62
843.145	8789.62
843.394	8812.62
843.642	8743.62
843.891	8774.62
844.139	8664.62
844.388	8572.62
844.636	8510.62
844.884	8575.62
845.133	8574.62
845.381	8571.62
845.629	8629.62
845.877	8584.62
846.125	8675.62
846.373	8640.62
846.621	8617.62
846.869	8589.62
847.117	8508.62
847.365	8464.62
847.613	8484.62
847.861	8408.62
848.108	8541.62
848.356	8457.62
848.604	8381.62
848.851	8515.62
849.099	8598.62
849.346	8570.62
849.594	8641.62
849.841	8693.62
850.089	8756.62
850.336	8792.62
850.583	8886.62
850.831	8928.62
851.078	8908.62
851.325	8756.62
851.572	8973.62
851.819	8814.62
852.066	8524.62
852.313	8310.62
852.56	8200.62
852.807	8192.62
853.054	8101.62
853.301	8206.62
853.548	8229.62
853.794	8314.62
854.041	8377.62
854.288	8319.62
854.534	8569.62
854.781	8448.62
855.028	8487.62
855.274	8525.62
855.52	8423.62
855.767	8456.62
856.013	8512.62
856.26	8762.62
856.506	8376.62
856.752	8423.62
856.998	8462.62
857.244	8422.62
857.49	8427.62
857.736	8512.62
857.982	8565.62
858.228	8487.62
858.474	8393.62
858.72	8327.62
858.966	8228.62
859.212	8165.62
859.458	7977.62
859.703	7927.62
859.949	7849.62
860.195	7928.62
860.44	7875.62
860.686	7835.62
860.931	7904.62
861.177	7794.62
861.422	7759.62
861.667	7639.62
861.913	7582.62
862.158	7641.62
862.403	7724.62
862.648	7703.62
862.893	7821.62
863.138	7835.62
863.384	7757.62
863.629	7702.62
863.873	7724.62
864.118	7715.62
864.363	7700.62
864.608	7742.62
864.853	7676.62
865.098	7672.62
865.342	7600.62
865.587	7537.62
865.832	7619.62
866.076	7594.62
866.321	7544.62
866.565	7582.62
866.81	7461.62
867.054	7508.62
867.298	7485.62
867.543	7458.62
867.787	7565.62
868.031	7491.62
868.275	7577.62
868.519	7548.62
868.764	7590.62
869.008	7553.62
869.252	7692.62
869.496	7651.62
869.739	7630.62
869.983	7685.62
870.227	7758.62
870.471	7701.62
870.715	7872.62
870.958	7839.62
871.202	7844.62
871.446	7945.62
871.689	7812.62
871.933	7929.62
872.176	7804.62
872.42	7781.62
872.663	7853.62
872.906	7847.62
873.15	7804.62
873.393	7785.62
873.636	7907.62
873.879	7828.62
874.122	7723.62
874.366	7593.62
874.609	7576.62
874.852	7461.62
875.095	7460.62
875.337	7384.62
875.58	7282.62
875.823	7276.62
876.066	7335.62
876.309	7309.62
876.551	7180.62
876.794	7126.62
877.037	7225.62
877.279	7109.62
877.522	7175.62
877.764	7151.62
878.007	7060.62
878.249	7114.62
878.491	7013.62
878.734	7032.62
878.976	6992.62
879.218	6935.62
879.46	6987.62
879.702	6841.62
879.945	6836.62
880.187	6709.62
880.429	6776.62
880.671	6726.62
880.912	6758.62
881.154	6754.62
881.396	6604.62
881.638	6704.62
881.88	6728.62
882.121	6664.62
882.363	6710.62
882.605	6743.62
882.846	6750.62
883.088	6739.62
883.329	6782.62
883.571	6818.62
883.812	7030.62
884.053	7268.62
884.295	7584.62
884.536	7764.62
884.777	7750.62
885.018	7735.62
885.259	7726.62
885.5	7559.62
885.742	7676.62
885.982	7538.62
886.223	7342.62
886.464	7274.62
886.705	7120.62
886.946	7045.62
887.187	6838.62
887.428	6776.62
887.668	6554.62
887.909	6394.62
888.15	6343.62
888.39	6325.62
888.631	6326.62
888.871	6215.62
889.111	6155.62
889.352	6144.62
889.592	6007.62
889.833	5994.62
890.073	5918.62
890.313	5936.62
890.553	5826.62
890.793	5874.62
891.033	5797.62
891.273	5780.62
891.513	5790.62
891.753	5822.62
891.993	5776.62
892.233	5835.62
892.473	5958.62
892.713	5829.62
892.952	5856.62
893.192	5877.62
893.432	5863.62
893.671	5912.62
893.911	5828.62
894.15	5845.62
894.39	5758.62
894.629	5745.62
894.869	5736.62
895.108	5674.62
895.347	5611.62
895.587	5735.62
895.826	5708.62
896.065	5681.62
896.304	5791.62
896.543	5783.62
896.782	5694.62
897.021	5751.62
897.26	5759.62
897.499	5810.62
897.738	5828.62
897.977	5745.62
898.216	5750.62
898.454	5726.62
898.693	5722.62
898.932	5655.62
899.17	5619.62
899.409	5650.62
899.647	5726.62
899.886	5627.62
900.124	5711.62
900.363	5739.62
900.601	5794.62
900.839	5866.62
901.078	5949.62
901.316	5930.62
901.554	6062.62
901.792	6174.62
902.03	6168.62
902.268	6186.62
902.506	6191.62
902.744	6150.62
902.982	6001.62
903.22	5849.62
903.458	5722.62
903.695	5633.62
903.933	5510.62
904.171	5342.62
904.409	5232.62
904.646	5252.62
904.884	5078.62
905.121	5062.62
905.359	4959.62
905.596	4887.62
905.833	4848.62
906.071	4782.62
906.308	4802.62
906.545	4797.62
906.783	4691.62
907.02	4797.62
907.257	4720.62
907.494	4702.62
907.731	4696.62
907.968	4672.62
908.205	4655.62
908.442	4586.62
908.679	4592.62
908.915	4580.62
909.152	4543.62
909.389	4427.62
909.626	4464.62
909.862	4384.62
910.099	4405.62
910.335	4449.62
910.572	4338.62
910.808	4368.62
911.045	4249.62
911.281	4305.62
911.518	4312.62
911.754	4265.62
911.99	4292.62
912.226	4221.62
912.463	4183.62
912.699	4177.62
912.935	4146.62
913.171	4150.62
913.407	4100.62
913.643	4072.62
913.879	4061.62
914.114	4014.62
914.35	3940.62
914.586	3927.62
914.822	3913.62
915.057	3988.62
915.293	3879.62
915.529	3814.62
915.764	3879.62
916	3901.62
916.235	3864.62
916.471	3899.62
916.706	3780.62
916.941	3816.62
917.177	3788.62
917.412	3854.62
917.647	3835.62
917.882	3823.62
918.117	3847.62
918.352	3869.62
918.588	3881.62
918.823	3806.62
919.057	3737.62
919.292	3696.62
919.527	3734.62
919.762	3680.62
919.997	3662.62
920.232	3618.62
920.466	3643.62
920.701	3463.62
920.935	3571.62
921.17	3494.62
921.405	3493.62
921.639	3532.62
921.873	3503.62
922.108	3542.62
922.342	3508.62
922.576	3415.62
922.811	3462.62
923.045	3473.62
923.279	3503.62
923.513	3392.62
923.747	3417.62
923.981	3429.62
924.215	3355.62
924.449	3353.62
924.683	3316.62
924.917	3302.62
925.151	3317.62
925.385	3392.62
925.618	3323.62
925.852	3307.62
926.086	3267.62
926.319	3333.62
926.553	3290.62
926.786	3274.62
927.02	3265.62
927.253	3335.62
927.486	3336.62
927.72	3264.62
927.953	3337.62
928.186	3280.62
928.42	3280.62
928.653	3252.62
928.886	3264.62
929.119	3297.62
929.352	3212.62
929.585	3233.62
929.818	3190.62
930.051	3155.62
930.284	3182.62
930.516	3117.62
930.749	3114.62
930.982	3133.62
931.215	3146.62
931.447	3029.62
931.68	3078.62
931.912	3064.62
932.145	3068.62
932.377	3125.62
932.61	3234.62
932.842	3011.62
933.074	3124.62
933.307	3040.62
933.539	3180.62
933.771	3106.62
934.003	3064.62
934.236	3154.62
934.468	3157.62
934.7	3078.62
934.932	3116.62
935.164	3067.62
935.395	3035.62
935.627	3133.62
935.859	3059.62
936.091	3035.62
936.323	3064.62
936.554	3126.62
936.786	3027.62
937.017	2997.62
937.249	3034.62
937.481	2942.62
937.712	3026.62
937.943	3035.62
938.175	3000.62
938.406	2978.62
938.637	3056.62
938.869	2977.62
939.1	3032.62
939.331	2999.62
939.562	3020.62
939.793	3002.62
940.024	2992.62
940.255	3015.62
940.486	2947.62
940.717	2941.62
940.948	2959.62
941.179	2911.62
941.409	2950.62
941.64	2902.62
941.871	2931.62
942.102	2896.62
942.332	2924.62
942.563	2964.62
942.793	2916.62
943.024	2916.62
943.254	2888.62
943.484	2982.62
943.715	2972.62
943.945	2913.62
944.175	2855.62
944.405	2846.62
944.636	2868.62
944.866	2948.62
945.096	2912.62
945.326	2833.62
945.556	2920.62
945.786	2915.62
946.016	2866.62
946.245	2838.62
946.475	2815.62
946.705	2812.62
946.935	2799.62
947.164	2800.62
947.394	2747.62
947.624	2797.62
947.853	2845.62
948.083	2800.62
948.312	2739.62
948.542	2723.62
948.771	2691.62
949	2727.62
949.23	2726.62
949.459	2729.62
949.688	2739.62
949.917	2746.62
950.146	2731.62
950.375	2770.62
950.604	2693.62
950.833	2798.62
951.062	2785.62
951.291	2728.62
951.52	2698.62
951.749	2703.62
951.978	2665.62
952.206	2669.62
952.435	2690.62
952.664	2713.62
952.892	2724.62
953.121	2697.62
953.349	2731.62
953.578	2670.62
953.806	2654.62
954.035	2589.62
954.263	2632.62
954.491	2560.62
954.719	2651.62
954.948	2565.62
955.176	2579.62
955.404	2544.62
955.632	2613.62
955.86	2584.62
956.088	2567.62
956.316	2574.62
956.544	2567.62
956.772	2506.62
956.999	2499.62
957.227	2606.62
957.455	2488.62
957.683	2527.62
957.91	2443.62
958.138	2460.62
958.365	2471.62
958.593	2440.62
958.82	2396.62
959.048	2481.62
959.275	2414.62
959.502	2464.62
959.73	2423.62
959.957	2479.62
960.184	2470.62
960.411	2422.62
960.638	2452.62
960.865	2427.62
961.092	2412.62
961.319	2358.62
961.546	2423.62
961.773	2466.62
962	2404.62
962.227	2430.62
962.454	2417.62
962.68	2400.62
962.907	2428.62
963.134	2348.62
963.36	2408.62
963.587	2404.62
963.813	2310.62
964.04	2352.62
964.266	2300.62
964.493	2383.62
964.719	2400.62
964.945	2344.62
965.171	2255.62
965.398	2311.62
965.624	2352.62
965.85	2249.62
966.076	2264.62
966.302	2272.62
966.528	2263.62
966.754	2277.62
966.98	2247.62
967.206	2280.62
967.431	2192.62
967.657	2294.62
967.883	2267.62
968.109	2233.62
968.334	2188.62
968.56	2174.62
968.785	2207.62
969.011	2134.62
969.236	2206.62
969.462	2131.62
969.687	2168.62
969.912	2226.62
970.138	2268.62
970.363	2129.62
970.588	2192.62
970.813	2140.62
971.038	2158.62
971.263	2156.62
971.488	2171.62
971.713	2224.62
971.938	2168.62
972.163	2066.62
972.388	2150.62
972.613	2123.62
972.838	2117.62
973.062	2121.62
973.287	2085.62
973.512	2039.62
973.736	2082.62
973.961	2056.62
974.185	2033.62
974.41	2076.62
974.634	1984.62
974.858	2009.62
975.083	2045.62
975.307	2050.62
975.531	1988.62
975.755	1945.62
975.98	1968.62
976.204	1921.62
976.428	1893.62
976.652	1924.62
976.876	1918.62
977.1	1929.62
977.324	1930.62
977.547	1961.62
977.771	1940.62
977.995	1917.62
978.219	1864.62
978.442	1964.62
978.666	1921.62
978.89	1905.62
979.113	1921.62
979.337	1895.62
979.56	1857.62
979.783	1930.62
980.007	1860.62
980.23	1881.62
980.453	1859.62
980.677	1890.62
980.9	1837.62
981.123	1784.62
981.346	1887.62
981.569	1846.62
981.792	1875.62
982.015	1862.62
982.238	1810.62
982.461	1843.62
982.684	1810.62
982.907	1780.62
983.129	1739.62
983.352	1829.62
983.575	1781.62
983.797	1814.62
984.02	1772.62
984.242	1763.62
984.465	1781.62
984.687	1793.62
984.91	1821.62
985.132	1764.62
985.354	1784.62
985.577	1779.62
985.799	1746.62
986.021	1694.62
986.243	1706.62
986.465	1742.62
986.687	1779.62
986.909	1810.62
987.131	1739.62
987.353	1694.62
987.575	1763.62
987.797	1689.62
988.019	1671.62
988.241	1705.62
988.462	1657.62
988.684	1750.62
988.906	1764.62
989.127	1798.62
989.349	1673.62
989.57	1690.62
989.792	1726.62
990.013	1762.62
990.234	1714.62
990.456	1793.62
990.677	1755.62
990.898	1669.62
991.119	1694.62
991.341	1700.62
991.562	1641.62
991.783	1682.62
992.004	1641.62
992.225	1612.62
992.446	1670.62
992.667	1582.62
992.887	1670.62
993.108	1561.62
993.329	1692.62
993.55	1628.62
993.77	1595.62
993.991	1581.62
994.212	1627.62
994.432	1608.62
994.653	1607.62
994.873	1644.62
995.093	1525.62
995.314	1573.62
995.534	1647.62
995.754	1654.62
995.975	1678.62
996.195	1553.62
996.415	1597.62
996.635	1578.62
996.855	1622.62
997.075	1578.62
997.295	1620.62
997.515	1563.62
997.735	1642.62
997.955	1607.62
998.174	1593.62
998.394	1575.62
998.614	1629.62
998.834	1576.62
999.053	1653.62
999.273	1589.62
999.492	1665.62
999.712	1582.62
999.931	1564.62
1000.151	1593.62
1000.37	1551.62
1000.589	1636.62
1000.809	1542.62
1001.028	1653.62
1001.247	1576.62
1001.466	1472.62
1001.685	1622.62
1001.904	1554.62
1002.123	1559.62
1002.342	1544.62
1002.561	1501.62
1002.78	1526.62
1002.999	1597.62
1003.218	1532.62
1003.436	1524.62
1003.655	1571.62
1003.874	1484.62
1004.092	1520.62
1004.311	1576.62
1004.53	1533.62
1004.748	1617.62
1004.966	1527.62
1005.185	1559.62
1005.403	1575.62
1005.622	1565.62
1005.84	1611.62
1006.058	1524.62
1006.276	1567.62
1006.494	2064.62
1006.712	1561.62
1006.931	1630.62
1007.149	1552.62
1007.367	1567.62
1007.584	1632.62
1007.802	1664.62
1008.02	1612.62
1008.238	1693.62
1008.456	1737.62
1008.673	1606.62
1008.891	1753.62
1009.109	1704.62
1009.326	1770.62
1009.544	1913.62
1009.761	1833.62
1009.979	1984.62
1010.196	2048.62
1010.413	2183.62
1010.631	2268.62
1010.848	2360.62
1011.065	2451.62
1011.282	2399.62
1011.5	2296.62
1011.717	2423.62
1011.934	2383.62
1012.151	2378.62
1012.368	2389.62
1012.585	2320.62
1012.801	2362.62
1013.018	2377.62
1013.235	2358.62
1013.452	2427.62
1013.669	2419.62
1013.885	2402.62
1014.102	2441.62
1014.318	2458.62
1014.535	2382.62
1014.751	2429.62
1014.968	2426.62
1015.184	2460.62
1015.401	2295.62
1015.617	2376.62
1015.833	2336.62
1016.049	2335.62
1016.266	2277.62
1016.482	2291.62
1016.698	2220.62
1016.914	2260.62
1017.13	2243.62
1017.346	2215.62
1017.562	2290.62
1017.778	2204.62
1017.993	2197.62
1018.209	2237.62
1018.425	2211.62
1018.641	2205.62
1018.856	2177.62
1019.072	2218.62
1019.288	2253.62
1019.503	2191.62
1019.719	2147.62
1019.934	2138.62
1020.149	2196.62
1020.365	2125.62
1020.58	2089.62
1020.795	2071.62
1021.011	1975.62
1021.226	1916.62
1021.441	1977.62
1021.656	1848.62
1021.871	1776.62
1022.086	1732.62
1022.301	1719.62
1022.516	1691.62
1022.731	1729.62
1022.946	1648.62
1023.16	1615.62
1023.375	1549.62
1023.59	1520.62
1023.804	1463.62
1024.019	1576.62
1024.234	1407.62
1024.448	1410.62
1024.663	1344.62
1024.877	1343.62
1025.092	1349.62
1025.306	1354.62
1025.52	1231.62
1025.734	1314.62
1025.949	1230.62
1026.163	1209.62
1026.377	1117.62
1026.591	1159.62
1026.805	1062.62
1027.019	1066.62
1027.233	1008.62
1027.447	952.62
1027.661	1057.62
1027.875	1006.62
1028.088	997.62
1028.302	928.62
1028.516	899.62
1028.73	893.62
1028.943	882.62
1029.157	809.62
1029.37	762.62
1029.584	-2.38
1029.797	-0.38
1030.011	-1.38
1030.224	-3.38
