Data from QEP037381__364__16-36-49-922.txt Node

Date: Fri Dec 16 16:36:49 EST 2022
User: dcclab
Spectrometer: QEP03738
Trigger mode: 4
Integration Time (sec): 1.000000E1
Scans to average: 1
Electric dark correction enabled: true
Nonlinearity correction enabled: false
Boxcar width: 0
XAxis mode: Wavelengths
Number of Pixels in Spectrum: 1044
>>>>>Begin Spectral Data<<<<<
784.041	15.25
784.3	-2.75
784.558	-2.75
784.817	-3.75
785.075	99254.25
785.334	17153.25
785.592	8074.25
785.851	5605.25
786.109	4199.25
786.368	3257.25
786.626	2654.25
786.884	2219.25
787.143	1888.25
787.401	1537.25
787.659	1413.25
787.917	1186.25
788.175	1099.25
788.433	937.25
788.691	872.25
788.949	813.25
789.207	778.25
789.465	676.25
789.723	649.25
789.98	603.25
790.238	637.25
790.496	599.25
790.753	583.25
791.011	632.25
791.268	558.25
791.526	557.25
791.783	556.25
792.041	543.25
792.298	463.25
792.556	538.25
792.813	513.25
793.07	483.25
793.327	477.25
793.584	542.25
793.841	473.25
794.099	497.25
794.356	541.25
794.613	450.25
794.869	483.25
795.126	452.25
795.383	439.25
795.64	452.25
795.897	423.25
796.153	480.25
796.41	471.25
796.667	438.25
796.923	457.25
797.18	464.25
797.436	489.25
797.693	451.25
797.949	519.25
798.206	528.25
798.462	457.25
798.718	520.25
798.974	503.25
799.231	542.25
799.487	527.25
799.743	551.25
799.999	573.25
800.255	575.25
800.511	570.25
800.767	632.25
801.023	619.25
801.279	668.25
801.534	719.25
801.79	782.25
802.046	854.25
802.302	1027.25
802.557	1211.25
802.813	1520.25
803.068	1910.25
803.324	2734.25
803.579	3736.25
803.835	5245.25
804.09	7230.25
804.345	9506.25
804.601	12076.25
804.856	14587.25
805.111	16869.25
805.366	18528.25
805.621	19770.25
805.876	20673.25
806.131	21279.25
806.386	21713.25
806.641	22194.25
806.896	22620.25
807.151	23052.25
807.406	23469.25
807.661	23897.25
807.915	24398.25
808.17	24787.25
808.425	25210.25
808.679	25343.25
808.934	25803.25
809.188	26057.25
809.443	26329.25
809.697	26673.25
809.951	26839.25
810.206	27103.25
810.46	27407.25
810.714	27714.25
810.968	27965.25
811.223	28226.25
811.477	28486.25
811.731	28741.25
811.985	28905.25
812.239	29063.25
812.493	29277.25
812.747	29449.25
813	29576.25
813.254	29630.25
813.508	29851.25
813.762	29990.25
814.015	30150.25
814.269	30432.25
814.522	30720.25
814.776	31131.25
815.03	31635.25
815.283	32000.25
815.536	32650.25
815.79	33100.25
816.043	33562.25
816.296	34115.25
816.55	34449.25
816.803	35032.25
817.056	35510.25
817.309	35829.25
817.562	36274.25
817.815	36531.25
818.068	36989.25
818.321	37285.25
818.574	37790.25
818.827	38434.25
819.079	38881.25
819.332	39701.25
819.585	40032.25
819.838	40605.25
820.09	40760.25
820.343	41206.25
820.595	41453.25
820.848	41796.25
821.1	41936.25
821.353	41968.25
821.605	41968.25
821.857	42137.25
822.11	41861.25
822.362	41719.25
822.614	41761.25
822.866	41805.25
823.118	41678.25
823.37	41972.25
823.622	42144.25
823.874	42126.25
824.126	42320.25
824.378	42338.25
824.63	42530.25
824.882	42728.25
825.134	42587.25
825.385	42658.25
825.637	42649.25
825.888	42503.25
826.14	42550.25
826.392	42189.25
826.643	42105.25
826.895	41950.25
827.146	41916.25
827.397	41747.25
827.649	41898.25
827.9	41823.25
828.151	41802.25
828.402	41940.25
828.653	42064.25
828.905	42327.25
829.156	42207.25
829.407	42295.25
829.658	42324.25
829.909	42303.25
830.159	42212.25
830.41	42159.25
830.661	41784.25
830.912	41677.25
831.162	41447.25
831.413	41492.25
831.664	41496.25
831.914	41395.25
832.165	41321.25
832.415	41381.25
832.666	41342.25
832.916	41448.25
833.167	41503.25
833.417	41457.25
833.667	41318.25
833.917	41198.25
834.168	41263.25
834.418	40940.25
834.668	40876.25
834.918	40661.25
835.168	40564.25
835.418	40426.25
835.668	40367.25
835.918	40298.25
836.167	40128.25
836.417	40109.25
836.667	40062.25
836.917	40055.25
837.166	39883.25
837.416	40041.25
837.666	39841.25
837.915	39828.25
838.165	39677.25
838.414	39598.25
838.663	39527.25
838.913	39687.25
839.162	39417.25
839.411	39422.25
839.661	39218.25
839.91	39201.25
840.159	39103.25
840.408	39110.25
840.657	39151.25
840.906	39129.25
841.155	39151.25
841.404	39125.25
841.653	39203.25
841.902	39280.25
842.15	39219.25
842.399	39206.25
842.648	39175.25
842.897	38944.25
843.145	38867.25
843.394	38708.25
843.642	38439.25
843.891	38268.25
844.139	38086.25
844.388	37858.25
844.636	37705.25
844.884	37758.25
845.133	37674.25
845.381	37694.25
845.629	37765.25
845.877	37500.25
846.125	37597.25
846.373	37463.25
846.621	37400.25
846.869	37306.25
847.117	37108.25
847.365	36831.25
847.613	36667.25
847.861	36698.25
848.108	36504.25
848.356	36615.25
848.604	36405.25
848.851	36559.25
849.099	36525.25
849.346	36559.25
849.594	36791.25
849.841	36870.25
850.089	36902.25
850.336	36860.25
850.583	36993.25
850.831	36783.25
851.078	36587.25
851.325	36586.25
851.572	36577.25
851.819	36134.25
852.066	35656.25
852.313	35234.25
852.56	35004.25
852.807	34726.25
853.054	34605.25
853.301	34625.25
853.548	34637.25
853.794	34780.25
854.041	34893.25
854.288	35066.25
854.534	35292.25
854.781	35205.25
855.028	35188.25
855.274	35150.25
855.52	35003.25
855.767	34574.25
856.013	34642.25
856.26	34884.25
856.506	34422.25
856.752	34407.25
856.998	34382.25
857.244	34396.25
857.49	34663.25
857.736	34620.25
857.982	34752.25
858.228	34595.25
858.474	34385.25
858.72	34192.25
858.966	33916.25
859.212	33585.25
859.458	33187.25
859.703	33074.25
859.949	32575.25
860.195	32502.25
860.44	32280.25
860.686	32172.25
860.931	32155.25
861.177	31910.25
861.422	31912.25
861.667	31918.25
861.913	31913.25
862.158	31804.25
862.403	31945.25
862.648	32096.25
862.893	32157.25
863.138	32193.25
863.384	32114.25
863.629	32012.25
863.873	31960.25
864.118	31846.25
864.363	31660.25
864.608	31609.25
864.853	31493.25
865.098	31487.25
865.342	31476.25
865.587	31106.25
865.832	31140.25
866.076	31181.25
866.321	30950.25
866.565	30837.25
866.81	30724.25
867.054	30609.25
867.298	30455.25
867.543	30554.25
867.787	30420.25
868.031	30513.25
868.275	30311.25
868.519	30311.25
868.764	30238.25
869.008	30265.25
869.252	30115.25
869.496	29952.25
869.739	29884.25
869.983	29917.25
870.227	29898.25
870.471	29900.25
870.715	29984.25
870.958	30061.25
871.202	30139.25
871.446	30110.25
871.689	30079.25
871.933	30178.25
872.176	30132.25
872.42	29984.25
872.663	29910.25
872.906	29743.25
873.15	29668.25
873.393	29384.25
873.636	29292.25
873.879	29071.25
874.122	28827.25
874.366	28638.25
874.609	28325.25
874.852	28218.25
875.095	28091.25
875.337	28074.25
875.58	27831.25
875.823	27878.25
876.066	27855.25
876.309	27829.25
876.551	27507.25
876.794	27440.25
877.037	27377.25
877.279	27311.25
877.522	27426.25
877.764	27383.25
878.007	27282.25
878.249	27186.25
878.491	27217.25
878.734	27155.25
878.976	27049.25
879.218	26968.25
879.46	26860.25
879.702	26714.25
879.945	26439.25
880.187	26277.25
880.429	26227.25
880.671	25943.25
880.912	25952.25
881.154	25921.25
881.396	25770.25
881.638	25846.25
881.88	25790.25
882.121	25703.25
882.363	25663.25
882.605	25748.25
882.846	25538.25
883.088	25511.25
883.329	25444.25
883.571	25270.25
883.812	25330.25
884.053	25516.25
884.295	25802.25
884.536	25900.25
884.777	25911.25
885.018	25714.25
885.259	25724.25
885.5	25640.25
885.742	25803.25
885.982	25616.25
886.223	25532.25
886.464	25361.25
886.705	25137.25
886.946	25008.25
887.187	24682.25
887.428	24526.25
887.668	24225.25
887.909	23835.25
888.15	23694.25
888.39	23692.25
888.631	23551.25
888.871	23413.25
889.111	23287.25
889.352	23114.25
889.592	22890.25
889.833	22723.25
890.073	22596.25
890.313	22569.25
890.553	22351.25
890.793	22303.25
891.033	22263.25
891.273	22111.25
891.513	21960.25
891.753	22037.25
891.993	21912.25
892.233	21932.25
892.473	22087.25
892.713	22068.25
892.952	21952.25
893.192	22003.25
893.432	21897.25
893.671	22002.25
893.911	21981.25
894.15	21741.25
894.39	21540.25
894.629	21408.25
894.869	21376.25
895.108	21255.25
895.347	21149.25
895.587	21224.25
895.826	21063.25
896.065	21047.25
896.304	21049.25
896.543	21108.25
896.782	20857.25
897.021	20867.25
897.26	20836.25
897.499	20831.25
897.738	20714.25
897.977	20633.25
898.216	20474.25
898.454	20233.25
898.693	20168.25
898.932	20304.25
899.17	20077.25
899.409	19983.25
899.647	19968.25
899.886	19928.25
900.124	19951.25
900.363	19952.25
900.601	19979.25
900.839	20048.25
901.078	20005.25
901.316	20093.25
901.554	20156.25
901.792	20241.25
902.03	20196.25
902.268	20198.25
902.506	20205.25
902.744	19950.25
902.982	19837.25
903.22	19498.25
903.458	19306.25
903.695	19126.25
903.933	18851.25
904.171	18505.25
904.409	18378.25
904.646	18217.25
904.884	17956.25
905.121	17744.25
905.359	17514.25
905.596	17266.25
905.833	17176.25
906.071	17060.25
906.308	17234.25
906.545	17067.25
906.783	17052.25
907.02	16966.25
907.257	16838.25
907.494	16787.25
907.731	16777.25
907.968	16733.25
908.205	16575.25
908.442	16532.25
908.679	16409.25
908.915	16280.25
909.152	16173.25
909.389	15895.25
909.626	15886.25
909.862	15715.25
910.099	15780.25
910.335	15754.25
910.572	15537.25
910.808	15546.25
911.045	15475.25
911.281	15505.25
911.518	15454.25
911.754	15278.25
911.99	15276.25
912.226	15168.25
912.463	15006.25
912.699	14851.25
912.935	14844.25
913.171	14635.25
913.407	14598.25
913.643	14468.25
913.879	14342.25
914.114	14181.25
914.35	14056.25
914.586	14027.25
914.822	13854.25
915.057	13886.25
915.293	13612.25
915.529	13661.25
915.764	13618.25
916	13530.25
916.235	13595.25
916.471	13534.25
916.706	13508.25
916.941	13406.25
917.177	13387.25
917.412	13470.25
917.647	13438.25
917.882	13314.25
918.117	13316.25
918.352	13254.25
918.588	13258.25
918.823	13098.25
919.057	12966.25
919.292	12861.25
919.527	12881.25
919.762	12571.25
919.997	12583.25
920.232	12461.25
920.466	12328.25
920.701	12133.25
920.935	12185.25
921.17	12046.25
921.405	12052.25
921.639	12020.25
921.873	11872.25
922.108	11882.25
922.342	11799.25
922.576	11799.25
922.811	11730.25
923.045	11668.25
923.279	11689.25
923.513	11514.25
923.747	11542.25
923.981	11514.25
924.215	11314.25
924.449	11391.25
924.683	11173.25
924.917	11085.25
925.151	11019.25
925.385	11146.25
925.618	11095.25
925.852	10941.25
926.086	10975.25
926.319	11003.25
926.553	10923.25
926.786	10978.25
927.02	10941.25
927.253	10874.25
927.486	10933.25
927.72	10888.25
927.953	10961.25
928.186	10764.25
928.42	10826.25
928.653	10732.25
928.886	10650.25
929.119	10587.25
929.352	10517.25
929.585	10458.25
929.818	10354.25
930.051	10366.25
930.284	10314.25
930.516	10085.25
930.749	10120.25
930.982	10051.25
931.215	9955.25
931.447	9947.25
931.68	9954.25
931.912	9874.25
932.145	9933.25
932.377	9857.25
932.61	10040.25
932.842	9796.25
933.074	9879.25
933.307	9758.25
933.539	9894.25
933.771	9909.25
934.003	9838.25
934.236	9852.25
934.468	9908.25
934.7	9712.25
934.932	9784.25
935.164	9735.25
935.395	9683.25
935.627	9699.25
935.859	9633.25
936.091	9583.25
936.323	9591.25
936.554	9530.25
936.786	9495.25
937.017	9434.25
937.249	9356.25
937.481	9299.25
937.712	9379.25
937.943	9309.25
938.175	9327.25
938.406	9332.25
938.637	9325.25
938.869	9265.25
939.1	9258.25
939.331	9178.25
939.562	9163.25
939.793	9190.25
940.024	9093.25
940.255	9138.25
940.486	9013.25
940.717	8990.25
940.948	9016.25
941.179	8886.25
941.409	8840.25
941.64	8844.25
941.871	8895.25
942.102	8800.25
942.332	8857.25
942.563	8854.25
942.793	8826.25
943.024	8783.25
943.254	8859.25
943.484	8837.25
943.715	8907.25
943.945	8849.25
944.175	8807.25
944.405	8732.25
944.636	8728.25
944.866	8713.25
945.096	8726.25
945.326	8631.25
945.556	8657.25
945.786	8644.25
946.016	8537.25
946.245	8442.25
946.475	8373.25
946.705	8341.25
946.935	8289.25
947.164	8295.25
947.394	8189.25
947.624	8171.25
947.853	8184.25
948.083	8160.25
948.312	8126.25
948.542	8058.25
948.771	7978.25
949	8011.25
949.23	8000.25
949.459	8017.25
949.688	8039.25
949.917	8040.25
950.146	7954.25
950.375	7960.25
950.604	7894.25
950.833	7918.25
951.062	7914.25
951.291	7792.25
951.52	7806.25
951.749	7907.25
951.978	7715.25
952.206	7670.25
952.435	7728.25
952.664	7708.25
952.892	7702.25
953.121	7647.25
953.349	7618.25
953.578	7699.25
953.806	7582.25
954.035	7482.25
954.263	7499.25
954.491	7443.25
954.719	7402.25
954.948	7385.25
955.176	7298.25
955.404	7243.25
955.632	7207.25
955.86	7223.25
956.088	7173.25
956.316	7192.25
956.544	7223.25
956.772	7071.25
956.999	7035.25
957.227	7112.25
957.455	6962.25
957.683	6997.25
957.91	6841.25
958.138	6837.25
958.365	6846.25
958.593	6781.25
958.82	6685.25
959.048	6808.25
959.275	6726.25
959.502	6717.25
959.73	6673.25
959.957	6668.25
960.184	6711.25
960.411	6621.25
960.638	6695.25
960.865	6666.25
961.092	6639.25
961.319	6524.25
961.546	6634.25
961.773	6610.25
962	6600.25
962.227	6608.25
962.454	6556.25
962.68	6456.25
962.907	6496.25
963.134	6423.25
963.36	6407.25
963.587	6397.25
963.813	6257.25
964.04	6249.25
964.266	6166.25
964.493	6256.25
964.719	6178.25
964.945	6151.25
965.171	6039.25
965.398	6119.25
965.624	6085.25
965.85	5958.25
966.076	5944.25
966.302	5945.25
966.528	5859.25
966.754	5920.25
966.98	5874.25
967.206	5880.25
967.431	5786.25
967.657	5836.25
967.883	5835.25
968.109	5779.25
968.334	5757.25
968.56	5729.25
968.785	5690.25
969.011	5694.25
969.236	5710.25
969.462	5617.25
969.687	5643.25
969.912	5624.25
970.138	5625.25
970.363	5575.25
970.588	5587.25
970.813	5583.25
971.038	5463.25
971.263	5471.25
971.488	5466.25
971.713	5476.25
971.938	5430.25
972.163	5389.25
972.388	5366.25
972.613	5310.25
972.838	5367.25
973.062	5280.25
973.287	5311.25
973.512	5234.25
973.736	5208.25
973.961	5198.25
974.185	5164.25
974.41	5154.25
974.634	5047.25
974.858	5027.25
975.083	5081.25
975.307	5037.25
975.531	4957.25
975.755	4894.25
975.98	4913.25
976.204	4829.25
976.428	4780.25
976.652	4743.25
976.876	4752.25
977.1	4778.25
977.324	4740.25
977.547	4712.25
977.771	4714.25
977.995	4712.25
978.219	4635.25
978.442	4721.25
978.666	4669.25
978.89	4649.25
979.113	4654.25
979.337	4676.25
979.56	4560.25
979.783	4607.25
980.007	4519.25
980.23	4529.25
980.453	4520.25
980.677	4500.25
980.9	4489.25
981.123	4363.25
981.346	4484.25
981.569	4394.25
981.792	4404.25
982.015	4376.25
982.238	4291.25
982.461	4336.25
982.684	4240.25
982.907	4174.25
983.129	4138.25
983.352	4208.25
983.575	4230.25
983.797	4193.25
984.02	4101.25
984.242	4083.25
984.465	4083.25
984.687	4080.25
984.91	4105.25
985.132	4069.25
985.354	4037.25
985.577	4026.25
985.799	3994.25
986.021	3878.25
986.243	3888.25
986.465	3915.25
986.687	3901.25
986.909	3985.25
987.131	3883.25
987.353	3870.25
987.575	3877.25
987.797	3852.25
988.019	3784.25
988.241	3787.25
988.462	3708.25
988.684	3787.25
988.906	3780.25
989.127	3833.25
989.349	3688.25
989.57	3707.25
989.792	3742.25
990.013	3764.25
990.234	3740.25
990.456	3712.25
990.677	3716.25
990.898	3623.25
991.119	3608.25
991.341	3641.25
991.562	3575.25
991.783	3598.25
992.004	3518.25
992.225	3513.25
992.446	3544.25
992.667	3444.25
992.887	3481.25
993.108	3386.25
993.329	3461.25
993.55	3371.25
993.77	3322.25
993.991	3290.25
994.212	3347.25
994.432	3325.25
994.653	3321.25
994.873	3249.25
995.093	3153.25
995.314	3213.25
995.534	3302.25
995.754	3252.25
995.975	3282.25
996.195	3145.25
996.415	3196.25
996.635	3154.25
996.855	3195.25
997.075	3126.25
997.295	3110.25
997.515	3107.25
997.735	3120.25
997.955	3078.25
998.174	3088.25
998.394	3045.25
998.614	3095.25
998.834	3046.25
999.053	3094.25
999.273	3047.25
999.492	3118.25
999.712	3002.25
999.931	2978.25
1000.151	3025.25
1000.37	3009.25
1000.589	3045.25
1000.809	2896.25
1001.028	3007.25
1001.247	2948.25
1001.466	2813.25
1001.685	2960.25
1001.904	2903.25
1002.123	2870.25
1002.342	2852.25
1002.561	2792.25
1002.78	2807.25
1002.999	2840.25
1003.218	2822.25
1003.436	2735.25
1003.655	2808.25
1003.874	2718.25
1004.092	2740.25
1004.311	2740.25
1004.53	2696.25
1004.748	2789.25
1004.966	2666.25
1005.185	2738.25
1005.403	2718.25
1005.622	2695.25
1005.84	2745.25
1006.058	2644.25
1006.276	2649.25
1006.494	3151.25
1006.712	2667.25
1006.931	2690.25
1007.149	2625.25
1007.367	2605.25
1007.584	2664.25
1007.802	2643.25
1008.02	2607.25
1008.238	2722.25
1008.456	2712.25
1008.673	2572.25
1008.891	2691.25
1009.109	2616.25
1009.326	2666.25
1009.544	2762.25
1009.761	2667.25
1009.979	2767.25
1010.196	2776.25
1010.413	2891.25
1010.631	2961.25
1010.848	2990.25
1011.065	2983.25
1011.282	2964.25
1011.5	2855.25
1011.717	3007.25
1011.934	2926.25
1012.151	2948.25
1012.368	2913.25
1012.585	2867.25
1012.801	2907.25
1013.018	2900.25
1013.235	2841.25
1013.452	2858.25
1013.669	2890.25
1013.885	2874.25
1014.102	2897.25
1014.318	2854.25
1014.535	2807.25
1014.751	2832.25
1014.968	2819.25
1015.184	2834.25
1015.401	2752.25
1015.617	2779.25
1015.833	2722.25
1016.049	2701.25
1016.266	2691.25
1016.482	2683.25
1016.698	2609.25
1016.914	2625.25
1017.13	2568.25
1017.346	2573.25
1017.562	2650.25
1017.778	2591.25
1017.993	2520.25
1018.209	2598.25
1018.425	2554.25
1018.641	2520.25
1018.856	2527.25
1019.072	2545.25
1019.288	2568.25
1019.503	2528.25
1019.719	2423.25
1019.934	2440.25
1020.149	2542.25
1020.365	2448.25
1020.58	2410.25
1020.795	2426.25
1021.011	2347.25
1021.226	2333.25
1021.441	2292.25
1021.656	2229.25
1021.871	2131.25
1022.086	2109.25
1022.301	2069.25
1022.516	2073.25
1022.731	2095.25
1022.946	2015.25
1023.16	1991.25
1023.375	1936.25
1023.59	1943.25
1023.804	1844.25
1024.019	1956.25
1024.234	1820.25
1024.448	1816.25
1024.663	1752.25
1024.877	1732.25
1025.092	1754.25
1025.306	1736.25
1025.52	1614.25
1025.734	1731.25
1025.949	1585.25
1026.163	1568.25
1026.377	1500.25
1026.591	1513.25
1026.805	1416.25
1027.019	1407.25
1027.233	1375.25
1027.447	1305.25
1027.661	1377.25
1027.875	1339.25
1028.088	1328.25
1028.302	1249.25
1028.516	1214.25
1028.73	1193.25
1028.943	1184.25
1029.157	1087.25
1029.37	1023.25
1029.584	0.25
1029.797	-3.75
1030.011	0.25
1030.224	-2.75
