Data from QEP037381__233__14-33-38-754.txt Node

Date: Fri Apr 28 14:33:38 EDT 2023
User: dcclab
Spectrometer: QEP03738
Trigger mode: 4
Integration Time (sec): 1.000000E1
Scans to average: 1
Electric dark correction enabled: true
Nonlinearity correction enabled: false
Boxcar width: 0
XAxis mode: Wavelengths
Number of Pixels in Spectrum: 1044
>>>>>Begin Spectral Data<<<<<
784.041	11.25
784.3	-1.75
784.558	1.25
784.817	-4.75
785.075	77426.25
785.334	15646.25
785.592	8166.25
785.851	5701.25
786.109	4317.25
786.368	3300.25
786.626	2688.25
786.884	2244.25
787.143	1891.25
787.401	1550.25
787.659	1406.25
787.917	1215.25
788.175	1102.25
788.433	977.25
788.691	881.25
788.949	787.25
789.207	762.25
789.465	667.25
789.723	646.25
789.98	573.25
790.238	624.25
790.496	582.25
790.753	547.25
791.011	608.25
791.268	528.25
791.526	496.25
791.783	531.25
792.041	498.25
792.298	429.25
792.556	500.25
792.813	491.25
793.07	459.25
793.327	439.25
793.584	532.25
793.841	446.25
794.099	450.25
794.356	497.25
794.613	418.25
794.869	451.25
795.126	419.25
795.383	401.25
795.64	419.25
795.897	376.25
796.153	436.25
796.41	434.25
796.667	414.25
796.923	419.25
797.18	412.25
797.436	435.25
797.693	398.25
797.949	450.25
798.206	473.25
798.462	391.25
798.718	444.25
798.974	436.25
799.231	462.25
799.487	460.25
799.743	462.25
799.999	488.25
800.255	475.25
800.511	484.25
800.767	507.25
801.023	490.25
801.279	512.25
801.534	549.25
801.79	602.25
802.046	628.25
802.302	750.25
802.557	850.25
802.813	1069.25
803.068	1324.25
803.324	1874.25
803.579	2584.25
803.835	3538.25
804.09	4878.25
804.345	6199.25
804.601	7501.25
804.856	8642.25
805.111	9651.25
805.366	10191.25
805.621	10514.25
805.876	10861.25
806.131	11040.25
806.386	11152.25
806.641	11302.25
806.896	11415.25
807.151	11584.25
807.406	11785.25
807.661	11955.25
807.915	12124.25
808.17	12283.25
808.425	12369.25
808.679	12430.25
808.934	12745.25
809.188	12737.25
809.443	12882.25
809.697	13025.25
809.951	13076.25
810.206	13121.25
810.46	13244.25
810.714	13251.25
810.968	13488.25
811.223	13515.25
811.477	13548.25
811.731	13739.25
811.985	13701.25
812.239	13708.25
812.493	13771.25
812.747	13940.25
813	13868.25
813.254	13938.25
813.508	14141.25
813.762	14044.25
814.015	14158.25
814.269	14259.25
814.522	14408.25
814.776	14474.25
815.03	14650.25
815.283	14781.25
815.536	14947.25
815.79	15143.25
816.043	15325.25
816.296	15499.25
816.55	15635.25
816.803	15743.25
817.056	15979.25
817.309	16101.25
817.562	16245.25
817.815	16324.25
818.068	16440.25
818.321	16696.25
818.574	16793.25
818.827	17134.25
819.079	17197.25
819.332	17633.25
819.585	17816.25
819.838	17958.25
820.09	18086.25
820.343	18231.25
820.595	18241.25
820.848	18479.25
821.1	18406.25
821.353	18426.25
821.605	18290.25
821.857	18465.25
822.11	18261.25
822.362	18362.25
822.614	18255.25
822.866	18268.25
823.118	18257.25
823.37	18426.25
823.622	18455.25
823.874	18478.25
824.126	18622.25
824.378	18478.25
824.63	18686.25
824.882	18590.25
825.134	18523.25
825.385	18586.25
825.637	18542.25
825.888	18397.25
826.14	18395.25
826.392	18312.25
826.643	18184.25
826.895	18217.25
827.146	18060.25
827.397	18000.25
827.649	18079.25
827.9	17968.25
828.151	17931.25
828.402	18091.25
828.653	18103.25
828.905	18122.25
829.156	18149.25
829.407	18161.25
829.658	18168.25
829.909	18091.25
830.159	17995.25
830.41	17946.25
830.661	17841.25
830.912	17771.25
831.162	17533.25
831.413	17643.25
831.664	17599.25
831.914	17620.25
832.165	17627.25
832.415	17583.25
832.666	17631.25
832.916	17628.25
833.167	17615.25
833.417	17606.25
833.667	17554.25
833.917	17465.25
834.168	17440.25
834.418	17310.25
834.668	17242.25
834.918	17188.25
835.168	17138.25
835.418	17146.25
835.668	17141.25
835.918	17010.25
836.167	17002.25
836.417	16869.25
836.667	16952.25
836.917	16952.25
837.166	16823.25
837.416	16832.25
837.666	16757.25
837.915	16702.25
838.165	16752.25
838.414	16607.25
838.663	16493.25
838.913	16509.25
839.162	16445.25
839.411	16428.25
839.661	16353.25
839.91	16315.25
840.159	16267.25
840.408	16285.25
840.657	16330.25
840.906	16288.25
841.155	16329.25
841.404	16318.25
841.653	16277.25
841.902	16335.25
842.15	16298.25
842.399	16178.25
842.648	16227.25
842.897	16174.25
843.145	16056.25
843.394	15907.25
843.642	15886.25
843.891	15877.25
844.139	15774.25
844.388	15686.25
844.636	15608.25
844.884	15533.25
845.133	15465.25
845.381	15506.25
845.629	15547.25
845.877	15386.25
846.125	15361.25
846.373	15400.25
846.621	15323.25
846.869	15271.25
847.117	15262.25
847.365	15173.25
847.613	15067.25
847.861	15012.25
848.108	15060.25
848.356	15047.25
848.604	14943.25
848.851	14930.25
849.099	14997.25
849.346	15019.25
849.594	15089.25
849.841	15200.25
850.089	15068.25
850.336	15091.25
850.583	15140.25
850.831	14940.25
851.078	14926.25
851.325	14848.25
851.572	14824.25
851.819	14686.25
852.066	14466.25
852.313	14284.25
852.56	14178.25
852.807	14159.25
853.054	13983.25
853.301	14016.25
853.548	14061.25
853.794	14195.25
854.041	14268.25
854.288	14222.25
854.534	14344.25
854.781	14372.25
855.028	14263.25
855.274	14282.25
855.52	14094.25
855.767	13981.25
856.013	14079.25
856.26	14267.25
856.506	13814.25
856.752	13961.25
856.998	13843.25
857.244	13818.25
857.49	13938.25
857.736	13857.25
857.982	13892.25
858.228	13931.25
858.474	13765.25
858.72	13752.25
858.966	13621.25
859.212	13538.25
859.458	13347.25
859.703	13221.25
859.949	13064.25
860.195	13144.25
860.44	12983.25
860.686	12816.25
860.931	12892.25
861.177	12801.25
861.422	12802.25
861.667	12809.25
861.913	12695.25
862.158	12791.25
862.403	12884.25
862.648	12977.25
862.893	12841.25
863.138	12886.25
863.384	12780.25
863.629	12759.25
863.873	12742.25
864.118	12686.25
864.363	12542.25
864.608	12493.25
864.853	12504.25
865.098	12363.25
865.342	12314.25
865.587	12244.25
865.832	12384.25
866.076	12301.25
866.321	12199.25
866.565	12102.25
866.81	12006.25
867.054	12061.25
867.298	11998.25
867.543	11959.25
867.787	11977.25
868.031	11957.25
868.275	11928.25
868.519	11920.25
868.764	11941.25
869.008	11909.25
869.252	11901.25
869.496	11801.25
869.739	11779.25
869.983	11831.25
870.227	11757.25
870.471	11697.25
870.715	11730.25
870.958	11739.25
871.202	11742.25
871.446	11715.25
871.689	11706.25
871.933	11706.25
872.176	11770.25
872.42	11741.25
872.663	11640.25
872.906	11623.25
873.15	11606.25
873.393	11497.25
873.636	11418.25
873.879	11393.25
874.122	11260.25
874.366	11129.25
874.609	11103.25
874.852	11021.25
875.095	10964.25
875.337	10891.25
875.58	10797.25
875.823	10835.25
876.066	10859.25
876.309	10747.25
876.551	10689.25
876.794	10614.25
877.037	10758.25
877.279	10571.25
877.522	10692.25
877.764	10621.25
878.007	10641.25
878.249	10667.25
878.491	10657.25
878.734	10647.25
878.976	10608.25
879.218	10484.25
879.46	10440.25
879.702	10334.25
879.945	10244.25
880.187	10148.25
880.429	10094.25
880.671	10144.25
880.912	10031.25
881.154	10021.25
881.396	9941.25
881.638	9939.25
881.88	9945.25
882.121	9882.25
882.363	9968.25
882.605	9910.25
882.846	9868.25
883.088	9871.25
883.329	9758.25
883.571	9803.25
883.812	9737.25
884.053	9943.25
884.295	9951.25
884.536	10109.25
884.777	10044.25
885.018	9931.25
885.259	9871.25
885.5	9771.25
885.742	10027.25
885.982	9777.25
886.223	9702.25
886.464	9632.25
886.705	9593.25
886.946	9500.25
887.187	9396.25
887.428	9422.25
887.668	9210.25
887.909	9160.25
888.15	9089.25
888.39	9091.25
888.631	9050.25
888.871	8971.25
889.111	8886.25
889.352	8791.25
889.592	8698.25
889.833	8715.25
890.073	8677.25
890.313	8683.25
890.553	8501.25
890.793	8605.25
891.033	8466.25
891.273	8404.25
891.513	8416.25
891.753	8407.25
891.993	8322.25
892.233	8409.25
892.473	8421.25
892.713	8415.25
892.952	8356.25
893.192	8362.25
893.432	8314.25
893.671	8388.25
893.911	8328.25
894.15	8253.25
894.39	8132.25
894.629	8129.25
894.869	8082.25
895.108	8022.25
895.347	7971.25
895.587	7995.25
895.826	7858.25
896.065	7891.25
896.304	7892.25
896.543	7853.25
896.782	7765.25
897.021	7813.25
897.26	7780.25
897.499	7842.25
897.738	7844.25
897.977	7674.25
898.216	7615.25
898.454	7532.25
898.693	7582.25
898.932	7468.25
899.17	7411.25
899.409	7441.25
899.647	7370.25
899.886	7341.25
900.124	7366.25
900.363	7323.25
900.601	7375.25
900.839	7424.25
901.078	7327.25
901.316	7419.25
901.554	7385.25
901.792	7377.25
902.03	7268.25
902.268	7343.25
902.506	7436.25
902.744	7237.25
902.982	7299.25
903.22	7134.25
903.458	7157.25
903.695	7037.25
903.933	6978.25
904.171	6843.25
904.409	6761.25
904.646	6738.25
904.884	6644.25
905.121	6651.25
905.359	6572.25
905.596	6522.25
905.833	6412.25
906.071	6424.25
906.308	6430.25
906.545	6394.25
906.783	6343.25
907.02	6384.25
907.257	6346.25
907.494	6375.25
907.731	6301.25
907.968	6312.25
908.205	6243.25
908.442	6241.25
908.679	6201.25
908.915	6120.25
909.152	6104.25
909.389	6037.25
909.626	6035.25
909.862	5934.25
910.099	5959.25
910.335	5992.25
910.572	5802.25
910.808	5813.25
911.045	5871.25
911.281	5783.25
911.518	5849.25
911.754	5733.25
911.99	5789.25
912.226	5678.25
912.463	5652.25
912.699	5571.25
912.935	5598.25
913.171	5526.25
913.407	5475.25
913.643	5520.25
913.879	5420.25
914.114	5405.25
914.35	5297.25
914.586	5318.25
914.822	5196.25
915.057	5325.25
915.293	5118.25
915.529	5068.25
915.764	5153.25
916	5141.25
916.235	5084.25
916.471	5158.25
916.706	5040.25
916.941	5082.25
917.177	5062.25
917.412	5063.25
917.647	5038.25
917.882	5014.25
918.117	5056.25
918.352	5014.25
918.588	5033.25
918.823	4920.25
919.057	4869.25
919.292	4742.25
919.527	4825.25
919.762	4771.25
919.997	4725.25
920.232	4666.25
920.466	4692.25
920.701	4528.25
920.935	4528.25
921.17	4499.25
921.405	4481.25
921.639	4505.25
921.873	4492.25
922.108	4505.25
922.342	4471.25
922.576	4422.25
922.811	4392.25
923.045	4425.25
923.279	4444.25
923.513	4295.25
923.747	4379.25
923.981	4341.25
924.215	4272.25
924.449	4263.25
924.683	4210.25
924.917	4163.25
925.151	4173.25
925.385	4230.25
925.618	4182.25
925.852	4156.25
926.086	4096.25
926.319	4126.25
926.553	4077.25
926.786	4091.25
927.02	4114.25
927.253	4136.25
927.486	4081.25
927.72	4052.25
927.953	4108.25
928.186	4017.25
928.42	4048.25
928.653	3969.25
928.886	3916.25
929.119	3996.25
929.352	3957.25
929.585	3955.25
929.818	3877.25
930.051	3895.25
930.284	3849.25
930.516	3789.25
930.749	3782.25
930.982	3815.25
931.215	3769.25
931.447	3705.25
931.68	3731.25
931.912	3689.25
932.145	3662.25
932.377	3711.25
932.61	3813.25
932.842	3645.25
933.074	3716.25
933.307	3677.25
933.539	3744.25
933.771	3747.25
934.003	3639.25
934.236	3725.25
934.468	3733.25
934.7	3612.25
934.932	3687.25
935.164	3610.25
935.395	3578.25
935.627	3598.25
935.859	3638.25
936.091	3523.25
936.323	3603.25
936.554	3604.25
936.786	3530.25
937.017	3507.25
937.249	3517.25
937.481	3459.25
937.712	3498.25
937.943	3456.25
938.175	3472.25
938.406	3475.25
938.637	3525.25
938.869	3442.25
939.1	3474.25
939.331	3417.25
939.562	3436.25
939.793	3446.25
940.024	3418.25
940.255	3443.25
940.486	3407.25
940.717	3377.25
940.948	3335.25
941.179	3320.25
941.409	3337.25
941.64	3336.25
941.871	3288.25
942.102	3313.25
942.332	3315.25
942.563	3328.25
942.793	3329.25
943.024	3263.25
943.254	3327.25
943.484	3327.25
943.715	3355.25
943.945	3291.25
944.175	3259.25
944.405	3199.25
944.636	3220.25
944.866	3263.25
945.096	3303.25
945.326	3170.25
945.556	3225.25
945.786	3220.25
946.016	3167.25
946.245	3128.25
946.475	3134.25
946.705	3101.25
946.935	3122.25
947.164	3115.25
947.394	3062.25
947.624	3073.25
947.853	3076.25
948.083	3054.25
948.312	3035.25
948.542	2953.25
948.771	2917.25
949	2979.25
949.23	2983.25
949.459	2995.25
949.688	3047.25
949.917	3003.25
950.146	2952.25
950.375	3052.25
950.604	2942.25
950.833	3022.25
951.062	2995.25
951.291	2965.25
951.52	2905.25
951.749	2933.25
951.978	2886.25
952.206	2903.25
952.435	2919.25
952.664	2957.25
952.892	2901.25
953.121	2888.25
953.349	2902.25
953.578	2907.25
953.806	2835.25
954.035	2815.25
954.263	2824.25
954.491	2764.25
954.719	2811.25
954.948	2756.25
955.176	2738.25
955.404	2701.25
955.632	2751.25
955.86	2775.25
956.088	2733.25
956.316	2756.25
956.544	2752.25
956.772	2696.25
956.999	2649.25
957.227	2747.25
957.455	2655.25
957.683	2622.25
957.91	2606.25
958.138	2583.25
958.365	2607.25
958.593	2586.25
958.82	2495.25
959.048	2628.25
959.275	2598.25
959.502	2550.25
959.73	2519.25
959.957	2541.25
960.184	2564.25
960.411	2529.25
960.638	2557.25
960.865	2530.25
961.092	2543.25
961.319	2458.25
961.546	2564.25
961.773	2569.25
962	2529.25
962.227	2532.25
962.454	2535.25
962.68	2477.25
962.907	2503.25
963.134	2482.25
963.36	2445.25
963.587	2474.25
963.813	2430.25
964.04	2430.25
964.266	2334.25
964.493	2452.25
964.719	2439.25
964.945	2427.25
965.171	2332.25
965.398	2349.25
965.624	2391.25
965.85	2305.25
966.076	2300.25
966.302	2338.25
966.528	2321.25
966.754	2352.25
966.98	2311.25
967.206	2297.25
967.431	2249.25
967.657	2330.25
967.883	2281.25
968.109	2306.25
968.334	2238.25
968.56	2218.25
968.785	2236.25
969.011	2196.25
969.236	2245.25
969.462	2176.25
969.687	2234.25
969.912	2254.25
970.138	2256.25
970.363	2178.25
970.588	2195.25
970.813	2174.25
971.038	2148.25
971.263	2199.25
971.488	2177.25
971.713	2206.25
971.938	2195.25
972.163	2105.25
972.388	2087.25
972.613	2114.25
972.838	2116.25
973.062	2097.25
973.287	2105.25
973.512	2005.25
973.736	2079.25
973.961	2059.25
974.185	2030.25
974.41	2072.25
974.634	1990.25
974.858	1987.25
975.083	2036.25
975.307	2030.25
975.531	1973.25
975.755	1894.25
975.98	1932.25
976.204	1877.25
976.428	1892.25
976.652	1874.25
976.876	1862.25
977.1	1886.25
977.324	1861.25
977.547	1903.25
977.771	1917.25
977.995	1877.25
978.219	1806.25
978.442	1952.25
978.666	1877.25
978.89	1861.25
979.113	1854.25
979.337	1863.25
979.56	1819.25
979.783	1902.25
980.007	1809.25
980.23	1823.25
980.453	1775.25
980.677	1815.25
980.9	1833.25
981.123	1725.25
981.346	1806.25
981.569	1794.25
981.792	1792.25
982.015	1771.25
982.238	1735.25
982.461	1761.25
982.684	1697.25
982.907	1682.25
983.129	1671.25
983.352	1743.25
983.575	1713.25
983.797	1725.25
984.02	1696.25
984.242	1657.25
984.465	1708.25
984.687	1725.25
984.91	1739.25
985.132	1702.25
985.354	1701.25
985.577	1684.25
985.799	1679.25
986.021	1614.25
986.243	1620.25
986.465	1651.25
986.687	1674.25
986.909	1716.25
987.131	1626.25
987.353	1597.25
987.575	1637.25
987.797	1586.25
988.019	1554.25
988.241	1621.25
988.462	1571.25
988.684	1641.25
988.906	1653.25
989.127	1675.25
989.349	1547.25
989.57	1602.25
989.792	1638.25
990.013	1631.25
990.234	1612.25
990.456	1662.25
990.677	1628.25
990.898	1542.25
991.119	1584.25
991.341	1587.25
991.562	1524.25
991.783	1574.25
992.004	1500.25
992.225	1495.25
992.446	1551.25
992.667	1432.25
992.887	1554.25
993.108	1430.25
993.329	1579.25
993.55	1501.25
993.77	1456.25
993.991	1459.25
994.212	1489.25
994.432	1467.25
994.653	1461.25
994.873	1488.25
995.093	1341.25
995.314	1412.25
995.534	1488.25
995.754	1500.25
995.975	1516.25
996.195	1390.25
996.415	1461.25
996.635	1440.25
996.855	1467.25
997.075	1418.25
997.295	1418.25
997.515	1421.25
997.735	1455.25
997.955	1436.25
998.174	1423.25
998.394	1351.25
998.614	1430.25
998.834	1408.25
999.053	1459.25
999.273	1425.25
999.492	1475.25
999.712	1402.25
999.931	1362.25
1000.151	1414.25
1000.37	1388.25
1000.589	1449.25
1000.809	1376.25
1001.028	1482.25
1001.247	1426.25
1001.466	1313.25
1001.685	1452.25
1001.904	1397.25
1002.123	1376.25
1002.342	1386.25
1002.561	1338.25
1002.78	1354.25
1002.999	1451.25
1003.218	1380.25
1003.436	1356.25
1003.655	1383.25
1003.874	1325.25
1004.092	1360.25
1004.311	1407.25
1004.53	1334.25
1004.748	1447.25
1004.966	1324.25
1005.185	1406.25
1005.403	1394.25
1005.622	1376.25
1005.84	1442.25
1006.058	1338.25
1006.276	1362.25
1006.494	1732.25
1006.712	1351.25
1006.931	1438.25
1007.149	1331.25
1007.367	1305.25
1007.584	1365.25
1007.802	1401.25
1008.02	1329.25
1008.238	1424.25
1008.456	1409.25
1008.673	1281.25
1008.891	1350.25
1009.109	1315.25
1009.326	1388.25
1009.544	1458.25
1009.761	1328.25
1009.979	1422.25
1010.196	1416.25
1010.413	1485.25
1010.631	1513.25
1010.848	1495.25
1011.065	1530.25
1011.282	1463.25
1011.5	1377.25
1011.717	1515.25
1011.934	1468.25
1012.151	1485.25
1012.368	1455.25
1012.585	1385.25
1012.801	1455.25
1013.018	1412.25
1013.235	1380.25
1013.452	1402.25
1013.669	1402.25
1013.885	1372.25
1014.102	1428.25
1014.318	1395.25
1014.535	1316.25
1014.751	1373.25
1014.968	1380.25
1015.184	1413.25
1015.401	1291.25
1015.617	1334.25
1015.833	1311.25
1016.049	1332.25
1016.266	1282.25
1016.482	1304.25
1016.698	1225.25
1016.914	1257.25
1017.13	1235.25
1017.346	1245.25
1017.562	1290.25
1017.778	1210.25
1017.993	1226.25
1018.209	1241.25
1018.425	1222.25
1018.641	1158.25
1018.856	1173.25
1019.072	1192.25
1019.288	1213.25
1019.503	1190.25
1019.719	1101.25
1019.934	1125.25
1020.149	1205.25
1020.365	1116.25
1020.58	1108.25
1020.795	1164.25
1021.011	1097.25
1021.226	1061.25
1021.441	1117.25
1021.656	1044.25
1021.871	981.25
1022.086	992.25
1022.301	991.25
1022.516	972.25
1022.731	1046.25
1022.946	948.25
1023.16	946.25
1023.375	929.25
1023.59	929.25
1023.804	885.25
1024.019	976.25
1024.234	854.25
1024.448	908.25
1024.663	822.25
1024.877	859.25
1025.092	878.25
1025.306	882.25
1025.52	785.25
1025.734	891.25
1025.949	814.25
1026.163	792.25
1026.377	719.25
1026.591	786.25
1026.805	707.25
1027.019	689.25
1027.233	672.25
1027.447	617.25
1027.661	750.25
1027.875	678.25
1028.088	690.25
1028.302	634.25
1028.516	601.25
1028.73	620.25
1028.943	607.25
1029.157	565.25
1029.37	539.25
1029.584	-1.75
1029.797	-3.75
1030.011	-0.75
1030.224	0.25
