Data from QEP037381__225__14-32-18-754.txt Node

Date: Fri Apr 28 14:32:18 EDT 2023
User: dcclab
Spectrometer: QEP03738
Trigger mode: 4
Integration Time (sec): 1.000000E1
Scans to average: 1
Electric dark correction enabled: true
Nonlinearity correction enabled: false
Boxcar width: 0
XAxis mode: Wavelengths
Number of Pixels in Spectrum: 1044
>>>>>Begin Spectral Data<<<<<
784.041	13.25
784.3	1.25
784.558	-4.75
784.817	-4.75
785.075	73606.25
785.334	15195.25
785.592	7934.25
785.851	5596.25
786.109	4219.25
786.368	3296.25
786.626	2705.25
786.884	2206.25
787.143	1861.25
787.401	1531.25
787.659	1393.25
787.917	1180.25
788.175	1067.25
788.433	951.25
788.691	870.25
788.949	785.25
789.207	757.25
789.465	661.25
789.723	626.25
789.98	571.25
790.238	604.25
790.496	587.25
790.753	552.25
791.011	601.25
791.268	520.25
791.526	532.25
791.783	526.25
792.041	529.25
792.298	435.25
792.556	511.25
792.813	471.25
793.07	463.25
793.327	461.25
793.584	526.25
793.841	440.25
794.099	450.25
794.356	518.25
794.613	408.25
794.869	454.25
795.126	431.25
795.383	402.25
795.64	413.25
795.897	376.25
796.153	441.25
796.41	422.25
796.667	417.25
796.923	429.25
797.18	408.25
797.436	443.25
797.693	411.25
797.949	456.25
798.206	488.25
798.462	393.25
798.718	471.25
798.974	434.25
799.231	475.25
799.487	463.25
799.743	476.25
799.999	513.25
800.255	500.25
800.511	475.25
800.767	526.25
801.023	524.25
801.279	548.25
801.534	602.25
801.79	658.25
802.046	690.25
802.302	838.25
802.557	964.25
802.813	1248.25
803.068	1572.25
803.324	2252.25
803.579	3106.25
803.835	4320.25
804.09	5895.25
804.345	7580.25
804.601	9291.25
804.856	10892.25
805.111	12164.25
805.366	12860.25
805.621	13387.25
805.876	13776.25
806.131	14063.25
806.386	14277.25
806.641	14451.25
806.896	14688.25
807.151	14951.25
807.406	15062.25
807.661	15333.25
807.915	15581.25
808.17	15753.25
808.425	15941.25
808.679	15984.25
808.934	16280.25
809.188	16394.25
809.443	16614.25
809.697	16808.25
809.951	16913.25
810.206	16985.25
810.46	17023.25
810.714	17199.25
810.968	17401.25
811.223	17339.25
811.477	17567.25
811.731	17697.25
811.985	17703.25
812.239	17821.25
812.493	17926.25
812.747	18035.25
813	18008.25
813.254	18055.25
813.508	18259.25
813.762	18218.25
814.015	18312.25
814.269	18348.25
814.522	18601.25
814.776	18743.25
815.03	19007.25
815.283	19159.25
815.536	19489.25
815.79	19611.25
816.043	19962.25
816.296	20178.25
816.55	20257.25
816.803	20602.25
817.056	20792.25
817.309	20960.25
817.562	21142.25
817.815	21251.25
818.068	21509.25
818.321	21867.25
818.574	21884.25
818.827	22418.25
819.079	22481.25
819.332	22890.25
819.585	23219.25
819.838	23443.25
820.09	23692.25
820.343	23791.25
820.595	24002.25
820.848	24166.25
821.1	24229.25
821.353	24158.25
821.605	24141.25
821.857	24179.25
822.11	23981.25
822.362	23912.25
822.614	23925.25
822.866	23925.25
823.118	23869.25
823.37	24135.25
823.622	24138.25
823.874	24121.25
824.126	24289.25
824.378	24410.25
824.63	24421.25
824.882	24439.25
825.134	24364.25
825.385	24285.25
825.637	24314.25
825.888	24155.25
826.14	24087.25
826.392	23990.25
826.643	23862.25
826.895	23776.25
827.146	23677.25
827.397	23543.25
827.649	23744.25
827.9	23522.25
828.151	23659.25
828.402	23686.25
828.653	23773.25
828.905	23870.25
829.156	23874.25
829.407	23818.25
829.658	23821.25
829.909	23868.25
830.159	23711.25
830.41	23492.25
830.661	23440.25
830.912	23286.25
831.162	23227.25
831.413	23119.25
831.664	23229.25
831.914	23110.25
832.165	23170.25
832.415	23099.25
832.666	23072.25
832.916	23173.25
833.167	23091.25
833.417	23017.25
833.667	22840.25
833.917	22821.25
834.168	22689.25
834.418	22752.25
834.668	22681.25
834.918	22505.25
835.168	22505.25
835.418	22264.25
835.668	22310.25
835.918	22261.25
836.167	22272.25
836.417	22020.25
836.667	22069.25
836.917	22152.25
837.166	22031.25
837.416	22040.25
837.666	21877.25
837.915	21775.25
838.165	21792.25
838.414	21664.25
838.663	21567.25
838.913	21580.25
839.162	21511.25
839.411	21491.25
839.661	21386.25
839.91	21476.25
840.159	21313.25
840.408	21354.25
840.657	21362.25
840.906	21395.25
841.155	21354.25
841.404	21270.25
841.653	21226.25
841.902	21327.25
842.15	21351.25
842.399	21327.25
842.648	21263.25
842.897	21223.25
843.145	20957.25
843.394	20865.25
843.642	20783.25
843.891	20627.25
844.139	20702.25
844.388	20602.25
844.636	20469.25
844.884	20350.25
845.133	20293.25
845.381	20249.25
845.629	20371.25
845.877	20195.25
846.125	20259.25
846.373	20271.25
846.621	20083.25
846.869	20074.25
847.117	19907.25
847.365	19812.25
847.613	19736.25
847.861	19739.25
848.108	19652.25
848.356	19555.25
848.604	19629.25
848.851	19636.25
849.099	19710.25
849.346	19565.25
849.594	19680.25
849.841	19795.25
850.089	19754.25
850.336	19814.25
850.583	19698.25
850.831	19607.25
851.078	19551.25
851.325	19351.25
851.572	19551.25
851.819	19093.25
852.066	18911.25
852.313	18676.25
852.56	18551.25
852.807	18492.25
853.054	18452.25
853.301	18386.25
853.548	18362.25
853.794	18633.25
854.041	18573.25
854.288	18656.25
854.534	18818.25
854.781	18691.25
855.028	18582.25
855.274	18673.25
855.52	18553.25
855.767	18400.25
856.013	18376.25
856.26	18632.25
856.506	18146.25
856.752	18176.25
856.998	18173.25
857.244	18108.25
857.49	18230.25
857.736	18239.25
857.982	18316.25
858.228	18241.25
858.474	18058.25
858.72	17974.25
858.966	17815.25
859.212	17750.25
859.458	17525.25
859.703	17339.25
859.949	17129.25
860.195	17070.25
860.44	16943.25
860.686	16847.25
860.931	16733.25
861.177	16790.25
861.422	16688.25
861.667	16639.25
861.913	16681.25
862.158	16677.25
862.403	16845.25
862.648	16772.25
862.893	16793.25
863.138	16795.25
863.384	16710.25
863.629	16657.25
863.873	16674.25
864.118	16548.25
864.363	16372.25
864.608	16287.25
864.853	16307.25
865.098	16152.25
865.342	16120.25
865.587	16014.25
865.832	16009.25
866.076	15959.25
866.321	15879.25
866.565	15919.25
866.81	15807.25
867.054	15689.25
867.298	15652.25
867.543	15651.25
867.787	15662.25
868.031	15608.25
868.275	15601.25
868.519	15577.25
868.764	15585.25
869.008	15471.25
869.252	15504.25
869.496	15413.25
869.739	15361.25
869.983	15430.25
870.227	15330.25
870.471	15280.25
870.715	15273.25
870.958	15358.25
871.202	15327.25
871.446	15406.25
871.689	15346.25
871.933	15368.25
872.176	15332.25
872.42	15263.25
872.663	15213.25
872.906	15263.25
873.15	15127.25
873.393	15024.25
873.636	15016.25
873.879	14825.25
874.122	14671.25
874.366	14568.25
874.609	14484.25
874.852	14440.25
875.095	14269.25
875.337	14243.25
875.58	14048.25
875.823	14145.25
876.066	14118.25
876.309	14085.25
876.551	13909.25
876.794	13977.25
877.037	13947.25
877.279	13812.25
877.522	13831.25
877.764	13866.25
878.007	13871.25
878.249	13847.25
878.491	13784.25
878.734	13804.25
878.976	13772.25
879.218	13650.25
879.46	13601.25
879.702	13466.25
879.945	13457.25
880.187	13292.25
880.429	13293.25
880.671	13116.25
880.912	13073.25
881.154	12976.25
881.396	13023.25
881.638	12944.25
881.88	13041.25
882.121	12859.25
882.363	12973.25
882.605	12898.25
882.846	12885.25
883.088	12857.25
883.329	12787.25
883.571	12726.25
883.812	12761.25
884.053	12910.25
884.295	13101.25
884.536	13105.25
884.777	13013.25
885.018	12925.25
885.259	12933.25
885.5	12800.25
885.742	13015.25
885.982	12847.25
886.223	12748.25
886.464	12636.25
886.705	12524.25
886.946	12463.25
887.187	12335.25
887.428	12277.25
887.668	12160.25
887.909	11917.25
888.15	11849.25
888.39	11814.25
888.631	11756.25
888.871	11672.25
889.111	11594.25
889.352	11502.25
889.592	11396.25
889.833	11326.25
890.073	11298.25
890.313	11280.25
890.553	11056.25
890.793	11039.25
891.033	11008.25
891.273	10949.25
891.513	10973.25
891.753	10933.25
891.993	10869.25
892.233	10891.25
892.473	10936.25
892.713	10968.25
892.952	10835.25
893.192	10901.25
893.432	10899.25
893.671	10892.25
893.911	10784.25
894.15	10656.25
894.39	10593.25
894.629	10509.25
894.869	10491.25
895.108	10426.25
895.347	10330.25
895.587	10351.25
895.826	10262.25
896.065	10196.25
896.304	10285.25
896.543	10231.25
896.782	10118.25
897.021	10127.25
897.26	10004.25
897.499	10185.25
897.738	10134.25
897.977	9999.25
898.216	9904.25
898.454	9850.25
898.693	9693.25
898.932	9791.25
899.17	9663.25
899.409	9678.25
899.647	9550.25
899.886	9529.25
900.124	9640.25
900.363	9553.25
900.601	9534.25
900.839	9602.25
901.078	9604.25
901.316	9561.25
901.554	9539.25
901.792	9610.25
902.03	9539.25
902.268	9564.25
902.506	9597.25
902.744	9487.25
902.982	9451.25
903.22	9390.25
903.458	9127.25
903.695	9130.25
903.933	8993.25
904.171	8862.25
904.409	8803.25
904.646	8738.25
904.884	8612.25
905.121	8566.25
905.359	8476.25
905.596	8418.25
905.833	8298.25
906.071	8288.25
906.308	8279.25
906.545	8228.25
906.783	8233.25
907.02	8235.25
907.257	8151.25
907.494	8197.25
907.731	8242.25
907.968	8175.25
908.205	8115.25
908.442	8011.25
908.679	8033.25
908.915	7911.25
909.152	7895.25
909.389	7823.25
909.626	7773.25
909.862	7656.25
910.099	7697.25
910.335	7669.25
910.572	7541.25
910.808	7557.25
911.045	7549.25
911.281	7513.25
911.518	7549.25
911.754	7429.25
911.99	7436.25
912.226	7376.25
912.463	7305.25
912.699	7263.25
912.935	7203.25
913.171	7191.25
913.407	7062.25
913.643	7008.25
913.879	7060.25
914.114	6900.25
914.35	6788.25
914.586	6789.25
914.822	6729.25
915.057	6791.25
915.293	6596.25
915.529	6554.25
915.764	6694.25
916	6611.25
916.235	6605.25
916.471	6614.25
916.706	6526.25
916.941	6479.25
917.177	6471.25
917.412	6551.25
917.647	6516.25
917.882	6455.25
918.117	6431.25
918.352	6465.25
918.588	6505.25
918.823	6326.25
919.057	6311.25
919.292	6162.25
919.527	6148.25
919.762	6161.25
919.997	6121.25
920.232	6007.25
920.466	5972.25
920.701	5793.25
920.935	5841.25
921.17	5798.25
921.405	5753.25
921.639	5767.25
921.873	5763.25
922.108	5730.25
922.342	5694.25
922.576	5627.25
922.811	5624.25
923.045	5662.25
923.279	5663.25
923.513	5476.25
923.747	5597.25
923.981	5553.25
924.215	5448.25
924.449	5432.25
924.683	5370.25
924.917	5378.25
925.151	5350.25
925.385	5383.25
925.618	5312.25
925.852	5314.25
926.086	5223.25
926.319	5224.25
926.553	5291.25
926.786	5266.25
927.02	5210.25
927.253	5283.25
927.486	5266.25
927.72	5175.25
927.953	5269.25
928.186	5215.25
928.42	5150.25
928.653	5093.25
928.886	5060.25
929.119	5127.25
929.352	5061.25
929.585	5030.25
929.818	4950.25
930.051	4959.25
930.284	4930.25
930.516	4833.25
930.749	4754.25
930.982	4839.25
931.215	4838.25
931.447	4751.25
931.68	4746.25
931.912	4758.25
932.145	4696.25
932.377	4737.25
932.61	4820.25
932.842	4684.25
933.074	4749.25
933.307	4734.25
933.539	4812.25
933.771	4772.25
934.003	4710.25
934.236	4759.25
934.468	4765.25
934.7	4646.25
934.932	4693.25
935.164	4667.25
935.395	4640.25
935.627	4655.25
935.859	4626.25
936.091	4538.25
936.323	4607.25
936.554	4616.25
936.786	4520.25
937.017	4452.25
937.249	4521.25
937.481	4432.25
937.712	4475.25
937.943	4456.25
938.175	4372.25
938.406	4444.25
938.637	4503.25
938.869	4393.25
939.1	4431.25
939.331	4358.25
939.562	4390.25
939.793	4381.25
940.024	4362.25
940.255	4326.25
940.486	4303.25
940.717	4265.25
940.948	4283.25
941.179	4250.25
941.409	4288.25
941.64	4253.25
941.871	4256.25
942.102	4167.25
942.332	4203.25
942.563	4276.25
942.793	4228.25
943.024	4189.25
943.254	4215.25
943.484	4250.25
943.715	4221.25
943.945	4225.25
944.175	4142.25
944.405	4103.25
944.636	4074.25
944.866	4174.25
945.096	4179.25
945.326	4080.25
945.556	4108.25
945.786	4106.25
946.016	4067.25
946.245	4001.25
946.475	3964.25
946.705	4017.25
946.935	3948.25
947.164	3991.25
947.394	3870.25
947.624	3881.25
947.853	3884.25
948.083	3889.25
948.312	3884.25
948.542	3831.25
948.771	3727.25
949	3812.25
949.23	3770.25
949.459	3810.25
949.688	3873.25
949.917	3822.25
950.146	3856.25
950.375	3823.25
950.604	3741.25
950.833	3817.25
951.062	3822.25
951.291	3750.25
951.52	3736.25
951.749	3744.25
951.978	3687.25
952.206	3680.25
952.435	3674.25
952.664	3731.25
952.892	3734.25
953.121	3656.25
953.349	3684.25
953.578	3655.25
953.806	3637.25
954.035	3563.25
954.263	3585.25
954.491	3506.25
954.719	3594.25
954.948	3518.25
955.176	3469.25
955.404	3450.25
955.632	3455.25
955.86	3499.25
956.088	3402.25
956.316	3491.25
956.544	3484.25
956.772	3429.25
956.999	3379.25
957.227	3417.25
957.455	3345.25
957.683	3370.25
957.91	3327.25
958.138	3320.25
958.365	3341.25
958.593	3297.25
958.82	3244.25
959.048	3296.25
959.275	3208.25
959.502	3246.25
959.73	3224.25
959.957	3249.25
960.184	3282.25
960.411	3171.25
960.638	3276.25
960.865	3182.25
961.092	3205.25
961.319	3109.25
961.546	3239.25
961.773	3192.25
962	3174.25
962.227	3222.25
962.454	3220.25
962.68	3117.25
962.907	3148.25
963.134	3065.25
963.36	3136.25
963.587	3094.25
963.813	3045.25
964.04	3096.25
964.266	2956.25
964.493	3060.25
964.719	3025.25
964.945	3034.25
965.171	2922.25
965.398	2949.25
965.624	2988.25
965.85	2914.25
966.076	2892.25
966.302	2952.25
966.528	2892.25
966.754	2918.25
966.98	2919.25
967.206	2909.25
967.431	2796.25
967.657	2873.25
967.883	2899.25
968.109	2850.25
968.334	2807.25
968.56	2785.25
968.785	2829.25
969.011	2750.25
969.236	2803.25
969.462	2758.25
969.687	2792.25
969.912	2800.25
970.138	2832.25
970.363	2706.25
970.588	2762.25
970.813	2706.25
971.038	2699.25
971.263	2722.25
971.488	2718.25
971.713	2735.25
971.938	2693.25
972.163	2617.25
972.388	2632.25
972.613	2605.25
972.838	2642.25
973.062	2614.25
973.287	2631.25
973.512	2538.25
973.736	2569.25
973.961	2548.25
974.185	2541.25
974.41	2589.25
974.634	2475.25
974.858	2497.25
975.083	2498.25
975.307	2528.25
975.531	2442.25
975.755	2413.25
975.98	2434.25
976.204	2367.25
976.428	2338.25
976.652	2359.25
976.876	2344.25
977.1	2401.25
977.324	2336.25
977.547	2385.25
977.771	2400.25
977.995	2337.25
978.219	2290.25
978.442	2384.25
978.666	2318.25
978.89	2333.25
979.113	2320.25
979.337	2270.25
979.56	2242.25
979.783	2363.25
980.007	2239.25
980.23	2274.25
980.453	2260.25
980.677	2261.25
980.9	2268.25
981.123	2153.25
981.346	2272.25
981.569	2218.25
981.792	2217.25
982.015	2210.25
982.238	2166.25
982.461	2183.25
982.684	2154.25
982.907	2094.25
983.129	2097.25
983.352	2187.25
983.575	2107.25
983.797	2106.25
984.02	2042.25
984.242	2079.25
984.465	2070.25
984.687	2112.25
984.91	2127.25
985.132	2062.25
985.354	2077.25
985.577	2068.25
985.799	2027.25
986.021	1960.25
986.243	2015.25
986.465	2005.25
986.687	2047.25
986.909	2080.25
987.131	2035.25
987.353	1989.25
987.575	2013.25
987.797	1986.25
988.019	1929.25
988.241	1971.25
988.462	1925.25
988.684	1980.25
988.906	1992.25
989.127	2021.25
989.349	1903.25
989.57	1938.25
989.792	1961.25
990.013	1993.25
990.234	1994.25
990.456	2003.25
990.677	1970.25
990.898	1902.25
991.119	1907.25
991.341	1946.25
991.562	1874.25
991.783	1901.25
992.004	1835.25
992.225	1803.25
992.446	1863.25
992.667	1784.25
992.887	1853.25
993.108	1746.25
993.329	1875.25
993.55	1811.25
993.77	1741.25
993.991	1756.25
994.212	1779.25
994.432	1793.25
994.653	1788.25
994.873	1770.25
995.093	1655.25
995.314	1709.25
995.534	1764.25
995.754	1802.25
995.975	1800.25
996.195	1694.25
996.415	1724.25
996.635	1730.25
996.855	1758.25
997.075	1717.25
997.295	1691.25
997.515	1669.25
997.735	1732.25
997.955	1706.25
998.174	1694.25
998.394	1663.25
998.614	1725.25
998.834	1652.25
999.053	1727.25
999.273	1686.25
999.492	1746.25
999.712	1664.25
999.931	1640.25
1000.151	1686.25
1000.37	1678.25
1000.589	1696.25
1000.809	1618.25
1001.028	1751.25
1001.247	1671.25
1001.466	1576.25
1001.685	1698.25
1001.904	1634.25
1002.123	1628.25
1002.342	1642.25
1002.561	1583.25
1002.78	1583.25
1002.999	1655.25
1003.218	1600.25
1003.436	1571.25
1003.655	1623.25
1003.874	1586.25
1004.092	1569.25
1004.311	1607.25
1004.53	1595.25
1004.748	1641.25
1004.966	1580.25
1005.185	1613.25
1005.403	1611.25
1005.622	1585.25
1005.84	1658.25
1006.058	1555.25
1006.276	1581.25
1006.494	1968.25
1006.712	1587.25
1006.931	1631.25
1007.149	1514.25
1007.367	1560.25
1007.584	1577.25
1007.802	1623.25
1008.02	1552.25
1008.238	1644.25
1008.456	1627.25
1008.673	1513.25
1008.891	1620.25
1009.109	1589.25
1009.326	1635.25
1009.544	1722.25
1009.761	1572.25
1009.979	1653.25
1010.196	1688.25
1010.413	1755.25
1010.631	1796.25
1010.848	1810.25
1011.065	1806.25
1011.282	1778.25
1011.5	1692.25
1011.717	1818.25
1011.934	1722.25
1012.151	1769.25
1012.368	1743.25
1012.585	1686.25
1012.801	1735.25
1013.018	1691.25
1013.235	1655.25
1013.452	1689.25
1013.669	1690.25
1013.885	1679.25
1014.102	1729.25
1014.318	1686.25
1014.535	1625.25
1014.751	1656.25
1014.968	1681.25
1015.184	1677.25
1015.401	1599.25
1015.617	1615.25
1015.833	1531.25
1016.049	1573.25
1016.266	1548.25
1016.482	1534.25
1016.698	1465.25
1016.914	1543.25
1017.13	1486.25
1017.346	1469.25
1017.562	1522.25
1017.778	1445.25
1017.993	1446.25
1018.209	1505.25
1018.425	1473.25
1018.641	1448.25
1018.856	1414.25
1019.072	1432.25
1019.288	1463.25
1019.503	1430.25
1019.719	1335.25
1019.934	1350.25
1020.149	1419.25
1020.365	1365.25
1020.58	1337.25
1020.795	1394.25
1021.011	1300.25
1021.226	1298.25
1021.441	1317.25
1021.656	1247.25
1021.871	1173.25
1022.086	1181.25
1022.301	1163.25
1022.516	1161.25
1022.731	1243.25
1022.946	1134.25
1023.16	1100.25
1023.375	1078.25
1023.59	1055.25
1023.804	1024.25
1024.019	1139.25
1024.234	1021.25
1024.448	1051.25
1024.663	982.25
1024.877	988.25
1025.092	1009.25
1025.306	1021.25
1025.52	926.25
1025.734	1014.25
1025.949	923.25
1026.163	914.25
1026.377	840.25
1026.591	907.25
1026.805	834.25
1027.019	835.25
1027.233	785.25
1027.447	749.25
1027.661	826.25
1027.875	770.25
1028.088	786.25
1028.302	723.25
1028.516	705.25
1028.73	716.25
1028.943	687.25
1029.157	662.25
1029.37	627.25
1029.584	0.25
1029.797	-0.75
1030.011	-0.75
1030.224	-3.75
