Data from QEP037381__238__14-34-28-753.txt Node

Date: Fri Apr 28 14:34:28 EDT 2023
User: dcclab
Spectrometer: QEP03738
Trigger mode: 4
Integration Time (sec): 1.000000E1
Scans to average: 1
Electric dark correction enabled: true
Nonlinearity correction enabled: false
Boxcar width: 0
XAxis mode: Wavelengths
Number of Pixels in Spectrum: 1044
>>>>>Begin Spectral Data<<<<<
784.041	13.25
784.3	0.25
784.558	-1.75
784.817	-3.75
785.075	75078.25
785.334	15237.25
785.592	7925.25
785.851	5589.25
786.109	4231.25
786.368	3302.25
786.626	2666.25
786.884	2206.25
787.143	1834.25
787.401	1475.25
787.659	1340.25
787.917	1156.25
788.175	1063.25
788.433	930.25
788.691	851.25
788.949	776.25
789.207	751.25
789.465	637.25
789.723	631.25
789.98	572.25
790.238	599.25
790.496	576.25
790.753	543.25
791.011	597.25
791.268	524.25
791.526	511.25
791.783	539.25
792.041	501.25
792.298	429.25
792.556	497.25
792.813	464.25
793.07	444.25
793.327	422.25
793.584	520.25
793.841	439.25
794.099	452.25
794.356	521.25
794.613	411.25
794.869	459.25
795.126	406.25
795.383	394.25
795.64	422.25
795.897	362.25
796.153	436.25
796.41	411.25
796.667	403.25
796.923	418.25
797.18	405.25
797.436	445.25
797.693	402.25
797.949	442.25
798.206	469.25
798.462	394.25
798.718	453.25
798.974	426.25
799.231	473.25
799.487	463.25
799.743	459.25
799.999	481.25
800.255	488.25
800.511	469.25
800.767	504.25
801.023	501.25
801.279	520.25
801.534	560.25
801.79	602.25
802.046	629.25
802.302	773.25
802.557	869.25
802.813	1112.25
803.068	1367.25
803.324	1914.25
803.579	2657.25
803.835	3637.25
804.09	4936.25
804.345	6320.25
804.601	7709.25
804.856	9029.25
805.111	9945.25
805.366	10667.25
805.621	11013.25
805.876	11321.25
806.131	11516.25
806.386	11679.25
806.641	11852.25
806.896	12054.25
807.151	12234.25
807.406	12379.25
807.661	12451.25
807.915	12776.25
808.17	12944.25
808.425	13024.25
808.679	13225.25
808.934	13327.25
809.188	13431.25
809.443	13507.25
809.697	13726.25
809.951	13716.25
810.206	13889.25
810.46	14019.25
810.714	13987.25
810.968	14183.25
811.223	14244.25
811.477	14349.25
811.731	14523.25
811.985	14402.25
812.239	14526.25
812.493	14605.25
812.747	14723.25
813	14746.25
813.254	14744.25
813.508	14871.25
813.762	14857.25
814.015	14871.25
814.269	15033.25
814.522	15079.25
814.776	15307.25
815.03	15376.25
815.283	15571.25
815.536	15791.25
815.79	16071.25
816.043	16196.25
816.296	16313.25
816.55	16632.25
816.803	16685.25
817.056	17030.25
817.309	17111.25
817.562	17173.25
817.815	17345.25
818.068	17470.25
818.321	17726.25
818.574	17893.25
818.827	18123.25
819.079	18278.25
819.332	18740.25
819.585	18793.25
819.838	19108.25
820.09	19220.25
820.343	19373.25
820.595	19444.25
820.848	19542.25
821.1	19627.25
821.353	19547.25
821.605	19599.25
821.857	19680.25
822.11	19451.25
822.362	19456.25
822.614	19452.25
822.866	19525.25
823.118	19405.25
823.37	19546.25
823.622	19541.25
823.874	19635.25
824.126	19805.25
824.378	19764.25
824.63	19814.25
824.882	19791.25
825.134	19825.25
825.385	19759.25
825.637	19681.25
825.888	19703.25
826.14	19559.25
826.392	19460.25
826.643	19328.25
826.895	19395.25
827.146	19152.25
827.397	19187.25
827.649	19267.25
827.9	19084.25
828.151	19186.25
828.402	19218.25
828.653	19202.25
828.905	19326.25
829.156	19403.25
829.407	19332.25
829.658	19288.25
829.909	19361.25
830.159	19334.25
830.41	19073.25
830.661	19071.25
830.912	18983.25
831.162	18738.25
831.413	18799.25
831.664	18758.25
831.914	18795.25
832.165	18795.25
832.415	18827.25
832.666	18667.25
832.916	18770.25
833.167	18770.25
833.417	18667.25
833.667	18665.25
833.917	18488.25
834.168	18563.25
834.418	18518.25
834.668	18503.25
834.918	18253.25
835.168	18192.25
835.418	18080.25
835.668	18159.25
835.918	18096.25
836.167	18047.25
836.417	17973.25
836.667	17994.25
836.917	17872.25
837.166	17878.25
837.416	17867.25
837.666	17888.25
837.915	17800.25
838.165	17799.25
838.414	17664.25
838.663	17476.25
838.913	17614.25
839.162	17503.25
839.411	17546.25
839.661	17458.25
839.91	17256.25
840.159	17408.25
840.408	17394.25
840.657	17372.25
840.906	17433.25
841.155	17418.25
841.404	17409.25
841.653	17419.25
841.902	17360.25
842.15	17380.25
842.399	17256.25
842.648	17349.25
842.897	17199.25
843.145	17177.25
843.394	17051.25
843.642	16971.25
843.891	16917.25
844.139	16763.25
844.388	16641.25
844.636	16593.25
844.884	16596.25
845.133	16632.25
845.381	16550.25
845.629	16556.25
845.877	16492.25
846.125	16471.25
846.373	16351.25
846.621	16433.25
846.869	16379.25
847.117	16320.25
847.365	16175.25
847.613	16134.25
847.861	16088.25
848.108	16028.25
848.356	15960.25
848.604	16018.25
848.851	16017.25
849.099	15956.25
849.346	16008.25
849.594	16060.25
849.841	16141.25
850.089	16031.25
850.336	16148.25
850.583	16096.25
850.831	16065.25
851.078	15915.25
851.325	15848.25
851.572	15807.25
851.819	15654.25
852.066	15430.25
852.313	15278.25
852.56	15051.25
852.807	15069.25
853.054	15109.25
853.301	14983.25
853.548	15069.25
853.794	15192.25
854.041	15246.25
854.288	15174.25
854.534	15365.25
854.781	15326.25
855.028	15171.25
855.274	15276.25
855.52	15102.25
855.767	14955.25
856.013	15038.25
856.26	15258.25
856.506	14750.25
856.752	14856.25
856.998	14758.25
857.244	14889.25
857.49	14930.25
857.736	14916.25
857.982	14989.25
858.228	14859.25
858.474	14814.25
858.72	14676.25
858.966	14676.25
859.212	14434.25
859.458	14306.25
859.703	14118.25
859.949	13998.25
860.195	13955.25
860.44	13912.25
860.686	13792.25
860.931	13849.25
861.177	13673.25
861.422	13679.25
861.667	13600.25
861.913	13624.25
862.158	13619.25
862.403	13688.25
862.648	13764.25
862.893	13756.25
863.138	13650.25
863.384	13635.25
863.629	13609.25
863.873	13633.25
864.118	13491.25
864.363	13379.25
864.608	13418.25
864.853	13345.25
865.098	13192.25
865.342	13203.25
865.587	13157.25
865.832	13133.25
866.076	13081.25
866.321	13081.25
866.565	12954.25
866.81	12823.25
867.054	12895.25
867.298	12890.25
867.543	12863.25
867.787	12888.25
868.031	12835.25
868.275	12776.25
868.519	12764.25
868.764	12711.25
869.008	12735.25
869.252	12781.25
869.496	12687.25
869.739	12570.25
869.983	12627.25
870.227	12624.25
870.471	12508.25
870.715	12621.25
870.958	12647.25
871.202	12565.25
871.446	12548.25
871.689	12619.25
871.933	12607.25
872.176	12591.25
872.42	12524.25
872.663	12518.25
872.906	12496.25
873.15	12442.25
873.393	12346.25
873.636	12347.25
873.879	12191.25
874.122	12128.25
874.366	11947.25
874.609	11860.25
874.852	11790.25
875.095	11705.25
875.337	11695.25
875.58	11511.25
875.823	11666.25
876.066	11578.25
876.309	11586.25
876.551	11419.25
876.794	11347.25
877.037	11491.25
877.279	11375.25
877.522	11355.25
877.764	11386.25
878.007	11376.25
878.249	11417.25
878.491	11292.25
878.734	11316.25
878.976	11250.25
879.218	11188.25
879.46	11169.25
879.702	11157.25
879.945	10951.25
880.187	10847.25
880.429	10817.25
880.671	10770.25
880.912	10788.25
881.154	10735.25
881.396	10610.25
881.638	10703.25
881.88	10671.25
882.121	10549.25
882.363	10600.25
882.605	10546.25
882.846	10547.25
883.088	10568.25
883.329	10489.25
883.571	10474.25
883.812	10528.25
884.053	10715.25
884.295	10690.25
884.536	10870.25
884.777	10785.25
885.018	10763.25
885.259	10698.25
885.5	10600.25
885.742	10781.25
885.982	10572.25
886.223	10507.25
886.464	10463.25
886.705	10326.25
886.946	10284.25
887.187	10091.25
887.428	10126.25
887.668	9880.25
887.909	9870.25
888.15	9698.25
888.39	9741.25
888.631	9698.25
888.871	9604.25
889.111	9539.25
889.352	9462.25
889.592	9377.25
889.833	9308.25
890.073	9263.25
890.313	9289.25
890.553	9119.25
890.793	9069.25
891.033	9055.25
891.273	8957.25
891.513	8973.25
891.753	8989.25
891.993	8894.25
892.233	8963.25
892.473	9074.25
892.713	8970.25
892.952	8932.25
893.192	8990.25
893.432	8973.25
893.671	8952.25
893.911	8837.25
894.15	8764.25
894.39	8654.25
894.629	8681.25
894.869	8643.25
895.108	8583.25
895.347	8495.25
895.587	8538.25
895.826	8472.25
896.065	8379.25
896.304	8444.25
896.543	8471.25
896.782	8302.25
897.021	8339.25
897.26	8311.25
897.499	8372.25
897.738	8338.25
897.977	8264.25
898.216	8115.25
898.454	8116.25
898.693	8021.25
898.932	8075.25
899.17	7913.25
899.409	7968.25
899.647	7966.25
899.886	7885.25
900.124	7902.25
900.363	7793.25
900.601	7945.25
900.839	7927.25
901.078	7913.25
901.316	7961.25
901.554	7939.25
901.792	7930.25
902.03	7882.25
902.268	7877.25
902.506	7904.25
902.744	7820.25
902.982	7798.25
903.22	7702.25
903.458	7626.25
903.695	7566.25
903.933	7450.25
904.171	7398.25
904.409	7283.25
904.646	7234.25
904.884	7148.25
905.121	7131.25
905.359	7024.25
905.596	6974.25
905.833	6877.25
906.071	6843.25
906.308	6929.25
906.545	6905.25
906.783	6731.25
907.02	6809.25
907.257	6781.25
907.494	6835.25
907.731	6762.25
907.968	6737.25
908.205	6716.25
908.442	6695.25
908.679	6655.25
908.915	6556.25
909.152	6513.25
909.389	6339.25
909.626	6400.25
909.862	6337.25
910.099	6305.25
910.335	6353.25
910.572	6226.25
910.808	6330.25
911.045	6241.25
911.281	6178.25
911.518	6233.25
911.754	6154.25
911.99	6142.25
912.226	6022.25
912.463	5966.25
912.699	6001.25
912.935	5896.25
913.171	5896.25
913.407	5817.25
913.643	5852.25
913.879	5801.25
914.114	5700.25
914.35	5591.25
914.586	5622.25
914.822	5563.25
915.057	5606.25
915.293	5469.25
915.529	5418.25
915.764	5565.25
916	5466.25
916.235	5449.25
916.471	5471.25
916.706	5358.25
916.941	5433.25
917.177	5367.25
917.412	5387.25
917.647	5361.25
917.882	5300.25
918.117	5398.25
918.352	5352.25
918.588	5353.25
918.823	5247.25
919.057	5223.25
919.292	5121.25
919.527	5158.25
919.762	5077.25
919.997	5074.25
920.232	4977.25
920.466	4975.25
920.701	4823.25
920.935	4866.25
921.17	4825.25
921.405	4783.25
921.639	4846.25
921.873	4744.25
922.108	4758.25
922.342	4776.25
922.576	4680.25
922.811	4699.25
923.045	4719.25
923.279	4738.25
923.513	4574.25
923.747	4653.25
923.981	4603.25
924.215	4532.25
924.449	4548.25
924.683	4508.25
924.917	4426.25
925.151	4389.25
925.385	4458.25
925.618	4448.25
925.852	4438.25
926.086	4336.25
926.319	4367.25
926.553	4419.25
926.786	4364.25
927.02	4367.25
927.253	4421.25
927.486	4430.25
927.72	4306.25
927.953	4382.25
928.186	4277.25
928.42	4341.25
928.653	4239.25
928.886	4246.25
929.119	4257.25
929.352	4243.25
929.585	4158.25
929.818	4171.25
930.051	4107.25
930.284	4115.25
930.516	4013.25
930.749	4018.25
930.982	4083.25
931.215	4051.25
931.447	3930.25
931.68	3973.25
931.912	3940.25
932.145	3945.25
932.377	4014.25
932.61	4097.25
932.842	3868.25
933.074	3945.25
933.307	3858.25
933.539	3985.25
933.771	4013.25
934.003	3938.25
934.236	3998.25
934.468	3956.25
934.7	3883.25
934.932	3949.25
935.164	3843.25
935.395	3849.25
935.627	3825.25
935.859	3842.25
936.091	3780.25
936.323	3818.25
936.554	3864.25
936.786	3804.25
937.017	3760.25
937.249	3728.25
937.481	3673.25
937.712	3769.25
937.943	3764.25
938.175	3686.25
938.406	3683.25
938.637	3785.25
938.869	3653.25
939.1	3714.25
939.331	3627.25
939.562	3687.25
939.793	3669.25
940.024	3690.25
940.255	3667.25
940.486	3634.25
940.717	3590.25
940.948	3547.25
941.179	3529.25
941.409	3538.25
941.64	3515.25
941.871	3565.25
942.102	3509.25
942.332	3514.25
942.563	3560.25
942.793	3496.25
943.024	3440.25
943.254	3476.25
943.484	3525.25
943.715	3543.25
943.945	3521.25
944.175	3459.25
944.405	3434.25
944.636	3455.25
944.866	3491.25
945.096	3482.25
945.326	3437.25
945.556	3454.25
945.786	3444.25
946.016	3409.25
946.245	3323.25
946.475	3339.25
946.705	3325.25
946.935	3310.25
947.164	3335.25
947.394	3222.25
947.624	3280.25
947.853	3330.25
948.083	3271.25
948.312	3223.25
948.542	3189.25
948.771	3209.25
949	3157.25
949.23	3134.25
949.459	3164.25
949.688	3318.25
949.917	3186.25
950.146	3175.25
950.375	3224.25
950.604	3137.25
950.833	3220.25
951.062	3186.25
951.291	3156.25
951.52	3138.25
951.749	3139.25
951.978	3098.25
952.206	3066.25
952.435	3074.25
952.664	3121.25
952.892	3105.25
953.121	3097.25
953.349	3076.25
953.578	3066.25
953.806	3033.25
954.035	2963.25
954.263	3050.25
954.491	2957.25
954.719	3005.25
954.948	2950.25
955.176	2922.25
955.404	2881.25
955.632	2933.25
955.86	2928.25
956.088	2899.25
956.316	2937.25
956.544	2937.25
956.772	2865.25
956.999	2813.25
957.227	2918.25
957.455	2807.25
957.683	2815.25
957.91	2831.25
958.138	2792.25
958.365	2763.25
958.593	2786.25
958.82	2685.25
959.048	2777.25
959.275	2754.25
959.502	2748.25
959.73	2674.25
959.957	2729.25
960.184	2735.25
960.411	2695.25
960.638	2786.25
960.865	2692.25
961.092	2738.25
961.319	2601.25
961.546	2702.25
961.773	2706.25
962	2721.25
962.227	2725.25
962.454	2684.25
962.68	2644.25
962.907	2662.25
963.134	2591.25
963.36	2606.25
963.587	2633.25
963.813	2552.25
964.04	2607.25
964.266	2540.25
964.493	2616.25
964.719	2585.25
964.945	2560.25
965.171	2463.25
965.398	2542.25
965.624	2523.25
965.85	2428.25
966.076	2477.25
966.302	2518.25
966.528	2462.25
966.754	2468.25
966.98	2452.25
967.206	2452.25
967.431	2371.25
967.657	2476.25
967.883	2451.25
968.109	2447.25
968.334	2383.25
968.56	2371.25
968.785	2407.25
969.011	2348.25
969.236	2387.25
969.462	2343.25
969.687	2343.25
969.912	2393.25
970.138	2407.25
970.363	2358.25
970.588	2331.25
970.813	2328.25
971.038	2300.25
971.263	2329.25
971.488	2331.25
971.713	2335.25
971.938	2324.25
972.163	2213.25
972.388	2247.25
972.613	2253.25
972.838	2282.25
973.062	2234.25
973.287	2242.25
973.512	2179.25
973.736	2189.25
973.961	2171.25
974.185	2191.25
974.41	2206.25
974.634	2100.25
974.858	2113.25
975.083	2120.25
975.307	2178.25
975.531	2078.25
975.755	2024.25
975.98	2062.25
976.204	2032.25
976.428	2013.25
976.652	2026.25
976.876	1958.25
977.1	1995.25
977.324	1997.25
977.547	2028.25
977.771	2021.25
977.995	1993.25
978.219	1935.25
978.442	2093.25
978.666	2016.25
978.89	1987.25
979.113	1979.25
979.337	1987.25
979.56	1929.25
979.783	2013.25
980.007	1918.25
980.23	1950.25
980.453	1899.25
980.677	1933.25
980.9	1929.25
981.123	1847.25
981.346	1923.25
981.569	1924.25
981.792	1935.25
982.015	1898.25
982.238	1834.25
982.461	1886.25
982.684	1822.25
982.907	1812.25
983.129	1804.25
983.352	1833.25
983.575	1827.25
983.797	1826.25
984.02	1775.25
984.242	1793.25
984.465	1795.25
984.687	1827.25
984.91	1809.25
985.132	1798.25
985.354	1790.25
985.577	1789.25
985.799	1737.25
986.021	1705.25
986.243	1737.25
986.465	1727.25
986.687	1766.25
986.909	1831.25
987.131	1726.25
987.353	1697.25
987.575	1740.25
987.797	1711.25
988.019	1639.25
988.241	1702.25
988.462	1650.25
988.684	1743.25
988.906	1757.25
989.127	1740.25
989.349	1636.25
989.57	1687.25
989.792	1698.25
990.013	1708.25
990.234	1721.25
990.456	1767.25
990.677	1688.25
990.898	1682.25
991.119	1632.25
991.341	1683.25
991.562	1628.25
991.783	1662.25
992.004	1606.25
992.225	1566.25
992.446	1629.25
992.667	1521.25
992.887	1596.25
993.108	1535.25
993.329	1641.25
993.55	1598.25
993.77	1514.25
993.991	1550.25
994.212	1572.25
994.432	1553.25
994.653	1602.25
994.873	1559.25
995.093	1444.25
995.314	1470.25
995.534	1565.25
995.754	1598.25
995.975	1571.25
996.195	1489.25
996.415	1546.25
996.635	1501.25
996.855	1506.25
997.075	1496.25
997.295	1499.25
997.515	1476.25
997.735	1526.25
997.955	1495.25
998.174	1498.25
998.394	1445.25
998.614	1528.25
998.834	1469.25
999.053	1520.25
999.273	1510.25
999.492	1553.25
999.712	1467.25
999.931	1444.25
1000.151	1490.25
1000.37	1436.25
1000.589	1524.25
1000.809	1442.25
1001.028	1546.25
1001.247	1509.25
1001.466	1398.25
1001.685	1528.25
1001.904	1450.25
1002.123	1464.25
1002.342	1440.25
1002.561	1406.25
1002.78	1436.25
1002.999	1476.25
1003.218	1438.25
1003.436	1392.25
1003.655	1452.25
1003.874	1404.25
1004.092	1389.25
1004.311	1462.25
1004.53	1412.25
1004.748	1489.25
1004.966	1395.25
1005.185	1474.25
1005.403	1474.25
1005.622	1433.25
1005.84	1524.25
1006.058	1392.25
1006.276	1436.25
1006.494	1779.25
1006.712	1421.25
1006.931	1489.25
1007.149	1373.25
1007.367	1417.25
1007.584	1423.25
1007.802	1473.25
1008.02	1424.25
1008.238	1488.25
1008.456	1473.25
1008.673	1356.25
1008.891	1459.25
1009.109	1410.25
1009.326	1424.25
1009.544	1515.25
1009.761	1445.25
1009.979	1533.25
1010.196	1502.25
1010.413	1603.25
1010.631	1648.25
1010.848	1674.25
1011.065	1659.25
1011.282	1592.25
1011.5	1551.25
1011.717	1661.25
1011.934	1569.25
1012.151	1598.25
1012.368	1610.25
1012.585	1531.25
1012.801	1580.25
1013.018	1535.25
1013.235	1538.25
1013.452	1563.25
1013.669	1539.25
1013.885	1541.25
1014.102	1568.25
1014.318	1520.25
1014.535	1506.25
1014.751	1532.25
1014.968	1524.25
1015.184	1542.25
1015.401	1442.25
1015.617	1485.25
1015.833	1424.25
1016.049	1471.25
1016.266	1416.25
1016.482	1428.25
1016.698	1365.25
1016.914	1397.25
1017.13	1381.25
1017.346	1350.25
1017.562	1406.25
1017.778	1347.25
1017.993	1319.25
1018.209	1374.25
1018.425	1363.25
1018.641	1325.25
1018.856	1277.25
1019.072	1319.25
1019.288	1345.25
1019.503	1313.25
1019.719	1231.25
1019.934	1257.25
1020.149	1308.25
1020.365	1264.25
1020.58	1220.25
1020.795	1249.25
1021.011	1180.25
1021.226	1169.25
1021.441	1201.25
1021.656	1133.25
1021.871	1088.25
1022.086	1082.25
1022.301	1094.25
1022.516	1057.25
1022.731	1134.25
1022.946	1026.25
1023.16	1018.25
1023.375	999.25
1023.59	960.25
1023.804	939.25
1024.019	1036.25
1024.234	919.25
1024.448	985.25
1024.663	916.25
1024.877	911.25
1025.092	931.25
1025.306	942.25
1025.52	833.25
1025.734	918.25
1025.949	857.25
1026.163	836.25
1026.377	778.25
1026.591	820.25
1026.805	764.25
1027.019	747.25
1027.233	730.25
1027.447	676.25
1027.661	780.25
1027.875	729.25
1028.088	713.25
1028.302	668.25
1028.516	637.25
1028.73	647.25
1028.943	640.25
1029.157	603.25
1029.37	562.25
1029.584	-2.75
1029.797	0.25
1030.011	-1.75
1030.224	-3.75
