Data from QEP037381__228__14-32-48-754.txt Node

Date: Fri Apr 28 14:32:48 EDT 2023
User: dcclab
Spectrometer: QEP03738
Trigger mode: 4
Integration Time (sec): 1.000000E1
Scans to average: 1
Electric dark correction enabled: true
Nonlinearity correction enabled: false
Boxcar width: 0
XAxis mode: Wavelengths
Number of Pixels in Spectrum: 1044
>>>>>Begin Spectral Data<<<<<
784.041	13.12
784.3	-1.88
784.558	-2.88
784.817	-3.88
785.075	75354.12
785.334	14690.12
785.592	7575.12
785.851	5366.12
786.109	4015.12
786.368	3144.12
786.626	2570.12
786.884	2131.12
787.143	1785.12
787.401	1466.12
787.659	1329.12
787.917	1134.12
788.175	1062.12
788.433	914.12
788.691	824.12
788.949	782.12
789.207	748.12
789.465	657.12
789.723	633.12
789.98	574.12
790.238	616.12
790.496	579.12
790.753	549.12
791.011	597.12
791.268	534.12
791.526	528.12
791.783	549.12
792.041	527.12
792.298	439.12
792.556	508.12
792.813	485.12
793.07	470.12
793.327	456.12
793.584	535.12
793.841	462.12
794.099	483.12
794.356	522.12
794.613	425.12
794.869	470.12
795.126	430.12
795.383	421.12
795.64	434.12
795.897	383.12
796.153	448.12
796.41	454.12
796.667	427.12
796.923	425.12
797.18	428.12
797.436	437.12
797.693	421.12
797.949	475.12
798.206	505.12
798.462	415.12
798.718	478.12
798.974	448.12
799.231	521.12
799.487	496.12
799.743	502.12
799.999	512.12
800.255	521.12
800.511	511.12
800.767	554.12
801.023	570.12
801.279	616.12
801.534	645.12
801.79	704.12
802.046	780.12
802.302	947.12
802.557	1107.12
802.813	1440.12
803.068	1912.12
803.324	2680.12
803.579	3753.12
803.835	5208.12
804.09	7141.12
804.345	9143.12
804.601	11255.12
804.856	13053.12
805.111	14590.12
805.366	15537.12
805.621	16185.12
805.876	16662.12
806.131	17002.12
806.386	17275.12
806.641	17518.12
806.896	17780.12
807.151	18070.12
807.406	18411.12
807.661	18626.12
807.915	18904.12
808.17	19126.12
808.425	19384.12
808.679	19556.12
808.934	19844.12
809.188	19984.12
809.443	20184.12
809.697	20341.12
809.951	20520.12
810.206	20774.12
810.46	20842.12
810.714	20978.12
810.968	21273.12
811.223	21353.12
811.477	21444.12
811.731	21544.12
811.985	21790.12
812.239	21853.12
812.493	22009.12
812.747	21953.12
813	22127.12
813.254	22299.12
813.508	22158.12
813.762	22276.12
814.015	22423.12
814.269	22526.12
814.522	22797.12
814.776	22939.12
815.03	23188.12
815.283	23513.12
815.536	23926.12
815.79	24258.12
816.043	24359.12
816.296	24602.12
816.55	25053.12
816.803	25181.12
817.056	25621.12
817.309	25667.12
817.562	25992.12
817.815	26378.12
818.068	26470.12
818.321	26786.12
818.574	27129.12
818.827	27401.12
819.079	27740.12
819.332	28268.12
819.585	28632.12
819.838	28853.12
820.09	29068.12
820.343	29431.12
820.595	29482.12
820.848	29591.12
821.1	29691.12
821.353	29785.12
821.605	29702.12
821.857	29748.12
822.11	29547.12
822.362	29510.12
822.614	29502.12
822.866	29439.12
823.118	29509.12
823.37	29604.12
823.622	29582.12
823.874	29753.12
824.126	29793.12
824.378	29847.12
824.63	29975.12
824.882	30040.12
825.134	29930.12
825.385	29932.12
825.637	29863.12
825.888	29758.12
826.14	29734.12
826.392	29564.12
826.643	29352.12
826.895	29318.12
827.146	29308.12
827.397	29056.12
827.649	29162.12
827.9	29097.12
828.151	29032.12
828.402	29165.12
828.653	29299.12
828.905	29352.12
829.156	29390.12
829.407	29162.12
829.658	29279.12
829.909	29185.12
830.159	29117.12
830.41	28952.12
830.661	28736.12
830.912	28512.12
831.162	28645.12
831.413	28543.12
831.664	28496.12
831.914	28503.12
832.165	28430.12
832.415	28439.12
832.666	28449.12
832.916	28464.12
833.167	28344.12
833.417	28290.12
833.667	28277.12
833.917	28030.12
834.168	28004.12
834.418	28076.12
834.668	27810.12
834.918	27714.12
835.168	27500.12
835.418	27449.12
835.668	27393.12
835.918	27413.12
836.167	27339.12
836.417	27161.12
836.667	27101.12
836.917	27196.12
837.166	27088.12
837.416	27079.12
837.666	26992.12
837.915	26948.12
838.165	26886.12
838.414	26687.12
838.663	26666.12
838.913	26688.12
839.162	26477.12
839.411	26501.12
839.661	26357.12
839.91	26406.12
840.159	26239.12
840.408	26278.12
840.657	26285.12
840.906	26153.12
841.155	26215.12
841.404	26132.12
841.653	26089.12
841.902	26189.12
842.15	26221.12
842.399	26253.12
842.648	26114.12
842.897	26003.12
843.145	25930.12
843.394	25773.12
843.642	25502.12
843.891	25451.12
844.139	25304.12
844.388	25189.12
844.636	24999.12
844.884	25095.12
845.133	25004.12
845.381	24951.12
845.629	24989.12
845.877	24920.12
846.125	24705.12
846.373	24795.12
846.621	24642.12
846.869	24644.12
847.117	24557.12
847.365	24437.12
847.613	24214.12
847.861	24203.12
848.108	24191.12
848.356	24085.12
848.604	24118.12
848.851	24151.12
849.099	24136.12
849.346	24087.12
849.594	24231.12
849.841	24255.12
850.089	24306.12
850.336	24291.12
850.583	24302.12
850.831	24096.12
851.078	23959.12
851.325	23834.12
851.572	23758.12
851.819	23539.12
852.066	23232.12
852.313	22855.12
852.56	22796.12
852.807	22651.12
853.054	22587.12
853.301	22618.12
853.548	22595.12
853.794	22725.12
854.041	22742.12
854.288	22861.12
854.534	23116.12
854.781	23041.12
855.028	22893.12
855.274	22826.12
855.52	22691.12
855.767	22624.12
856.013	22624.12
856.26	22660.12
856.506	22310.12
856.752	22276.12
856.998	22256.12
857.244	22342.12
857.49	22438.12
857.736	22449.12
857.982	22392.12
858.228	22258.12
858.474	22195.12
858.72	21987.12
858.966	21893.12
859.212	21679.12
859.458	21401.12
859.703	21194.12
859.949	21097.12
860.195	20982.12
860.44	20919.12
860.686	20752.12
860.931	20738.12
861.177	20512.12
861.422	20501.12
861.667	20424.12
861.913	20403.12
862.158	20571.12
862.403	20477.12
862.648	20645.12
862.893	20583.12
863.138	20577.12
863.384	20452.12
863.629	20374.12
863.873	20512.12
864.118	20250.12
864.363	20120.12
864.608	20037.12
864.853	19993.12
865.098	19824.12
865.342	19693.12
865.587	19724.12
865.832	19652.12
866.076	19503.12
866.321	19454.12
866.565	19436.12
866.81	19300.12
867.054	19276.12
867.298	19247.12
867.543	19189.12
867.787	19316.12
868.031	19207.12
868.275	19156.12
868.519	19135.12
868.764	19085.12
869.008	18984.12
869.252	19046.12
869.496	18981.12
869.739	18806.12
869.983	18767.12
870.227	18810.12
870.471	18801.12
870.715	18776.12
870.958	18819.12
871.202	18886.12
871.446	18854.12
871.689	18885.12
871.933	18887.12
872.176	18826.12
872.42	18694.12
872.663	18684.12
872.906	18651.12
873.15	18552.12
873.393	18465.12
873.636	18372.12
873.879	18321.12
874.122	18077.12
874.366	17807.12
874.609	17656.12
874.852	17594.12
875.095	17541.12
875.337	17425.12
875.58	17333.12
875.823	17310.12
876.066	17312.12
876.309	17268.12
876.551	17089.12
876.794	16977.12
877.037	16993.12
877.279	16987.12
877.522	17059.12
877.764	17030.12
878.007	17004.12
878.249	16911.12
878.491	17012.12
878.734	16909.12
878.976	16850.12
879.218	16739.12
879.46	16609.12
879.702	16506.12
879.945	16381.12
880.187	16253.12
880.429	16188.12
880.671	16081.12
880.912	15967.12
881.154	15908.12
881.396	15865.12
881.638	15843.12
881.88	15799.12
882.121	15827.12
882.363	15844.12
882.605	15792.12
882.846	15734.12
883.088	15677.12
883.329	15524.12
883.571	15522.12
883.812	15683.12
884.053	15815.12
884.295	15977.12
884.536	16138.12
884.777	16015.12
885.018	15786.12
885.259	15838.12
885.5	15657.12
885.742	15858.12
885.982	15702.12
886.223	15581.12
886.464	15484.12
886.705	15354.12
886.946	15236.12
887.187	15017.12
887.428	14912.12
887.668	14733.12
887.909	14641.12
888.15	14504.12
888.39	14453.12
888.631	14361.12
888.871	14277.12
889.111	14170.12
889.352	14006.12
889.592	13883.12
889.833	13840.12
890.073	13678.12
890.313	13730.12
890.553	13458.12
890.793	13530.12
891.033	13492.12
891.273	13363.12
891.513	13333.12
891.753	13376.12
891.993	13233.12
892.233	13320.12
892.473	13365.12
892.713	13297.12
892.952	13276.12
893.192	13236.12
893.432	13262.12
893.671	13200.12
893.911	13186.12
894.15	13087.12
894.39	12903.12
894.629	12796.12
894.869	12758.12
895.108	12624.12
895.347	12559.12
895.587	12580.12
895.826	12540.12
896.065	12478.12
896.304	12580.12
896.543	12420.12
896.782	12311.12
897.021	12272.12
897.26	12352.12
897.499	12346.12
897.738	12305.12
897.977	12164.12
898.216	11985.12
898.454	11900.12
898.693	11781.12
898.932	11845.12
899.17	11774.12
899.409	11729.12
899.647	11658.12
899.886	11566.12
900.124	11659.12
900.363	11618.12
900.601	11694.12
900.839	11703.12
901.078	11628.12
901.316	11708.12
901.554	11710.12
901.792	11728.12
902.03	11722.12
902.268	11554.12
902.506	11676.12
902.744	11584.12
902.982	11518.12
903.22	11341.12
903.458	11281.12
903.695	11149.12
903.933	11061.12
904.171	10849.12
904.409	10729.12
904.646	10593.12
904.884	10463.12
905.121	10462.12
905.359	10331.12
905.596	10150.12
905.833	10102.12
906.071	10123.12
906.308	10185.12
906.545	10095.12
906.783	10037.12
907.02	10012.12
907.257	10002.12
907.494	9896.12
907.731	9954.12
907.968	9918.12
908.205	9829.12
908.442	9775.12
908.679	9686.12
908.915	9698.12
909.152	9630.12
909.389	9408.12
909.626	9378.12
909.862	9356.12
910.099	9271.12
910.335	9375.12
910.572	9214.12
910.808	9244.12
911.045	9130.12
911.281	9107.12
911.518	9139.12
911.754	9062.12
911.99	9025.12
912.226	8883.12
912.463	8835.12
912.699	8829.12
912.935	8765.12
913.171	8650.12
913.407	8610.12
913.643	8578.12
913.879	8430.12
914.114	8378.12
914.35	8276.12
914.586	8273.12
914.822	8115.12
915.057	8175.12
915.293	7965.12
915.529	7967.12
915.764	8004.12
916	7989.12
916.235	7982.12
916.471	7972.12
916.706	7833.12
916.941	7895.12
917.177	7845.12
917.412	7924.12
917.647	7904.12
917.882	7775.12
918.117	7879.12
918.352	7813.12
918.588	7786.12
918.823	7686.12
919.057	7610.12
919.292	7433.12
919.527	7513.12
919.762	7379.12
919.997	7353.12
920.232	7227.12
920.466	7199.12
920.701	7021.12
920.935	7013.12
921.17	7030.12
921.405	6967.12
921.639	6987.12
921.873	6947.12
922.108	6938.12
922.342	6901.12
922.576	6827.12
922.811	6846.12
923.045	6841.12
923.279	6794.12
923.513	6635.12
923.747	6798.12
923.981	6697.12
924.215	6607.12
924.449	6600.12
924.683	6509.12
924.917	6456.12
925.151	6464.12
925.385	6484.12
925.618	6398.12
925.852	6373.12
926.086	6388.12
926.319	6411.12
926.553	6360.12
926.786	6347.12
927.02	6279.12
927.253	6387.12
927.486	6295.12
927.72	6294.12
927.953	6282.12
928.186	6254.12
928.42	6225.12
928.653	6187.12
928.886	6154.12
929.119	6123.12
929.352	6089.12
929.585	6110.12
929.818	5978.12
930.051	6010.12
930.284	5985.12
930.516	5807.12
930.749	5803.12
930.982	5858.12
931.215	5839.12
931.447	5774.12
931.68	5669.12
931.912	5734.12
932.145	5629.12
932.377	5697.12
932.61	5848.12
932.842	5613.12
933.074	5713.12
933.307	5644.12
933.539	5734.12
933.771	5738.12
934.003	5681.12
934.236	5727.12
934.468	5731.12
934.7	5671.12
934.932	5617.12
935.164	5587.12
935.395	5551.12
935.627	5479.12
935.859	5552.12
936.091	5501.12
936.323	5534.12
936.554	5554.12
936.786	5461.12
937.017	5356.12
937.249	5419.12
937.481	5294.12
937.712	5387.12
937.943	5367.12
938.175	5349.12
938.406	5335.12
938.637	5347.12
938.869	5254.12
939.1	5265.12
939.331	5241.12
939.562	5254.12
939.793	5245.12
940.024	5238.12
940.255	5238.12
940.486	5167.12
940.717	5178.12
940.948	5094.12
941.179	5061.12
941.409	5078.12
941.64	5086.12
941.871	5107.12
942.102	5072.12
942.332	5089.12
942.563	5087.12
942.793	5096.12
943.024	5031.12
943.254	5036.12
943.484	5081.12
943.715	5035.12
943.945	5022.12
944.175	4960.12
944.405	4928.12
944.636	4951.12
944.866	4988.12
945.096	4994.12
945.326	4908.12
945.556	4969.12
945.786	4995.12
946.016	4853.12
946.245	4779.12
946.475	4815.12
946.705	4755.12
946.935	4764.12
947.164	4708.12
947.394	4677.12
947.624	4681.12
947.853	4687.12
948.083	4656.12
948.312	4637.12
948.542	4584.12
948.771	4533.12
949	4596.12
949.23	4580.12
949.459	4535.12
949.688	4592.12
949.917	4546.12
950.146	4567.12
950.375	4561.12
950.604	4474.12
950.833	4604.12
951.062	4565.12
951.291	4471.12
951.52	4484.12
951.749	4451.12
951.978	4423.12
952.206	4464.12
952.435	4419.12
952.664	4447.12
952.892	4394.12
953.121	4416.12
953.349	4379.12
953.578	4335.12
953.806	4348.12
954.035	4234.12
954.263	4258.12
954.491	4222.12
954.719	4223.12
954.948	4222.12
955.176	4192.12
955.404	4090.12
955.632	4139.12
955.86	4158.12
956.088	4161.12
956.316	4132.12
956.544	4112.12
956.772	4056.12
956.999	4074.12
957.227	4065.12
957.455	4019.12
957.683	3993.12
957.91	3892.12
958.138	3931.12
958.365	3876.12
958.593	3912.12
958.82	3870.12
959.048	3921.12
959.275	3878.12
959.502	3865.12
959.73	3833.12
959.957	3853.12
960.184	3882.12
960.411	3790.12
960.638	3841.12
960.865	3834.12
961.092	3871.12
961.319	3737.12
961.546	3852.12
961.773	3809.12
962	3772.12
962.227	3790.12
962.454	3790.12
962.68	3724.12
962.907	3749.12
963.134	3645.12
963.36	3676.12
963.587	3699.12
963.813	3643.12
964.04	3634.12
964.266	3534.12
964.493	3641.12
964.719	3627.12
964.945	3572.12
965.171	3486.12
965.398	3488.12
965.624	3536.12
965.85	3438.12
966.076	3416.12
966.302	3490.12
966.528	3428.12
966.754	3444.12
966.98	3423.12
967.206	3409.12
967.431	3343.12
967.657	3415.12
967.883	3408.12
968.109	3362.12
968.334	3332.12
968.56	3311.12
968.785	3369.12
969.011	3303.12
969.236	3314.12
969.462	3256.12
969.687	3283.12
969.912	3306.12
970.138	3335.12
970.363	3204.12
970.588	3257.12
970.813	3191.12
971.038	3172.12
971.263	3242.12
971.488	3215.12
971.713	3237.12
971.938	3204.12
972.163	3105.12
972.388	3111.12
972.613	3046.12
972.838	3113.12
973.062	3078.12
973.287	3087.12
973.512	2996.12
973.736	3042.12
973.961	3020.12
974.185	2979.12
974.41	3019.12
974.634	2887.12
974.858	2930.12
975.083	2971.12
975.307	2963.12
975.531	2897.12
975.755	2833.12
975.98	2827.12
976.204	2785.12
976.428	2767.12
976.652	2744.12
976.876	2734.12
977.1	2791.12
977.324	2760.12
977.547	2799.12
977.771	2793.12
977.995	2754.12
978.219	2692.12
978.442	2794.12
978.666	2746.12
978.89	2743.12
979.113	2727.12
979.337	2707.12
979.56	2691.12
979.783	2768.12
980.007	2654.12
980.23	2639.12
980.453	2619.12
980.677	2678.12
980.9	2650.12
981.123	2551.12
981.346	2638.12
981.569	2572.12
981.792	2598.12
982.015	2572.12
982.238	2524.12
982.461	2559.12
982.684	2486.12
982.907	2492.12
983.129	2444.12
983.352	2492.12
983.575	2468.12
983.797	2476.12
984.02	2435.12
984.242	2429.12
984.465	2435.12
984.687	2432.12
984.91	2461.12
985.132	2440.12
985.354	2427.12
985.577	2367.12
985.799	2380.12
986.021	2285.12
986.243	2331.12
986.465	2336.12
986.687	2360.12
986.909	2409.12
987.131	2314.12
987.353	2321.12
987.575	2352.12
987.797	2297.12
988.019	2208.12
988.241	2275.12
988.462	2239.12
988.684	2261.12
988.906	2319.12
989.127	2334.12
989.349	2227.12
989.57	2215.12
989.792	2256.12
990.013	2277.12
990.234	2288.12
990.456	2317.12
990.677	2244.12
990.898	2175.12
991.119	2228.12
991.341	2245.12
991.562	2134.12
991.783	2184.12
992.004	2112.12
992.225	2116.12
992.446	2130.12
992.667	2024.12
992.887	2139.12
993.108	2015.12
993.329	2158.12
993.55	2098.12
993.77	2032.12
993.991	2033.12
994.212	2079.12
994.432	2058.12
994.653	2027.12
994.873	2052.12
995.093	1894.12
995.314	1959.12
995.534	2030.12
995.754	2023.12
995.975	2043.12
996.195	1930.12
996.415	1984.12
996.635	1963.12
996.855	1976.12
997.075	1971.12
997.295	1945.12
997.515	1947.12
997.735	1978.12
997.955	1973.12
998.174	1930.12
998.394	1865.12
998.614	1932.12
998.834	1906.12
999.053	1953.12
999.273	1926.12
999.492	1955.12
999.712	1918.12
999.931	1863.12
1000.151	1909.12
1000.37	1859.12
1000.589	1911.12
1000.809	1843.12
1001.028	1965.12
1001.247	1912.12
1001.466	1780.12
1001.685	1931.12
1001.904	1861.12
1002.123	1815.12
1002.342	1826.12
1002.561	1769.12
1002.78	1795.12
1002.999	1857.12
1003.218	1790.12
1003.436	1784.12
1003.655	1827.12
1003.874	1757.12
1004.092	1780.12
1004.311	1816.12
1004.53	1807.12
1004.748	1843.12
1004.966	1756.12
1005.185	1808.12
1005.403	1797.12
1005.622	1781.12
1005.84	1854.12
1006.058	1750.12
1006.276	1756.12
1006.494	2106.12
1006.712	1750.12
1006.931	1809.12
1007.149	1716.12
1007.367	1745.12
1007.584	1772.12
1007.802	1780.12
1008.02	1728.12
1008.238	1830.12
1008.456	1830.12
1008.673	1691.12
1008.891	1768.12
1009.109	1752.12
1009.326	1831.12
1009.544	1878.12
1009.761	1800.12
1009.979	1913.12
1010.196	1880.12
1010.413	1973.12
1010.631	2028.12
1010.848	2042.12
1011.065	2089.12
1011.282	1989.12
1011.5	1932.12
1011.717	2026.12
1011.934	1994.12
1012.151	1951.12
1012.368	1959.12
1012.585	1931.12
1012.801	1990.12
1013.018	1948.12
1013.235	1893.12
1013.452	1888.12
1013.669	1909.12
1013.885	1892.12
1014.102	1972.12
1014.318	1955.12
1014.535	1861.12
1014.751	1890.12
1014.968	1892.12
1015.184	1894.12
1015.401	1796.12
1015.617	1863.12
1015.833	1813.12
1016.049	1790.12
1016.266	1753.12
1016.482	1771.12
1016.698	1703.12
1016.914	1747.12
1017.13	1684.12
1017.346	1665.12
1017.562	1751.12
1017.778	1670.12
1017.993	1619.12
1018.209	1688.12
1018.425	1663.12
1018.641	1603.12
1018.856	1586.12
1019.072	1626.12
1019.288	1664.12
1019.503	1620.12
1019.719	1531.12
1019.934	1553.12
1020.149	1627.12
1020.365	1546.12
1020.58	1486.12
1020.795	1533.12
1021.011	1479.12
1021.226	1450.12
1021.441	1476.12
1021.656	1382.12
1021.871	1314.12
1022.086	1314.12
1022.301	1344.12
1022.516	1307.12
1022.731	1416.12
1022.946	1263.12
1023.16	1246.12
1023.375	1213.12
1023.59	1182.12
1023.804	1170.12
1024.019	1263.12
1024.234	1146.12
1024.448	1161.12
1024.663	1103.12
1024.877	1089.12
1025.092	1113.12
1025.306	1131.12
1025.52	1027.12
1025.734	1112.12
1025.949	1003.12
1026.163	1017.12
1026.377	960.12
1026.591	990.12
1026.805	931.12
1027.019	913.12
1027.233	876.12
1027.447	837.12
1027.661	924.12
1027.875	853.12
1028.088	874.12
1028.302	793.12
1028.516	780.12
1028.73	780.12
1028.943	770.12
1029.157	733.12
1029.37	671.12
1029.584	1.12
1029.797	-2.88
1030.011	-0.88
1030.224	-1.88
