Data from QEP037381__234__14-33-48-754.txt Node

Date: Fri Apr 28 14:33:48 EDT 2023
User: dcclab
Spectrometer: QEP03738
Trigger mode: 4
Integration Time (sec): 1.000000E1
Scans to average: 1
Electric dark correction enabled: true
Nonlinearity correction enabled: false
Boxcar width: 0
XAxis mode: Wavelengths
Number of Pixels in Spectrum: 1044
>>>>>Begin Spectral Data<<<<<
784.041	11.88
784.3	-0.12
784.558	-2.12
784.817	-3.12
785.075	79252.88
785.334	15939.88
785.592	8281.88
785.851	5861.88
786.109	4394.88
786.368	3368.88
786.626	2734.88
786.884	2255.88
787.143	1935.88
787.401	1545.88
787.659	1436.88
787.917	1194.88
788.175	1096.88
788.433	954.88
788.691	863.88
788.949	784.88
789.207	746.88
789.465	656.88
789.723	633.88
789.98	593.88
790.238	620.88
790.496	587.88
790.753	542.88
791.011	605.88
791.268	540.88
791.526	524.88
791.783	535.88
792.041	521.88
792.298	416.88
792.556	496.88
792.813	468.88
793.07	454.88
793.327	432.88
793.584	513.88
793.841	439.88
794.099	458.88
794.356	516.88
794.613	430.88
794.869	463.88
795.126	409.88
795.383	421.88
795.64	424.88
795.897	373.88
796.153	418.88
796.41	421.88
796.667	401.88
796.923	388.88
797.18	396.88
797.436	427.88
797.693	391.88
797.949	451.88
798.206	492.88
798.462	389.88
798.718	440.88
798.974	433.88
799.231	481.88
799.487	452.88
799.743	464.88
799.999	479.88
800.255	466.88
800.511	466.88
800.767	507.88
801.023	504.88
801.279	524.88
801.534	549.88
801.79	600.88
802.046	614.88
802.302	758.88
802.557	858.88
802.813	1067.88
803.068	1337.88
803.324	1888.88
803.579	2580.88
803.835	3555.88
804.09	4879.88
804.345	6166.88
804.601	7553.88
804.856	8811.88
805.111	9778.88
805.366	10411.88
805.621	10766.88
805.876	11040.88
806.131	11165.88
806.386	11388.88
806.641	11506.88
806.896	11581.88
807.151	11870.88
807.406	11943.88
807.661	12073.88
807.915	12306.88
808.17	12426.88
808.425	12577.88
808.679	12669.88
808.934	12835.88
809.188	12895.88
809.443	13124.88
809.697	13222.88
809.951	13234.88
810.206	13361.88
810.46	13423.88
810.714	13520.88
810.968	13702.88
811.223	13614.88
811.477	13815.88
811.731	13919.88
811.985	13951.88
812.239	13984.88
812.493	14088.88
812.747	14113.88
813	14204.88
813.254	14251.88
813.508	14250.88
813.762	14322.88
814.015	14388.88
814.269	14463.88
814.522	14645.88
814.776	14772.88
815.03	14849.88
815.283	15047.88
815.536	15249.88
815.79	15386.88
816.043	15611.88
816.296	15696.88
816.55	15948.88
816.803	15994.88
817.056	16319.88
817.309	16355.88
817.562	16398.88
817.815	16624.88
818.068	16740.88
818.321	16870.88
818.574	17161.88
818.827	17369.88
819.079	17424.88
819.332	17892.88
819.585	17985.88
819.838	18213.88
820.09	18394.88
820.343	18558.88
820.595	18562.88
820.848	18702.88
821.1	18838.88
821.353	18747.88
821.605	18718.88
821.857	18781.88
822.11	18692.88
822.362	18627.88
822.614	18522.88
822.866	18630.88
823.118	18580.88
823.37	18750.88
823.622	18759.88
823.874	18732.88
824.126	18896.88
824.378	18884.88
824.63	18925.88
824.882	18961.88
825.134	18847.88
825.385	18984.88
825.637	18904.88
825.888	18705.88
826.14	18673.88
826.392	18633.88
826.643	18494.88
826.895	18545.88
827.146	18385.88
827.397	18335.88
827.649	18360.88
827.9	18367.88
828.151	18303.88
828.402	18424.88
828.653	18475.88
828.905	18499.88
829.156	18560.88
829.407	18457.88
829.658	18415.88
829.909	18438.88
830.159	18271.88
830.41	18356.88
830.661	18203.88
830.912	18064.88
831.162	17961.88
831.413	17915.88
831.664	17980.88
831.914	17949.88
832.165	17962.88
832.415	17972.88
832.666	17894.88
832.916	17979.88
833.167	17812.88
833.417	17921.88
833.667	17780.88
833.917	17756.88
834.168	17666.88
834.418	17668.88
834.668	17581.88
834.918	17478.88
835.168	17497.88
835.418	17425.88
835.668	17289.88
835.918	17404.88
836.167	17193.88
836.417	17216.88
836.667	17152.88
836.917	17160.88
837.166	17136.88
837.416	16968.88
837.666	17114.88
837.915	16996.88
838.165	16979.88
838.414	16838.88
838.663	16777.88
838.913	16817.88
839.162	16674.88
839.411	16795.88
839.661	16597.88
839.91	16565.88
840.159	16616.88
840.408	16615.88
840.657	16569.88
840.906	16571.88
841.155	16567.88
841.404	16421.88
841.653	16519.88
841.902	16504.88
842.15	16592.88
842.399	16491.88
842.648	16429.88
842.897	16482.88
843.145	16318.88
843.394	16222.88
843.642	16158.88
843.891	16163.88
844.139	16019.88
844.388	15824.88
844.636	15795.88
844.884	15845.88
845.133	15770.88
845.381	15744.88
845.629	15809.88
845.877	15766.88
846.125	15749.88
846.373	15626.88
846.621	15487.88
846.869	15508.88
847.117	15481.88
847.365	15369.88
847.613	15283.88
847.861	15214.88
848.108	15237.88
848.356	15302.88
848.604	15168.88
848.851	15155.88
849.099	15287.88
849.346	15133.88
849.594	15313.88
849.841	15367.88
850.089	15274.88
850.336	15287.88
850.583	15210.88
850.831	15280.88
851.078	15169.88
851.325	15072.88
851.572	15208.88
851.819	14907.88
852.066	14669.88
852.313	14523.88
852.56	14362.88
852.807	14295.88
853.054	14304.88
853.301	14233.88
853.548	14315.88
853.794	14399.88
854.041	14418.88
854.288	14470.88
854.534	14661.88
854.781	14611.88
855.028	14369.88
855.274	14476.88
855.52	14388.88
855.767	14137.88
856.013	14254.88
856.26	14416.88
856.506	13985.88
856.752	14052.88
856.998	14069.88
857.244	14029.88
857.49	14190.88
857.736	14114.88
857.982	14114.88
858.228	14102.88
858.474	14059.88
858.72	13877.88
858.966	13868.88
859.212	13660.88
859.458	13532.88
859.703	13387.88
859.949	13212.88
860.195	13242.88
860.44	13185.88
860.686	12964.88
860.931	13157.88
861.177	12987.88
861.422	12996.88
861.667	12943.88
861.913	12983.88
862.158	12990.88
862.403	13058.88
862.648	13114.88
862.893	13031.88
863.138	13051.88
863.384	12900.88
863.629	12864.88
863.873	12900.88
864.118	12817.88
864.363	12686.88
864.608	12714.88
864.853	12668.88
865.098	12588.88
865.342	12497.88
865.587	12454.88
865.832	12401.88
866.076	12426.88
866.321	12380.88
866.565	12316.88
866.81	12173.88
867.054	12212.88
867.298	12197.88
867.543	12150.88
867.787	12213.88
868.031	12186.88
868.275	12112.88
868.519	12100.88
868.764	12041.88
869.008	12099.88
869.252	12078.88
869.496	11933.88
869.739	11916.88
869.983	11914.88
870.227	11848.88
870.471	11813.88
870.715	11930.88
870.958	11915.88
871.202	11837.88
871.446	11906.88
871.689	11858.88
871.933	11935.88
872.176	11953.88
872.42	11899.88
872.663	11799.88
872.906	11847.88
873.15	11740.88
873.393	11601.88
873.636	11572.88
873.879	11487.88
874.122	11390.88
874.366	11187.88
874.609	11221.88
874.852	11107.88
875.095	11089.88
875.337	11062.88
875.58	10875.88
875.823	10959.88
876.066	10941.88
876.309	10967.88
876.551	10827.88
876.794	10764.88
877.037	10802.88
877.279	10754.88
877.522	10802.88
877.764	10773.88
878.007	10756.88
878.249	10724.88
878.491	10700.88
878.734	10819.88
878.976	10677.88
879.218	10552.88
879.46	10611.88
879.702	10519.88
879.945	10431.88
880.187	10323.88
880.429	10306.88
880.671	10157.88
880.912	10181.88
881.154	10119.88
881.396	10073.88
881.638	10163.88
881.88	10082.88
882.121	9988.88
882.363	9994.88
882.605	10043.88
882.846	10023.88
883.088	9966.88
883.329	9882.88
883.571	9875.88
883.812	9928.88
884.053	9982.88
884.295	10093.88
884.536	10224.88
884.777	9975.88
885.018	9958.88
885.259	9967.88
885.5	9875.88
885.742	10053.88
885.982	9927.88
886.223	9759.88
886.464	9762.88
886.705	9692.88
886.946	9621.88
887.187	9528.88
887.428	9548.88
887.668	9398.88
887.909	9274.88
888.15	9227.88
888.39	9243.88
888.631	9204.88
888.871	9116.88
889.111	8970.88
889.352	8963.88
889.592	8949.88
889.833	8842.88
890.073	8798.88
890.313	8764.88
890.553	8667.88
890.793	8605.88
891.033	8601.88
891.273	8567.88
891.513	8459.88
891.753	8475.88
891.993	8446.88
892.233	8425.88
892.473	8551.88
892.713	8530.88
892.952	8448.88
893.192	8457.88
893.432	8398.88
893.671	8451.88
893.911	8350.88
894.15	8332.88
894.39	8198.88
894.629	8205.88
894.869	8197.88
895.108	8126.88
895.347	8131.88
895.587	8081.88
895.826	7976.88
896.065	7940.88
896.304	7945.88
896.543	8036.88
896.782	7915.88
897.021	7909.88
897.26	7874.88
897.499	7879.88
897.738	7896.88
897.977	7832.88
898.216	7761.88
898.454	7629.88
898.693	7593.88
898.932	7589.88
899.17	7581.88
899.409	7470.88
899.647	7483.88
899.886	7470.88
900.124	7517.88
900.363	7454.88
900.601	7460.88
900.839	7413.88
901.078	7461.88
901.316	7469.88
901.554	7495.88
901.792	7439.88
902.03	7412.88
902.268	7426.88
902.506	7375.88
902.744	7255.88
902.982	7373.88
903.22	7234.88
903.458	7183.88
903.695	7131.88
903.933	7024.88
904.171	6897.88
904.409	6893.88
904.646	6818.88
904.884	6751.88
905.121	6720.88
905.359	6639.88
905.596	6561.88
905.833	6499.88
906.071	6469.88
906.308	6594.88
906.545	6495.88
906.783	6439.88
907.02	6487.88
907.257	6393.88
907.494	6418.88
907.731	6450.88
907.968	6429.88
908.205	6364.88
908.442	6261.88
908.679	6282.88
908.915	6199.88
909.152	6158.88
909.389	6064.88
909.626	6093.88
909.862	6034.88
910.099	6025.88
910.335	5993.88
910.572	5893.88
910.808	5942.88
911.045	5905.88
911.281	5861.88
911.518	5938.88
911.754	5827.88
911.99	5809.88
912.226	5761.88
912.463	5725.88
912.699	5725.88
912.935	5607.88
913.171	5606.88
913.407	5548.88
913.643	5530.88
913.879	5470.88
914.114	5442.88
914.35	5434.88
914.586	5327.88
914.822	5301.88
915.057	5317.88
915.293	5196.88
915.529	5189.88
915.764	5184.88
916	5195.88
916.235	5134.88
916.471	5213.88
916.706	5122.88
916.941	5093.88
917.177	5086.88
917.412	5107.88
917.647	5130.88
917.882	5086.88
918.117	5129.88
918.352	5091.88
918.588	5101.88
918.823	4942.88
919.057	4960.88
919.292	4817.88
919.527	4891.88
919.762	4769.88
919.997	4809.88
920.232	4720.88
920.466	4647.88
920.701	4597.88
920.935	4599.88
921.17	4595.88
921.405	4528.88
921.639	4592.88
921.873	4536.88
922.108	4559.88
922.342	4504.88
922.576	4451.88
922.811	4430.88
923.045	4436.88
923.279	4472.88
923.513	4328.88
923.747	4448.88
923.981	4378.88
924.215	4281.88
924.449	4270.88
924.683	4226.88
924.917	4246.88
925.151	4229.88
925.385	4250.88
925.618	4191.88
925.852	4221.88
926.086	4120.88
926.319	4153.88
926.553	4147.88
926.786	4143.88
927.02	4090.88
927.253	4202.88
927.486	4182.88
927.72	4073.88
927.953	4147.88
928.186	4084.88
928.42	4125.88
928.653	4062.88
928.886	3964.88
929.119	4048.88
929.352	4029.88
929.585	4007.88
929.818	3929.88
930.051	3930.88
930.284	3887.88
930.516	3805.88
930.749	3820.88
930.982	3860.88
931.215	3812.88
931.447	3702.88
931.68	3791.88
931.912	3741.88
932.145	3730.88
932.377	3761.88
932.61	3828.88
932.842	3690.88
933.074	3752.88
933.307	3644.88
933.539	3789.88
933.771	3749.88
934.003	3695.88
934.236	3793.88
934.468	3791.88
934.7	3671.88
934.932	3722.88
935.164	3668.88
935.395	3674.88
935.627	3669.88
935.859	3656.88
936.091	3570.88
936.323	3642.88
936.554	3646.88
936.786	3544.88
937.017	3484.88
937.249	3556.88
937.481	3496.88
937.712	3598.88
937.943	3527.88
938.175	3488.88
938.406	3504.88
938.637	3556.88
938.869	3471.88
939.1	3483.88
939.331	3463.88
939.562	3493.88
939.793	3509.88
940.024	3431.88
940.255	3447.88
940.486	3362.88
940.717	3418.88
940.948	3399.88
941.179	3343.88
941.409	3333.88
941.64	3354.88
941.871	3352.88
942.102	3356.88
942.332	3355.88
942.563	3393.88
942.793	3322.88
943.024	3300.88
943.254	3293.88
943.484	3369.88
943.715	3354.88
943.945	3362.88
944.175	3251.88
944.405	3255.88
944.636	3273.88
944.866	3270.88
945.096	3268.88
945.326	3205.88
945.556	3270.88
945.786	3281.88
946.016	3193.88
946.245	3167.88
946.475	3170.88
946.705	3141.88
946.935	3143.88
947.164	3166.88
947.394	3075.88
947.624	3096.88
947.853	3087.88
948.083	3111.88
948.312	3066.88
948.542	2998.88
948.771	2993.88
949	3006.88
949.23	3026.88
949.459	3042.88
949.688	3059.88
949.917	3006.88
950.146	3013.88
950.375	3071.88
950.604	2944.88
950.833	3060.88
951.062	3065.88
951.291	2991.88
951.52	2945.88
951.749	2995.88
951.978	2900.88
952.206	2900.88
952.435	2911.88
952.664	2925.88
952.892	2916.88
953.121	2914.88
953.349	2929.88
953.578	2905.88
953.806	2868.88
954.035	2814.88
954.263	2838.88
954.491	2795.88
954.719	2846.88
954.948	2774.88
955.176	2778.88
955.404	2742.88
955.632	2778.88
955.86	2777.88
956.088	2738.88
956.316	2773.88
956.544	2743.88
956.772	2689.88
956.999	2707.88
957.227	2779.88
957.455	2645.88
957.683	2634.88
957.91	2614.88
958.138	2614.88
958.365	2618.88
958.593	2595.88
958.82	2573.88
959.048	2619.88
959.275	2585.88
959.502	2572.88
959.73	2567.88
959.957	2558.88
960.184	2612.88
960.411	2543.88
960.638	2618.88
960.865	2553.88
961.092	2561.88
961.319	2455.88
961.546	2538.88
961.773	2587.88
962	2508.88
962.227	2565.88
962.454	2518.88
962.68	2534.88
962.907	2546.88
963.134	2464.88
963.36	2480.88
963.587	2486.88
963.813	2395.88
964.04	2443.88
964.266	2400.88
964.493	2452.88
964.719	2429.88
964.945	2446.88
965.171	2331.88
965.398	2392.88
965.624	2400.88
965.85	2321.88
966.076	2344.88
966.302	2382.88
966.528	2325.88
966.754	2352.88
966.98	2337.88
967.206	2317.88
967.431	2261.88
967.657	2342.88
967.883	2329.88
968.109	2291.88
968.334	2225.88
968.56	2251.88
968.785	2262.88
969.011	2208.88
969.236	2225.88
969.462	2191.88
969.687	2270.88
969.912	2226.88
970.138	2263.88
970.363	2189.88
970.588	2240.88
970.813	2190.88
971.038	2158.88
971.263	2167.88
971.488	2211.88
971.713	2244.88
971.938	2168.88
972.163	2066.88
972.388	2106.88
972.613	2116.88
972.838	2102.88
973.062	2092.88
973.287	2107.88
973.512	2031.88
973.736	2059.88
973.961	2050.88
974.185	2056.88
974.41	2071.88
974.634	1980.88
974.858	2002.88
975.083	2030.88
975.307	2024.88
975.531	1973.88
975.755	1932.88
975.98	1971.88
976.204	1897.88
976.428	1890.88
976.652	1908.88
976.876	1917.88
977.1	1934.88
977.324	1917.88
977.547	1926.88
977.771	1924.88
977.995	1904.88
978.219	1825.88
978.442	1943.88
978.666	1915.88
978.89	1863.88
979.113	1877.88
979.337	1891.88
979.56	1825.88
979.783	1923.88
980.007	1818.88
980.23	1836.88
980.453	1817.88
980.677	1835.88
980.9	1833.88
981.123	1727.88
981.346	1814.88
981.569	1777.88
981.792	1814.88
982.015	1771.88
982.238	1759.88
982.461	1763.88
982.684	1736.88
982.907	1724.88
983.129	1711.88
983.352	1749.88
983.575	1725.88
983.797	1732.88
984.02	1677.88
984.242	1688.88
984.465	1701.88
984.687	1734.88
984.91	1729.88
985.132	1713.88
985.354	1701.88
985.577	1665.88
985.799	1676.88
986.021	1587.88
986.243	1627.88
986.465	1635.88
986.687	1691.88
986.909	1730.88
987.131	1667.88
987.353	1615.88
987.575	1665.88
987.797	1626.88
988.019	1570.88
988.241	1600.88
988.462	1568.88
988.684	1644.88
988.906	1664.88
989.127	1663.88
989.349	1560.88
989.57	1599.88
989.792	1623.88
990.013	1628.88
990.234	1609.88
990.456	1668.88
990.677	1623.88
990.898	1575.88
991.119	1568.88
991.341	1623.88
991.562	1534.88
991.783	1576.88
992.004	1518.88
992.225	1487.88
992.446	1571.88
992.667	1464.88
992.887	1553.88
993.108	1415.88
993.329	1588.88
993.55	1543.88
993.77	1451.88
993.991	1470.88
994.212	1510.88
994.432	1441.88
994.653	1494.88
994.873	1497.88
995.093	1371.88
995.314	1436.88
995.534	1492.88
995.754	1486.88
995.975	1523.88
996.195	1399.88
996.415	1468.88
996.635	1436.88
996.855	1443.88
997.075	1420.88
997.295	1426.88
997.515	1372.88
997.735	1451.88
997.955	1406.88
998.174	1401.88
998.394	1388.88
998.614	1439.88
998.834	1365.88
999.053	1454.88
999.273	1442.88
999.492	1458.88
999.712	1403.88
999.931	1363.88
1000.151	1416.88
1000.37	1407.88
1000.589	1447.88
1000.809	1403.88
1001.028	1476.88
1001.247	1426.88
1001.466	1321.88
1001.685	1467.88
1001.904	1381.88
1002.123	1368.88
1002.342	1401.88
1002.561	1341.88
1002.78	1365.88
1002.999	1412.88
1003.218	1374.88
1003.436	1336.88
1003.655	1392.88
1003.874	1344.88
1004.092	1338.88
1004.311	1416.88
1004.53	1367.88
1004.748	1449.88
1004.966	1354.88
1005.185	1404.88
1005.403	1376.88
1005.622	1363.88
1005.84	1437.88
1006.058	1342.88
1006.276	1364.88
1006.494	1724.88
1006.712	1349.88
1006.931	1412.88
1007.149	1345.88
1007.367	1335.88
1007.584	1354.88
1007.802	1401.88
1008.02	1342.88
1008.238	1398.88
1008.456	1411.88
1008.673	1270.88
1008.891	1380.88
1009.109	1333.88
1009.326	1367.88
1009.544	1441.88
1009.761	1333.88
1009.979	1428.88
1010.196	1405.88
1010.413	1483.88
1010.631	1470.88
1010.848	1526.88
1011.065	1507.88
1011.282	1420.88
1011.5	1389.88
1011.717	1499.88
1011.934	1442.88
1012.151	1439.88
1012.368	1429.88
1012.585	1362.88
1012.801	1406.88
1013.018	1371.88
1013.235	1379.88
1013.452	1382.88
1013.669	1403.88
1013.885	1364.88
1014.102	1378.88
1014.318	1336.88
1014.535	1317.88
1014.751	1340.88
1014.968	1344.88
1015.184	1390.88
1015.401	1318.88
1015.617	1335.88
1015.833	1263.88
1016.049	1305.88
1016.266	1269.88
1016.482	1284.88
1016.698	1204.88
1016.914	1287.88
1017.13	1224.88
1017.346	1200.88
1017.562	1280.88
1017.778	1203.88
1017.993	1151.88
1018.209	1240.88
1018.425	1213.88
1018.641	1155.88
1018.856	1148.88
1019.072	1186.88
1019.288	1210.88
1019.503	1193.88
1019.719	1091.88
1019.934	1104.88
1020.149	1187.88
1020.365	1132.88
1020.58	1095.88
1020.795	1134.88
1021.011	1071.88
1021.226	1069.88
1021.441	1106.88
1021.656	1050.88
1021.871	985.88
1022.086	986.88
1022.301	983.88
1022.516	970.88
1022.731	1054.88
1022.946	951.88
1023.16	924.88
1023.375	920.88
1023.59	906.88
1023.804	885.88
1024.019	994.88
1024.234	861.88
1024.448	894.88
1024.663	804.88
1024.877	818.88
1025.092	848.88
1025.306	894.88
1025.52	790.88
1025.734	858.88
1025.949	808.88
1026.163	782.88
1026.377	715.88
1026.591	789.88
1026.805	715.88
1027.019	711.88
1027.233	674.88
1027.447	631.88
1027.661	721.88
1027.875	665.88
1028.088	688.88
1028.302	622.88
1028.516	602.88
1028.73	616.88
1028.943	613.88
1029.157	571.88
1029.37	530.88
1029.584	-2.12
1029.797	-1.12
1030.011	0.88
1030.224	-4.12
