Data from QEP037381__34__13-27-24-036.txt Node

Date: Fri Apr 28 13:27:24 EDT 2023
User: dcclab
Spectrometer: QEP03738
Trigger mode: 4
Integration Time (sec): 1.000000E1
Scans to average: 1
Electric dark correction enabled: true
Nonlinearity correction enabled: false
Boxcar width: 0
XAxis mode: Wavelengths
Number of Pixels in Spectrum: 1044
>>>>>Begin Spectral Data<<<<<
784.041	11.75
784.3	-1.25
784.558	-0.25
784.817	-4.25
785.075	67462.75
785.334	13386.75
785.592	6956.75
785.851	4869.75
786.109	3717.75
786.368	2879.75
786.626	2325.75
786.884	1964.75
787.143	1654.75
787.401	1362.75
787.659	1219.75
787.917	1065.75
788.175	988.75
788.433	852.75
788.691	797.75
788.949	702.75
789.207	688.75
789.465	611.75
789.723	590.75
789.98	540.75
790.238	577.75
790.496	556.75
790.753	512.75
791.011	552.75
791.268	497.75
791.526	492.75
791.783	497.75
792.041	498.75
792.298	419.75
792.556	474.75
792.813	466.75
793.07	432.75
793.327	421.75
793.584	503.75
793.841	425.75
794.099	427.75
794.356	487.75
794.613	404.75
794.869	428.75
795.126	407.75
795.383	383.75
795.64	398.75
795.897	366.75
796.153	408.75
796.41	400.75
796.667	377.75
796.923	407.75
797.18	394.75
797.436	418.75
797.693	376.75
797.949	435.75
798.206	459.75
798.462	367.75
798.718	427.75
798.974	410.75
799.231	441.75
799.487	420.75
799.743	437.75
799.999	458.75
800.255	456.75
800.511	437.75
800.767	468.75
801.023	451.75
801.279	472.75
801.534	508.75
801.79	553.75
802.046	549.75
802.302	665.75
802.557	735.75
802.813	881.75
803.068	1074.75
803.324	1487.75
803.579	2000.75
803.835	2724.75
804.09	3762.75
804.345	4789.75
804.601	5861.75
804.856	6860.75
805.111	7756.75
805.366	8198.75
805.621	8594.75
805.876	8836.75
806.131	8969.75
806.386	9117.75
806.641	9246.75
806.896	9368.75
807.151	9591.75
807.406	9669.75
807.661	9884.75
807.915	10043.75
808.17	10174.75
808.425	10351.75
808.679	10381.75
808.934	10623.75
809.188	10652.75
809.443	10828.75
809.697	10991.75
809.951	11004.75
810.206	11056.75
810.46	11225.75
810.714	11361.75
810.968	11416.75
811.223	11416.75
811.477	11554.75
811.731	11648.75
811.985	11666.75
812.239	11666.75
812.493	11758.75
812.747	11951.75
813	11842.75
813.254	11994.75
813.508	12045.75
813.762	12014.75
814.015	12076.75
814.269	12337.75
814.522	12304.75
814.776	12459.75
815.03	12658.75
815.283	12807.75
815.536	12991.75
815.79	13088.75
816.043	13352.75
816.296	13545.75
816.55	13628.75
816.803	13805.75
817.056	14091.75
817.309	14221.75
817.562	14325.75
817.815	14486.75
818.068	14553.75
818.321	14735.75
818.574	14953.75
818.827	15219.75
819.079	15415.75
819.332	15731.75
819.585	15826.75
819.838	16030.75
820.09	16116.75
820.343	16288.75
820.595	16372.75
820.848	16559.75
821.1	16541.75
821.353	16602.75
821.605	16517.75
821.857	16568.75
822.11	16422.75
822.362	16452.75
822.614	16363.75
822.866	16426.75
823.118	16349.75
823.37	16598.75
823.622	16492.75
823.874	16601.75
824.126	16747.75
824.378	16727.75
824.63	16796.75
824.882	16777.75
825.134	16756.75
825.385	16646.75
825.637	16661.75
825.888	16584.75
826.14	16582.75
826.392	16436.75
826.643	16411.75
826.895	16398.75
827.146	16235.75
827.397	16296.75
827.649	16354.75
827.9	16296.75
828.151	16208.75
828.402	16259.75
828.653	16254.75
828.905	16330.75
829.156	16395.75
829.407	16300.75
829.658	16429.75
829.909	16308.75
830.159	16256.75
830.41	16198.75
830.661	16113.75
830.912	16033.75
831.162	15925.75
831.413	15881.75
831.664	15893.75
831.914	15924.75
832.165	15884.75
832.415	15945.75
832.666	15892.75
832.916	15919.75
833.167	15807.75
833.417	15827.75
833.667	15739.75
833.917	15717.75
834.168	15631.75
834.418	15566.75
834.668	15667.75
834.918	15554.75
835.168	15512.75
835.418	15350.75
835.668	15390.75
835.918	15467.75
836.167	15320.75
836.417	15226.75
836.667	15286.75
836.917	15172.75
837.166	15066.75
837.416	15093.75
837.666	15100.75
837.915	15028.75
838.165	14983.75
838.414	14879.75
838.663	14833.75
838.913	14913.75
839.162	14813.75
839.411	14851.75
839.661	14739.75
839.91	14758.75
840.159	14662.75
840.408	14621.75
840.657	14659.75
840.906	14737.75
841.155	14644.75
841.404	14693.75
841.653	14613.75
841.902	14583.75
842.15	14729.75
842.399	14644.75
842.648	14642.75
842.897	14550.75
843.145	14473.75
843.394	14473.75
843.642	14223.75
843.891	14324.75
844.139	14262.75
844.388	14049.75
844.636	13968.75
844.884	14015.75
845.133	14002.75
845.381	13940.75
845.629	14013.75
845.877	13994.75
846.125	13990.75
846.373	13961.75
846.621	13807.75
846.869	13782.75
847.117	13813.75
847.365	13733.75
847.613	13672.75
847.861	13608.75
848.108	13596.75
848.356	13499.75
848.604	13552.75
848.851	13493.75
849.099	13481.75
849.346	13500.75
849.594	13614.75
849.841	13673.75
850.089	13687.75
850.336	13646.75
850.583	13638.75
850.831	13495.75
851.078	13588.75
851.325	13511.75
851.572	13462.75
851.819	13380.75
852.066	13023.75
852.313	12881.75
852.56	12726.75
852.807	12796.75
853.054	12711.75
853.301	12786.75
853.548	12602.75
853.794	12839.75
854.041	12857.75
854.288	12909.75
854.534	12961.75
854.781	13002.75
855.028	12901.75
855.274	12892.75
855.52	12803.75
855.767	12647.75
856.013	12738.75
856.26	12865.75
856.506	12468.75
856.752	12568.75
856.998	12478.75
857.244	12574.75
857.49	12606.75
857.736	12590.75
857.982	12626.75
858.228	12548.75
858.474	12512.75
858.72	12447.75
858.966	12316.75
859.212	12254.75
859.458	12087.75
859.703	11959.75
859.949	11840.75
860.195	11821.75
860.44	11669.75
860.686	11645.75
860.931	11646.75
861.177	11591.75
861.422	11569.75
861.667	11514.75
861.913	11497.75
862.158	11552.75
862.403	11626.75
862.648	11618.75
862.893	11669.75
863.138	11667.75
863.384	11580.75
863.629	11581.75
863.873	11583.75
864.118	11518.75
864.363	11318.75
864.608	11318.75
864.853	11181.75
865.098	11235.75
865.342	11141.75
865.587	11122.75
865.832	11155.75
866.076	11120.75
866.321	10998.75
866.565	11037.75
866.81	10939.75
867.054	11004.75
867.298	11003.75
867.543	10814.75
867.787	10895.75
868.031	10875.75
868.275	10888.75
868.519	10873.75
868.764	10835.75
869.008	10837.75
869.252	10790.75
869.496	10787.75
869.739	10732.75
869.983	10798.75
870.227	10750.75
870.471	10668.75
870.715	10682.75
870.958	10754.75
871.202	10689.75
871.446	10669.75
871.689	10685.75
871.933	10691.75
872.176	10696.75
872.42	10611.75
872.663	10617.75
872.906	10610.75
873.15	10505.75
873.393	10379.75
873.636	10390.75
873.879	10302.75
874.122	10209.75
874.366	10101.75
874.609	10046.75
874.852	9946.75
875.095	9918.75
875.337	9897.75
875.58	9777.75
875.823	9880.75
876.066	9828.75
876.309	9827.75
876.551	9775.75
876.794	9672.75
877.037	9681.75
877.279	9658.75
877.522	9726.75
877.764	9741.75
878.007	9639.75
878.249	9637.75
878.491	9591.75
878.734	9668.75
878.976	9678.75
879.218	9508.75
879.46	9521.75
879.702	9384.75
879.945	9402.75
880.187	9230.75
880.429	9230.75
880.671	9141.75
880.912	9097.75
881.154	9073.75
881.396	9042.75
881.638	9119.75
881.88	9070.75
882.121	9046.75
882.363	9039.75
882.605	9072.75
882.846	9030.75
883.088	9001.75
883.329	8868.75
883.571	8881.75
883.812	8905.75
884.053	8967.75
884.295	9041.75
884.536	9183.75
884.777	9061.75
885.018	9025.75
885.259	9029.75
885.5	8948.75
885.742	9097.75
885.982	8897.75
886.223	8781.75
886.464	8803.75
886.705	8720.75
886.946	8712.75
887.187	8495.75
887.428	8604.75
887.668	8388.75
887.909	8359.75
888.15	8331.75
888.39	8323.75
888.631	8215.75
888.871	8179.75
889.111	8082.75
889.352	7964.75
889.592	7956.75
889.833	7882.75
890.073	7815.75
890.313	7895.75
890.553	7687.75
890.793	7728.75
891.033	7655.75
891.273	7644.75
891.513	7674.75
891.753	7696.75
891.993	7592.75
892.233	7581.75
892.473	7709.75
892.713	7643.75
892.952	7580.75
893.192	7602.75
893.432	7598.75
893.671	7594.75
893.911	7580.75
894.15	7557.75
894.39	7365.75
894.629	7442.75
894.869	7319.75
895.108	7308.75
895.347	7276.75
895.587	7260.75
895.826	7285.75
896.065	7197.75
896.304	7246.75
896.543	7253.75
896.782	7142.75
897.021	7136.75
897.26	7113.75
897.499	7185.75
897.738	7098.75
897.977	7038.75
898.216	6979.75
898.454	6958.75
898.693	6876.75
898.932	6882.75
899.17	6834.75
899.409	6839.75
899.647	6783.75
899.886	6771.75
900.124	6829.75
900.363	6771.75
900.601	6774.75
900.839	6777.75
901.078	6763.75
901.316	6790.75
901.554	6831.75
901.792	6903.75
902.03	6806.75
902.268	6794.75
902.506	6783.75
902.744	6741.75
902.982	6682.75
903.22	6614.75
903.458	6532.75
903.695	6447.75
903.933	6455.75
904.171	6281.75
904.409	6190.75
904.646	6213.75
904.884	6079.75
905.121	6104.75
905.359	6011.75
905.596	5948.75
905.833	5895.75
906.071	5909.75
906.308	5909.75
906.545	5874.75
906.783	5780.75
907.02	5869.75
907.257	5777.75
907.494	5817.75
907.731	5790.75
907.968	5747.75
908.205	5702.75
908.442	5599.75
908.679	5662.75
908.915	5623.75
909.152	5560.75
909.389	5466.75
909.626	5457.75
909.862	5396.75
910.099	5385.75
910.335	5368.75
910.572	5332.75
910.808	5355.75
911.045	5310.75
911.281	5234.75
911.518	5334.75
911.754	5237.75
911.99	5305.75
912.226	5209.75
912.463	5215.75
912.699	5098.75
912.935	5143.75
913.171	5029.75
913.407	4947.75
913.643	4996.75
913.879	4932.75
914.114	4910.75
914.35	4850.75
914.586	4856.75
914.822	4723.75
915.057	4792.75
915.293	4647.75
915.529	4657.75
915.764	4743.75
916	4665.75
916.235	4724.75
916.471	4667.75
916.706	4619.75
916.941	4649.75
917.177	4614.75
917.412	4653.75
917.647	4639.75
917.882	4556.75
918.117	4635.75
918.352	4613.75
918.588	4603.75
918.823	4546.75
919.057	4495.75
919.292	4345.75
919.527	4458.75
919.762	4289.75
919.997	4335.75
920.232	4294.75
920.466	4276.75
920.701	4130.75
920.935	4230.75
921.17	4173.75
921.405	4113.75
921.639	4153.75
921.873	4080.75
922.108	4136.75
922.342	4093.75
922.576	4069.75
922.811	4034.75
923.045	4055.75
923.279	4036.75
923.513	3910.75
923.747	4023.75
923.981	3985.75
924.215	3930.75
924.449	3894.75
924.683	3825.75
924.917	3840.75
925.151	3876.75
925.385	3852.75
925.618	3782.75
925.852	3837.75
926.086	3744.75
926.319	3771.75
926.553	3763.75
926.786	3802.75
927.02	3740.75
927.253	3831.75
927.486	3815.75
927.72	3722.75
927.953	3790.75
928.186	3688.75
928.42	3731.75
928.653	3652.75
928.886	3621.75
929.119	3668.75
929.352	3628.75
929.585	3627.75
929.818	3567.75
930.051	3617.75
930.284	3542.75
930.516	3481.75
930.749	3467.75
930.982	3479.75
931.215	3451.75
931.447	3443.75
931.68	3423.75
931.912	3426.75
932.145	3379.75
932.377	3413.75
932.61	3503.75
932.842	3357.75
933.074	3425.75
933.307	3353.75
933.539	3460.75
933.771	3446.75
934.003	3424.75
934.236	3473.75
934.468	3455.75
934.7	3401.75
934.932	3431.75
935.164	3343.75
935.395	3321.75
935.627	3377.75
935.859	3328.75
936.091	3269.75
936.323	3322.75
936.554	3344.75
936.786	3288.75
937.017	3225.75
937.249	3258.75
937.481	3196.75
937.712	3271.75
937.943	3231.75
938.175	3271.75
938.406	3211.75
938.637	3266.75
938.869	3164.75
939.1	3216.75
939.331	3175.75
939.562	3201.75
939.793	3189.75
940.024	3234.75
940.255	3219.75
940.486	3167.75
940.717	3136.75
940.948	3110.75
941.179	3002.75
941.409	3109.75
941.64	3040.75
941.871	3096.75
942.102	3071.75
942.332	3090.75
942.563	3113.75
942.793	3112.75
943.024	3044.75
943.254	3056.75
943.484	3118.75
943.715	3118.75
943.945	3054.75
944.175	3027.75
944.405	3010.75
944.636	3016.75
944.866	3016.75
945.096	3002.75
945.326	2950.75
945.556	3057.75
945.786	3044.75
946.016	2962.75
946.245	2933.75
946.475	2952.75
946.705	2884.75
946.935	2884.75
947.164	2937.75
947.394	2872.75
947.624	2884.75
947.853	2925.75
948.083	2863.75
948.312	2863.75
948.542	2753.75
948.771	2767.75
949	2796.75
949.23	2777.75
949.459	2812.75
949.688	2854.75
949.917	2841.75
950.146	2796.75
950.375	2844.75
950.604	2751.75
950.833	2866.75
951.062	2793.75
951.291	2746.75
951.52	2728.75
951.749	2788.75
951.978	2729.75
952.206	2685.75
952.435	2715.75
952.664	2733.75
952.892	2748.75
953.121	2713.75
953.349	2740.75
953.578	2728.75
953.806	2656.75
954.035	2599.75
954.263	2679.75
954.491	2609.75
954.719	2667.75
954.948	2607.75
955.176	2567.75
955.404	2548.75
955.632	2609.75
955.86	2596.75
956.088	2585.75
956.316	2607.75
956.544	2583.75
956.772	2533.75
956.999	2514.75
957.227	2630.75
957.455	2471.75
957.683	2512.75
957.91	2474.75
958.138	2454.75
958.365	2456.75
958.593	2461.75
958.82	2412.75
959.048	2445.75
959.275	2440.75
959.502	2398.75
959.73	2405.75
959.957	2419.75
960.184	2425.75
960.411	2344.75
960.638	2461.75
960.865	2409.75
961.092	2438.75
961.319	2331.75
961.546	2403.75
961.773	2415.75
962	2366.75
962.227	2444.75
962.454	2360.75
962.68	2345.75
962.907	2372.75
963.134	2317.75
963.36	2333.75
963.587	2322.75
963.813	2264.75
964.04	2336.75
964.266	2235.75
964.493	2351.75
964.719	2299.75
964.945	2315.75
965.171	2195.75
965.398	2238.75
965.624	2270.75
965.85	2187.75
966.076	2190.75
966.302	2231.75
966.528	2167.75
966.754	2225.75
966.98	2209.75
967.206	2199.75
967.431	2140.75
967.657	2234.75
967.883	2197.75
968.109	2207.75
968.334	2118.75
968.56	2104.75
968.785	2132.75
969.011	2085.75
969.236	2130.75
969.462	2105.75
969.687	2109.75
969.912	2142.75
970.138	2158.75
970.363	2082.75
970.588	2109.75
970.813	2068.75
971.038	2052.75
971.263	2063.75
971.488	2093.75
971.713	2087.75
971.938	2084.75
972.163	1997.75
972.388	2003.75
972.613	1995.75
972.838	2006.75
973.062	2016.75
973.287	1999.75
973.512	1923.75
973.736	1981.75
973.961	1955.75
974.185	1980.75
974.41	1980.75
974.634	1867.75
974.858	1879.75
975.083	1930.75
975.307	1922.75
975.531	1883.75
975.755	1796.75
975.98	1850.75
976.204	1762.75
976.428	1793.75
976.652	1830.75
976.876	1778.75
977.1	1798.75
977.324	1775.75
977.547	1827.75
977.771	1843.75
977.995	1800.75
978.219	1753.75
978.442	1850.75
978.666	1802.75
978.89	1794.75
979.113	1782.75
979.337	1791.75
979.56	1725.75
979.783	1816.75
980.007	1728.75
980.23	1751.75
980.453	1710.75
980.677	1749.75
980.9	1741.75
981.123	1647.75
981.346	1732.75
981.569	1737.75
981.792	1760.75
982.015	1669.75
982.238	1663.75
982.461	1700.75
982.684	1644.75
982.907	1640.75
983.129	1634.75
983.352	1681.75
983.575	1676.75
983.797	1678.75
984.02	1640.75
984.242	1609.75
984.465	1626.75
984.687	1646.75
984.91	1656.75
985.132	1644.75
985.354	1646.75
985.577	1603.75
985.799	1616.75
986.021	1523.75
986.243	1543.75
986.465	1543.75
986.687	1609.75
986.909	1653.75
987.131	1591.75
987.353	1570.75
987.575	1614.75
987.797	1562.75
988.019	1499.75
988.241	1530.75
988.462	1500.75
988.684	1562.75
988.906	1596.75
989.127	1621.75
989.349	1496.75
989.57	1551.75
989.792	1576.75
990.013	1600.75
990.234	1590.75
990.456	1618.75
990.677	1590.75
990.898	1512.75
991.119	1499.75
991.341	1556.75
991.562	1500.75
991.783	1507.75
992.004	1420.75
992.225	1435.75
992.446	1494.75
992.667	1415.75
992.887	1504.75
993.108	1394.75
993.329	1535.75
993.55	1468.75
993.77	1408.75
993.991	1414.75
994.212	1453.75
994.432	1427.75
994.653	1443.75
994.873	1438.75
995.093	1328.75
995.314	1374.75
995.534	1462.75
995.754	1450.75
995.975	1484.75
996.195	1367.75
996.415	1426.75
996.635	1414.75
996.855	1374.75
997.075	1375.75
997.295	1355.75
997.515	1367.75
997.735	1408.75
997.955	1375.75
998.174	1351.75
998.394	1307.75
998.614	1399.75
998.834	1325.75
999.053	1406.75
999.273	1400.75
999.492	1431.75
999.712	1375.75
999.931	1315.75
1000.151	1372.75
1000.37	1374.75
1000.589	1431.75
1000.809	1340.75
1001.028	1444.75
1001.247	1362.75
1001.466	1289.75
1001.685	1415.75
1001.904	1361.75
1002.123	1344.75
1002.342	1354.75
1002.561	1291.75
1002.78	1334.75
1002.999	1374.75
1003.218	1352.75
1003.436	1313.75
1003.655	1354.75
1003.874	1324.75
1004.092	1343.75
1004.311	1376.75
1004.53	1339.75
1004.748	1408.75
1004.966	1309.75
1005.185	1366.75
1005.403	1338.75
1005.622	1339.75
1005.84	1420.75
1006.058	1317.75
1006.276	1333.75
1006.494	1703.75
1006.712	1325.75
1006.931	1399.75
1007.149	1290.75
1007.367	1318.75
1007.584	1334.75
1007.802	1372.75
1008.02	1298.75
1008.238	1407.75
1008.456	1362.75
1008.673	1270.75
1008.891	1334.75
1009.109	1294.75
1009.326	1361.75
1009.544	1416.75
1009.761	1295.75
1009.979	1408.75
1010.196	1364.75
1010.413	1445.75
1010.631	1455.75
1010.848	1478.75
1011.065	1463.75
1011.282	1416.75
1011.5	1358.75
1011.717	1499.75
1011.934	1436.75
1012.151	1439.75
1012.368	1438.75
1012.585	1364.75
1012.801	1407.75
1013.018	1414.75
1013.235	1379.75
1013.452	1357.75
1013.669	1373.75
1013.885	1365.75
1014.102	1417.75
1014.318	1382.75
1014.535	1328.75
1014.751	1342.75
1014.968	1344.75
1015.184	1390.75
1015.401	1306.75
1015.617	1297.75
1015.833	1256.75
1016.049	1296.75
1016.266	1302.75
1016.482	1301.75
1016.698	1236.75
1016.914	1311.75
1017.13	1236.75
1017.346	1242.75
1017.562	1303.75
1017.778	1226.75
1017.993	1224.75
1018.209	1277.75
1018.425	1234.75
1018.641	1220.75
1018.856	1180.75
1019.072	1253.75
1019.288	1277.75
1019.503	1222.75
1019.719	1135.75
1019.934	1158.75
1020.149	1250.75
1020.365	1168.75
1020.58	1134.75
1020.795	1191.75
1021.011	1144.75
1021.226	1138.75
1021.441	1153.75
1021.656	1072.75
1021.871	1007.75
1022.086	1012.75
1022.301	998.75
1022.516	1009.75
1022.731	1077.75
1022.946	981.75
1023.16	960.75
1023.375	934.75
1023.59	914.75
1023.804	893.75
1024.019	1024.75
1024.234	882.75
1024.448	937.75
1024.663	867.75
1024.877	876.75
1025.092	904.75
1025.306	919.75
1025.52	835.75
1025.734	895.75
1025.949	819.75
1026.163	809.75
1026.377	748.75
1026.591	815.75
1026.805	715.75
1027.019	731.75
1027.233	718.75
1027.447	653.75
1027.661	736.75
1027.875	712.75
1028.088	697.75
1028.302	636.75
1028.516	632.75
1028.73	634.75
1028.943	634.75
1029.157	597.75
1029.37	539.75
1029.584	-3.25
1029.797	-2.25
1030.011	-0.25
1030.224	-0.25
