Data from QEP037381__22__13-25-24-035.txt Node

Date: Fri Apr 28 13:25:24 EDT 2023
User: dcclab
Spectrometer: QEP03738
Trigger mode: 4
Integration Time (sec): 1.000000E1
Scans to average: 1
Electric dark correction enabled: true
Nonlinearity correction enabled: false
Boxcar width: 0
XAxis mode: Wavelengths
Number of Pixels in Spectrum: 1044
>>>>>Begin Spectral Data<<<<<
784.041	9.5
784.3	0.5
784.558	-4.5
784.817	0.5
785.075	68875.5
785.334	13068.5
785.592	6608.5
785.851	4682.5
786.109	3597.5
786.368	2798.5
786.626	2256.5
786.884	1908.5
787.143	1585.5
787.401	1321.5
787.659	1206.5
787.917	1043.5
788.175	952.5
788.433	846.5
788.691	766.5
788.949	716.5
789.207	711.5
789.465	596.5
789.723	602.5
789.98	543.5
790.238	573.5
790.496	542.5
790.753	509.5
791.011	576.5
791.268	507.5
791.526	482.5
791.783	506.5
792.041	503.5
792.298	402.5
792.556	470.5
792.813	462.5
793.07	435.5
793.327	420.5
793.584	510.5
793.841	413.5
794.099	456.5
794.356	495.5
794.613	408.5
794.869	448.5
795.126	405.5
795.383	393.5
795.64	406.5
795.897	363.5
796.153	415.5
796.41	401.5
796.667	398.5
796.923	401.5
797.18	391.5
797.436	439.5
797.693	379.5
797.949	440.5
798.206	476.5
798.462	388.5
798.718	442.5
798.974	419.5
799.231	453.5
799.487	448.5
799.743	447.5
799.999	465.5
800.255	458.5
800.511	443.5
800.767	503.5
801.023	463.5
801.279	505.5
801.534	535.5
801.79	582.5
802.046	580.5
802.302	710.5
802.557	834.5
802.813	1008.5
803.068	1195.5
803.324	1689.5
803.579	2290.5
803.835	3167.5
804.09	4399.5
804.345	5599.5
804.601	6882.5
804.856	8033.5
805.111	8966.5
805.366	9611.5
805.621	10054.5
805.876	10315.5
806.131	10548.5
806.386	10716.5
806.641	10888.5
806.896	11090.5
807.151	11264.5
807.406	11377.5
807.661	11663.5
807.915	11854.5
808.17	12056.5
808.425	12152.5
808.679	12238.5
808.934	12495.5
809.188	12549.5
809.443	12777.5
809.697	12995.5
809.951	13083.5
810.206	13138.5
810.46	13177.5
810.714	13322.5
810.968	13521.5
811.223	13535.5
811.477	13643.5
811.731	13806.5
811.985	13806.5
812.239	13888.5
812.493	13995.5
812.747	14005.5
813	14059.5
813.254	14138.5
813.508	14303.5
813.762	14226.5
814.015	14286.5
814.269	14475.5
814.522	14556.5
814.776	14792.5
815.03	14968.5
815.283	15135.5
815.536	15336.5
815.79	15563.5
816.043	15789.5
816.296	16072.5
816.55	16161.5
816.803	16441.5
817.056	16585.5
817.309	16757.5
817.562	16972.5
817.815	17235.5
818.068	17179.5
818.321	17614.5
818.574	17702.5
818.827	18049.5
819.079	18299.5
819.332	18542.5
819.585	18835.5
819.838	19055.5
820.09	19110.5
820.343	19372.5
820.595	19415.5
820.848	19515.5
821.1	19619.5
821.353	19619.5
821.605	19670.5
821.857	19579.5
822.11	19410.5
822.362	19514.5
822.614	19411.5
822.866	19518.5
823.118	19367.5
823.37	19671.5
823.622	19563.5
823.874	19679.5
824.126	19812.5
824.378	19721.5
824.63	19906.5
824.882	19993.5
825.134	19795.5
825.385	19864.5
825.637	19849.5
825.888	19720.5
826.14	19547.5
826.392	19560.5
826.643	19499.5
826.895	19387.5
827.146	19247.5
827.397	19215.5
827.649	19330.5
827.9	19189.5
828.151	19334.5
828.402	19246.5
828.653	19375.5
828.905	19409.5
829.156	19432.5
829.407	19410.5
829.658	19288.5
829.909	19306.5
830.159	19185.5
830.41	19191.5
830.661	19014.5
830.912	18974.5
831.162	18920.5
831.413	18899.5
831.664	18788.5
831.914	18823.5
832.165	18838.5
832.415	18819.5
832.666	18857.5
832.916	18838.5
833.167	18798.5
833.417	18687.5
833.667	18687.5
833.917	18548.5
834.168	18615.5
834.418	18565.5
834.668	18410.5
834.918	18383.5
835.168	18310.5
835.418	18097.5
835.668	18268.5
835.918	18073.5
836.167	18106.5
836.417	18158.5
836.667	18079.5
836.917	17840.5
837.166	17807.5
837.416	17897.5
837.666	17859.5
837.915	17805.5
838.165	17669.5
838.414	17612.5
838.663	17477.5
838.913	17552.5
839.162	17534.5
839.411	17525.5
839.661	17408.5
839.91	17361.5
840.159	17414.5
840.408	17437.5
840.657	17428.5
840.906	17359.5
841.155	17323.5
841.404	17304.5
841.653	17275.5
841.902	17371.5
842.15	17304.5
842.399	17233.5
842.648	17235.5
842.897	17110.5
843.145	16966.5
843.394	16959.5
843.642	16837.5
843.891	16861.5
844.139	16727.5
844.388	16648.5
844.636	16478.5
844.884	16556.5
845.133	16500.5
845.381	16490.5
845.629	16393.5
845.877	16397.5
846.125	16372.5
846.373	16343.5
846.621	16244.5
846.869	16295.5
847.117	16207.5
847.365	16056.5
847.613	16059.5
847.861	15969.5
848.108	15983.5
848.356	15938.5
848.604	15854.5
848.851	15991.5
849.099	15954.5
849.346	15974.5
849.594	16066.5
849.841	16100.5
850.089	16141.5
850.336	16064.5
850.583	16094.5
850.831	15978.5
851.078	15983.5
851.325	15811.5
851.572	15876.5
851.819	15638.5
852.066	15331.5
852.313	15249.5
852.56	15057.5
852.807	15010.5
853.054	15001.5
853.301	15015.5
853.548	14918.5
853.794	15086.5
854.041	15106.5
854.288	15159.5
854.534	15298.5
854.781	15225.5
855.028	15041.5
855.274	15065.5
855.52	14954.5
855.767	14892.5
856.013	14865.5
856.26	15096.5
856.506	14702.5
856.752	14743.5
856.998	14693.5
857.244	14728.5
857.49	14769.5
857.736	14831.5
857.982	14769.5
858.228	14747.5
858.474	14611.5
858.72	14643.5
858.966	14450.5
859.212	14338.5
859.458	14138.5
859.703	14012.5
859.949	13953.5
860.195	13810.5
860.44	13763.5
860.686	13659.5
860.931	13663.5
861.177	13475.5
861.422	13546.5
861.667	13350.5
861.913	13512.5
862.158	13568.5
862.403	13553.5
862.648	13660.5
862.893	13658.5
863.138	13580.5
863.384	13574.5
863.629	13598.5
863.873	13522.5
864.118	13397.5
864.363	13271.5
864.608	13252.5
864.853	13288.5
865.098	13098.5
865.342	13103.5
865.587	12977.5
865.832	13098.5
866.076	13015.5
866.321	12893.5
866.565	13011.5
866.81	12801.5
867.054	12843.5
867.298	12844.5
867.543	12770.5
867.787	12849.5
868.031	12756.5
868.275	12676.5
868.519	12737.5
868.764	12714.5
869.008	12629.5
869.252	12542.5
869.496	12551.5
869.739	12566.5
869.983	12517.5
870.227	12587.5
870.471	12495.5
870.715	12475.5
870.958	12477.5
871.202	12510.5
871.446	12548.5
871.689	12468.5
871.933	12559.5
872.176	12513.5
872.42	12449.5
872.663	12415.5
872.906	12351.5
873.15	12272.5
873.393	12220.5
873.636	12197.5
873.879	12037.5
874.122	11998.5
874.366	11776.5
874.609	11726.5
874.852	11664.5
875.095	11649.5
875.337	11590.5
875.58	11443.5
875.823	11496.5
876.066	11512.5
876.309	11505.5
876.551	11357.5
876.794	11308.5
877.037	11352.5
877.279	11250.5
877.522	11296.5
877.764	11274.5
878.007	11252.5
878.249	11350.5
878.491	11210.5
878.734	11268.5
878.976	11219.5
879.218	11113.5
879.46	11067.5
879.702	11000.5
879.945	10916.5
880.187	10821.5
880.429	10776.5
880.671	10701.5
880.912	10695.5
881.154	10636.5
881.396	10567.5
881.638	10472.5
881.88	10569.5
882.121	10566.5
882.363	10483.5
882.605	10526.5
882.846	10484.5
883.088	10418.5
883.329	10345.5
883.571	10344.5
883.812	10393.5
884.053	10364.5
884.295	10484.5
884.536	10658.5
884.777	10556.5
885.018	10505.5
885.259	10416.5
885.5	10400.5
885.742	10538.5
885.982	10390.5
886.223	10295.5
886.464	10248.5
886.705	10118.5
886.946	10146.5
887.187	9957.5
887.428	9940.5
887.668	9798.5
887.909	9729.5
888.15	9598.5
888.39	9643.5
888.631	9585.5
888.871	9522.5
889.111	9398.5
889.352	9354.5
889.592	9289.5
889.833	9209.5
890.073	9141.5
890.313	9150.5
890.553	8997.5
890.793	8999.5
891.033	8922.5
891.273	8849.5
891.513	8912.5
891.753	8921.5
891.993	8805.5
892.233	8948.5
892.473	8961.5
892.713	8874.5
892.952	8833.5
893.192	8838.5
893.432	8852.5
893.671	8853.5
893.911	8721.5
894.15	8782.5
894.39	8582.5
894.629	8569.5
894.869	8632.5
895.108	8536.5
895.347	8448.5
895.587	8441.5
895.826	8431.5
896.065	8376.5
896.304	8366.5
896.543	8380.5
896.782	8301.5
897.021	8279.5
897.26	8302.5
897.499	8298.5
897.738	8240.5
897.977	8186.5
898.216	8106.5
898.454	8013.5
898.693	7984.5
898.932	7995.5
899.17	7931.5
899.409	7847.5
899.647	7904.5
899.886	7871.5
900.124	7929.5
900.363	7870.5
900.601	7851.5
900.839	7874.5
901.078	7869.5
901.316	7935.5
901.554	7892.5
901.792	7948.5
902.03	7856.5
902.268	7834.5
902.506	7857.5
902.744	7778.5
902.982	7793.5
903.22	7648.5
903.458	7570.5
903.695	7539.5
903.933	7435.5
904.171	7269.5
904.409	7196.5
904.646	7198.5
904.884	6976.5
905.121	7054.5
905.359	6964.5
905.596	6855.5
905.833	6823.5
906.071	6804.5
906.308	6824.5
906.545	6787.5
906.783	6691.5
907.02	6772.5
907.257	6688.5
907.494	6712.5
907.731	6689.5
907.968	6639.5
908.205	6552.5
908.442	6609.5
908.679	6579.5
908.915	6524.5
909.152	6490.5
909.389	6304.5
909.626	6339.5
909.862	6262.5
910.099	6267.5
910.335	6257.5
910.572	6166.5
910.808	6213.5
911.045	6175.5
911.281	6127.5
911.518	6178.5
911.754	6065.5
911.99	6059.5
912.226	6006.5
912.463	5960.5
912.699	5964.5
912.935	5838.5
913.171	5829.5
913.407	5776.5
913.643	5777.5
913.879	5748.5
914.114	5644.5
914.35	5604.5
914.586	5522.5
914.822	5453.5
915.057	5513.5
915.293	5401.5
915.529	5348.5
915.764	5425.5
916	5416.5
916.235	5304.5
916.471	5369.5
916.706	5300.5
916.941	5321.5
917.177	5296.5
917.412	5378.5
917.647	5349.5
917.882	5280.5
918.117	5292.5
918.352	5253.5
918.588	5298.5
918.823	5238.5
919.057	5155.5
919.292	5069.5
919.527	5098.5
919.762	4929.5
919.997	5003.5
920.232	4858.5
920.466	4908.5
920.701	4789.5
920.935	4765.5
921.17	4728.5
921.405	4765.5
921.639	4778.5
921.873	4660.5
922.108	4718.5
922.342	4700.5
922.576	4612.5
922.811	4634.5
923.045	4700.5
923.279	4682.5
923.513	4549.5
923.747	4612.5
923.981	4578.5
924.215	4513.5
924.449	4449.5
924.683	4389.5
924.917	4407.5
925.151	4423.5
925.385	4419.5
925.618	4367.5
925.852	4381.5
926.086	4355.5
926.319	4328.5
926.553	4365.5
926.786	4348.5
927.02	4304.5
927.253	4388.5
927.486	4336.5
927.72	4300.5
927.953	4312.5
928.186	4257.5
928.42	4284.5
928.653	4242.5
928.886	4201.5
929.119	4240.5
929.352	4182.5
929.585	4193.5
929.818	4119.5
930.051	4099.5
930.284	4094.5
930.516	4020.5
930.749	3970.5
930.982	4001.5
931.215	3960.5
931.447	3875.5
931.68	3922.5
931.912	3914.5
932.145	3910.5
932.377	3896.5
932.61	4024.5
932.842	3857.5
933.074	3952.5
933.307	3864.5
933.539	3999.5
933.771	3949.5
934.003	3865.5
934.236	4009.5
934.468	3954.5
934.7	3868.5
934.932	3902.5
935.164	3833.5
935.395	3824.5
935.627	3805.5
935.859	3815.5
936.091	3732.5
936.323	3797.5
936.554	3820.5
936.786	3758.5
937.017	3710.5
937.249	3700.5
937.481	3659.5
937.712	3744.5
937.943	3693.5
938.175	3635.5
938.406	3667.5
938.637	3743.5
938.869	3659.5
939.1	3730.5
939.331	3677.5
939.562	3702.5
939.793	3643.5
940.024	3621.5
940.255	3696.5
940.486	3623.5
940.717	3575.5
940.948	3545.5
941.179	3482.5
941.409	3530.5
941.64	3550.5
941.871	3532.5
942.102	3529.5
942.332	3526.5
942.563	3527.5
942.793	3510.5
943.024	3464.5
943.254	3468.5
943.484	3552.5
943.715	3553.5
943.945	3543.5
944.175	3442.5
944.405	3441.5
944.636	3419.5
944.866	3426.5
945.096	3491.5
945.326	3390.5
945.556	3449.5
945.786	3461.5
946.016	3385.5
946.245	3318.5
946.475	3338.5
946.705	3316.5
946.935	3284.5
947.164	3314.5
947.394	3244.5
947.624	3263.5
947.853	3300.5
948.083	3262.5
948.312	3179.5
948.542	3170.5
948.771	3149.5
949	3180.5
949.23	3169.5
949.459	3160.5
949.688	3248.5
949.917	3197.5
950.146	3176.5
950.375	3216.5
950.604	3121.5
950.833	3224.5
951.062	3201.5
951.291	3184.5
951.52	3118.5
951.749	3089.5
951.978	3088.5
952.206	3085.5
952.435	3085.5
952.664	3133.5
952.892	3109.5
953.121	3112.5
953.349	3091.5
953.578	3121.5
953.806	3013.5
954.035	2988.5
954.263	2989.5
954.491	2957.5
954.719	3004.5
954.948	2931.5
955.176	2917.5
955.404	2914.5
955.632	2952.5
955.86	2933.5
956.088	2935.5
956.316	2923.5
956.544	2894.5
956.772	2854.5
956.999	2858.5
957.227	2927.5
957.455	2776.5
957.683	2848.5
957.91	2779.5
958.138	2770.5
958.365	2773.5
958.593	2777.5
958.82	2670.5
959.048	2758.5
959.275	2741.5
959.502	2710.5
959.73	2748.5
959.957	2737.5
960.184	2785.5
960.411	2706.5
960.638	2759.5
960.865	2734.5
961.092	2702.5
961.319	2654.5
961.546	2727.5
961.773	2700.5
962	2692.5
962.227	2748.5
962.454	2658.5
962.68	2641.5
962.907	2653.5
963.134	2640.5
963.36	2636.5
963.587	2648.5
963.813	2580.5
964.04	2632.5
964.266	2531.5
964.493	2599.5
964.719	2582.5
964.945	2563.5
965.171	2464.5
965.398	2522.5
965.624	2523.5
965.85	2473.5
966.076	2445.5
966.302	2509.5
966.528	2452.5
966.754	2470.5
966.98	2467.5
967.206	2441.5
967.431	2390.5
967.657	2487.5
967.883	2423.5
968.109	2460.5
968.334	2382.5
968.56	2384.5
968.785	2382.5
969.011	2368.5
969.236	2422.5
969.462	2341.5
969.687	2346.5
969.912	2386.5
970.138	2386.5
970.363	2347.5
970.588	2371.5
970.813	2339.5
971.038	2331.5
971.263	2346.5
971.488	2345.5
971.713	2345.5
971.938	2332.5
972.163	2206.5
972.388	2285.5
972.613	2252.5
972.838	2286.5
973.062	2236.5
973.287	2248.5
973.512	2183.5
973.736	2197.5
973.961	2193.5
974.185	2153.5
974.41	2189.5
974.634	2062.5
974.858	2121.5
975.083	2185.5
975.307	2139.5
975.531	2083.5
975.755	2043.5
975.98	2053.5
976.204	2023.5
976.428	2002.5
976.652	2022.5
976.876	2046.5
977.1	2034.5
977.324	1981.5
977.547	2050.5
977.771	2032.5
977.995	2016.5
978.219	1966.5
978.442	2074.5
978.666	1994.5
978.89	1977.5
979.113	1988.5
979.337	1996.5
979.56	1969.5
979.783	2054.5
980.007	1903.5
980.23	1956.5
980.453	1922.5
980.677	1980.5
980.9	1939.5
981.123	1835.5
981.346	1926.5
981.569	1927.5
981.792	1944.5
982.015	1899.5
982.238	1869.5
982.461	1882.5
982.684	1833.5
982.907	1816.5
983.129	1796.5
983.352	1860.5
983.575	1836.5
983.797	1849.5
984.02	1769.5
984.242	1765.5
984.465	1817.5
984.687	1810.5
984.91	1860.5
985.132	1817.5
985.354	1820.5
985.577	1787.5
985.799	1782.5
986.021	1710.5
986.243	1766.5
986.465	1748.5
986.687	1797.5
986.909	1834.5
987.131	1751.5
987.353	1699.5
987.575	1760.5
987.797	1713.5
988.019	1670.5
988.241	1717.5
988.462	1694.5
988.684	1761.5
988.906	1750.5
989.127	1821.5
989.349	1654.5
989.57	1678.5
989.792	1732.5
990.013	1755.5
990.234	1735.5
990.456	1733.5
990.677	1730.5
990.898	1647.5
991.119	1644.5
991.341	1702.5
991.562	1649.5
991.783	1659.5
992.004	1622.5
992.225	1565.5
992.446	1649.5
992.667	1553.5
992.887	1624.5
993.108	1530.5
993.329	1655.5
993.55	1614.5
993.77	1579.5
993.991	1548.5
994.212	1580.5
994.432	1554.5
994.653	1589.5
994.873	1575.5
995.093	1470.5
995.314	1499.5
995.534	1552.5
995.754	1555.5
995.975	1601.5
996.195	1488.5
996.415	1549.5
996.635	1507.5
996.855	1528.5
997.075	1489.5
997.295	1499.5
997.515	1476.5
997.735	1505.5
997.955	1485.5
998.174	1471.5
998.394	1459.5
998.614	1502.5
998.834	1481.5
999.053	1531.5
999.273	1491.5
999.492	1564.5
999.712	1483.5
999.931	1472.5
1000.151	1501.5
1000.37	1481.5
1000.589	1534.5
1000.809	1442.5
1001.028	1564.5
1001.247	1468.5
1001.466	1366.5
1001.685	1526.5
1001.904	1467.5
1002.123	1470.5
1002.342	1474.5
1002.561	1443.5
1002.78	1442.5
1002.999	1501.5
1003.218	1439.5
1003.436	1404.5
1003.655	1448.5
1003.874	1424.5
1004.092	1409.5
1004.311	1452.5
1004.53	1454.5
1004.748	1520.5
1004.966	1426.5
1005.185	1462.5
1005.403	1469.5
1005.622	1441.5
1005.84	1506.5
1006.058	1411.5
1006.276	1423.5
1006.494	1791.5
1006.712	1402.5
1006.931	1474.5
1007.149	1394.5
1007.367	1398.5
1007.584	1440.5
1007.802	1464.5
1008.02	1412.5
1008.238	1506.5
1008.456	1476.5
1008.673	1328.5
1008.891	1457.5
1009.109	1406.5
1009.326	1410.5
1009.544	1506.5
1009.761	1375.5
1009.979	1481.5
1010.196	1453.5
1010.413	1536.5
1010.631	1541.5
1010.848	1564.5
1011.065	1570.5
1011.282	1500.5
1011.5	1459.5
1011.717	1581.5
1011.934	1514.5
1012.151	1511.5
1012.368	1520.5
1012.585	1446.5
1012.801	1537.5
1013.018	1469.5
1013.235	1439.5
1013.452	1462.5
1013.669	1460.5
1013.885	1444.5
1014.102	1465.5
1014.318	1451.5
1014.535	1400.5
1014.751	1416.5
1014.968	1444.5
1015.184	1465.5
1015.401	1374.5
1015.617	1408.5
1015.833	1361.5
1016.049	1371.5
1016.266	1346.5
1016.482	1363.5
1016.698	1288.5
1016.914	1375.5
1017.13	1308.5
1017.346	1308.5
1017.562	1372.5
1017.778	1330.5
1017.993	1306.5
1018.209	1353.5
1018.425	1332.5
1018.641	1274.5
1018.856	1271.5
1019.072	1285.5
1019.288	1329.5
1019.503	1276.5
1019.719	1216.5
1019.934	1223.5
1020.149	1290.5
1020.365	1246.5
1020.58	1198.5
1020.795	1254.5
1021.011	1196.5
1021.226	1205.5
1021.441	1215.5
1021.656	1135.5
1021.871	1073.5
1022.086	1087.5
1022.301	1093.5
1022.516	1071.5
1022.731	1159.5
1022.946	1026.5
1023.16	1037.5
1023.375	1014.5
1023.59	995.5
1023.804	978.5
1024.019	1071.5
1024.234	923.5
1024.448	988.5
1024.663	914.5
1024.877	913.5
1025.092	939.5
1025.306	971.5
1025.52	860.5
1025.734	954.5
1025.949	887.5
1026.163	849.5
1026.377	780.5
1026.591	840.5
1026.805	773.5
1027.019	784.5
1027.233	750.5
1027.447	708.5
1027.661	793.5
1027.875	743.5
1028.088	751.5
1028.302	680.5
1028.516	669.5
1028.73	687.5
1028.943	682.5
1029.157	613.5
1029.37	589.5
1029.584	-5.5
1029.797	-0.5
1030.011	-0.5
1030.224	0.5
