Data from QEP037381__251__14-36-38-755.txt Node

Date: Fri Apr 28 14:36:38 EDT 2023
User: dcclab
Spectrometer: QEP03738
Trigger mode: 4
Integration Time (sec): 1.000000E1
Scans to average: 1
Electric dark correction enabled: true
Nonlinearity correction enabled: false
Boxcar width: 0
XAxis mode: Wavelengths
Number of Pixels in Spectrum: 1044
>>>>>Begin Spectral Data<<<<<
784.041	11.12
784.3	1.12
784.558	-7.88
784.817	-2.88
785.075	73717.12
785.334	14587.12
785.592	7529.12
785.851	5260.12
786.109	4009.12
786.368	3149.12
786.626	2560.12
786.884	2117.12
787.143	1825.12
787.401	1498.12
787.659	1331.12
787.917	1155.12
788.175	1063.12
788.433	933.12
788.691	835.12
788.949	780.12
789.207	732.12
789.465	619.12
789.723	616.12
789.98	565.12
790.238	611.12
790.496	561.12
790.753	548.12
791.011	597.12
791.268	513.12
791.526	493.12
791.783	532.12
792.041	499.12
792.298	428.12
792.556	482.12
792.813	465.12
793.07	450.12
793.327	434.12
793.584	520.12
793.841	434.12
794.099	464.12
794.356	520.12
794.613	412.12
794.869	450.12
795.126	406.12
795.383	394.12
795.64	424.12
795.897	376.12
796.153	414.12
796.41	404.12
796.667	385.12
796.923	405.12
797.18	399.12
797.436	437.12
797.693	392.12
797.949	444.12
798.206	469.12
798.462	392.12
798.718	449.12
798.974	420.12
799.231	465.12
799.487	444.12
799.743	455.12
799.999	480.12
800.255	479.12
800.511	466.12
800.767	493.12
801.023	496.12
801.279	517.12
801.534	548.12
801.79	582.12
802.046	624.12
802.302	760.12
802.557	855.12
802.813	1077.12
803.068	1351.12
803.324	1864.12
803.579	2555.12
803.835	3551.12
804.09	4819.12
804.345	6187.12
804.601	7533.12
804.856	8800.12
805.111	9876.12
805.366	10446.12
805.621	10842.12
805.876	11153.12
806.131	11353.12
806.386	11533.12
806.641	11640.12
806.896	11836.12
807.151	12042.12
807.406	12149.12
807.661	12372.12
807.915	12541.12
808.17	12732.12
808.425	12913.12
808.679	12864.12
808.934	13094.12
809.188	13182.12
809.443	13345.12
809.697	13478.12
809.951	13524.12
810.206	13610.12
810.46	13741.12
810.714	13837.12
810.968	13890.12
811.223	13960.12
811.477	14198.12
811.731	14184.12
811.985	14266.12
812.239	14305.12
812.493	14292.12
812.747	14488.12
813	14401.12
813.254	14520.12
813.508	14568.12
813.762	14541.12
814.015	14676.12
814.269	14715.12
814.522	14831.12
814.776	15026.12
815.03	15052.12
815.283	15315.12
815.536	15599.12
815.79	15690.12
816.043	15864.12
816.296	16122.12
816.55	16246.12
816.803	16416.12
817.056	16659.12
817.309	16736.12
817.562	16789.12
817.815	17016.12
818.068	17166.12
818.321	17319.12
818.574	17457.12
818.827	17784.12
819.079	18037.12
819.332	18408.12
819.585	18577.12
819.838	18836.12
820.09	18862.12
820.343	19021.12
820.595	19044.12
820.848	19176.12
821.1	19222.12
821.353	19224.12
821.605	19187.12
821.857	19304.12
822.11	19046.12
822.362	19127.12
822.614	19021.12
822.866	19016.12
823.118	19105.12
823.37	19248.12
823.622	19164.12
823.874	19245.12
824.126	19398.12
824.378	19387.12
824.63	19459.12
824.882	19509.12
825.134	19361.12
825.385	19413.12
825.637	19312.12
825.888	19298.12
826.14	19156.12
826.392	19040.12
826.643	19022.12
826.895	18901.12
827.146	18824.12
827.397	18829.12
827.649	18877.12
827.9	18785.12
828.151	18793.12
828.402	18760.12
828.653	18796.12
828.905	18852.12
829.156	18963.12
829.407	18891.12
829.658	18872.12
829.909	18943.12
830.159	18818.12
830.41	18698.12
830.661	18664.12
830.912	18520.12
831.162	18453.12
831.413	18476.12
831.664	18477.12
831.914	18384.12
832.165	18368.12
832.415	18454.12
832.666	18384.12
832.916	18445.12
833.167	18368.12
833.417	18337.12
833.667	18205.12
833.917	18165.12
834.168	18208.12
834.418	18178.12
834.668	18031.12
834.918	17912.12
835.168	17934.12
835.418	17839.12
835.668	17761.12
835.918	17814.12
836.167	17683.12
836.417	17655.12
836.667	17579.12
836.917	17590.12
837.166	17630.12
837.416	17600.12
837.666	17571.12
837.915	17422.12
838.165	17406.12
838.414	17245.12
838.663	17248.12
838.913	17305.12
839.162	17277.12
839.411	17219.12
839.661	17101.12
839.91	17048.12
840.159	16967.12
840.408	17018.12
840.657	17082.12
840.906	16999.12
841.155	17064.12
841.404	16889.12
841.653	16935.12
841.902	17020.12
842.15	16986.12
842.399	17020.12
842.648	16896.12
842.897	16903.12
843.145	16768.12
843.394	16706.12
843.642	16557.12
843.891	16511.12
844.139	16399.12
844.388	16274.12
844.636	16174.12
844.884	16280.12
845.133	16296.12
845.381	16217.12
845.629	16257.12
845.877	16083.12
846.125	16132.12
846.373	16115.12
846.621	16034.12
846.869	16016.12
847.117	15915.12
847.365	15757.12
847.613	15746.12
847.861	15802.12
848.108	15758.12
848.356	15654.12
848.604	15583.12
848.851	15694.12
849.099	15690.12
849.346	15648.12
849.594	15771.12
849.841	15801.12
850.089	15806.12
850.336	15807.12
850.583	15745.12
850.831	15701.12
851.078	15630.12
851.325	15497.12
851.572	15564.12
851.819	15366.12
852.066	15123.12
852.313	14977.12
852.56	14842.12
852.807	14735.12
853.054	14698.12
853.301	14716.12
853.548	14747.12
853.794	14882.12
854.041	14840.12
854.288	14928.12
854.534	15141.12
854.781	14906.12
855.028	14877.12
855.274	14896.12
855.52	14777.12
855.767	14757.12
856.013	14762.12
856.26	14984.12
856.506	14573.12
856.752	14552.12
856.998	14531.12
857.244	14511.12
857.49	14621.12
857.736	14627.12
857.982	14641.12
858.228	14558.12
858.474	14502.12
858.72	14376.12
858.966	14200.12
859.212	14218.12
859.458	13971.12
859.703	13857.12
859.949	13676.12
860.195	13656.12
860.44	13598.12
860.686	13517.12
860.931	13590.12
861.177	13362.12
861.422	13373.12
861.667	13306.12
861.913	13328.12
862.158	13349.12
862.403	13402.12
862.648	13489.12
862.893	13525.12
863.138	13455.12
863.384	13309.12
863.629	13338.12
863.873	13287.12
864.118	13188.12
864.363	13183.12
864.608	13087.12
864.853	12967.12
865.098	13006.12
865.342	12948.12
865.587	12842.12
865.832	12803.12
866.076	12798.12
866.321	12692.12
866.565	12659.12
866.81	12660.12
867.054	12628.12
867.298	12576.12
867.543	12525.12
867.787	12645.12
868.031	12547.12
868.275	12475.12
868.519	12567.12
868.764	12441.12
869.008	12506.12
869.252	12411.12
869.496	12408.12
869.739	12338.12
869.983	12368.12
870.227	12295.12
870.471	12281.12
870.715	12343.12
870.958	12388.12
871.202	12330.12
871.446	12409.12
871.689	12362.12
871.933	12306.12
872.176	12361.12
872.42	12333.12
872.663	12325.12
872.906	12221.12
873.15	12196.12
873.393	12030.12
873.636	12075.12
873.879	12025.12
874.122	11865.12
874.366	11710.12
874.609	11609.12
874.852	11559.12
875.095	11506.12
875.337	11465.12
875.58	11383.12
875.823	11387.12
876.066	11354.12
876.309	11398.12
876.551	11274.12
876.794	11158.12
877.037	11197.12
877.279	11164.12
877.522	11132.12
877.764	11148.12
878.007	11131.12
878.249	11121.12
878.491	11136.12
878.734	11026.12
878.976	11058.12
879.218	10956.12
879.46	10985.12
879.702	10901.12
879.945	10734.12
880.187	10646.12
880.429	10621.12
880.671	10621.12
880.912	10517.12
881.154	10389.12
881.396	10377.12
881.638	10466.12
881.88	10403.12
882.121	10335.12
882.363	10300.12
882.605	10357.12
882.846	10315.12
883.088	10302.12
883.329	10241.12
883.571	10328.12
883.812	10307.12
884.053	10425.12
884.295	10576.12
884.536	10717.12
884.777	10579.12
885.018	10531.12
885.259	10437.12
885.5	10352.12
885.742	10591.12
885.982	10336.12
886.223	10307.12
886.464	10160.12
886.705	10113.12
886.946	10041.12
887.187	9892.12
887.428	9892.12
887.668	9692.12
887.909	9598.12
888.15	9483.12
888.39	9485.12
888.631	9504.12
888.871	9414.12
889.111	9320.12
889.352	9280.12
889.592	9167.12
889.833	9038.12
890.073	9037.12
890.313	9043.12
890.553	8949.12
890.793	8849.12
891.033	8811.12
891.273	8819.12
891.513	8807.12
891.753	8844.12
891.993	8732.12
892.233	8766.12
892.473	8863.12
892.713	8741.12
892.952	8754.12
893.192	8763.12
893.432	8722.12
893.671	8784.12
893.911	8666.12
894.15	8612.12
894.39	8513.12
894.629	8466.12
894.869	8391.12
895.108	8384.12
895.347	8283.12
895.587	8296.12
895.826	8193.12
896.065	8207.12
896.304	8243.12
896.543	8287.12
896.782	8145.12
897.021	8220.12
897.26	8131.12
897.499	8190.12
897.738	8136.12
897.977	8051.12
898.216	7946.12
898.454	7853.12
898.693	7861.12
898.932	7925.12
899.17	7734.12
899.409	7748.12
899.647	7750.12
899.886	7700.12
900.124	7759.12
900.363	7678.12
900.601	7692.12
900.839	7701.12
901.078	7738.12
901.316	7767.12
901.554	7801.12
901.792	7806.12
902.03	7605.12
902.268	7740.12
902.506	7723.12
902.744	7659.12
902.982	7645.12
903.22	7546.12
903.458	7432.12
903.695	7396.12
903.933	7343.12
904.171	7226.12
904.409	7150.12
904.646	7057.12
904.884	6970.12
905.121	6938.12
905.359	6866.12
905.596	6788.12
905.833	6691.12
906.071	6713.12
906.308	6764.12
906.545	6636.12
906.783	6591.12
907.02	6696.12
907.257	6604.12
907.494	6594.12
907.731	6596.12
907.968	6598.12
908.205	6437.12
908.442	6508.12
908.679	6478.12
908.915	6416.12
909.152	6348.12
909.389	6225.12
909.626	6257.12
909.862	6197.12
910.099	6243.12
910.335	6225.12
910.572	6108.12
910.808	6137.12
911.045	6092.12
911.281	6056.12
911.518	6091.12
911.754	5953.12
911.99	6029.12
912.226	5987.12
912.463	5884.12
912.699	5871.12
912.935	5788.12
913.171	5726.12
913.407	5682.12
913.643	5763.12
913.879	5687.12
914.114	5594.12
914.35	5507.12
914.586	5471.12
914.822	5394.12
915.057	5416.12
915.293	5332.12
915.529	5323.12
915.764	5379.12
916	5331.12
916.235	5359.12
916.471	5330.12
916.706	5241.12
916.941	5261.12
917.177	5243.12
917.412	5294.12
917.647	5301.12
917.882	5243.12
918.117	5259.12
918.352	5245.12
918.588	5206.12
918.823	5122.12
919.057	5059.12
919.292	4952.12
919.527	5046.12
919.762	4948.12
919.997	4955.12
920.232	4866.12
920.466	4883.12
920.701	4728.12
920.935	4759.12
921.17	4703.12
921.405	4637.12
921.639	4750.12
921.873	4651.12
922.108	4662.12
922.342	4652.12
922.576	4626.12
922.811	4611.12
923.045	4595.12
923.279	4620.12
923.513	4461.12
923.747	4548.12
923.981	4460.12
924.215	4405.12
924.449	4419.12
924.683	4357.12
924.917	4376.12
925.151	4355.12
925.385	4417.12
925.618	4338.12
925.852	4366.12
926.086	4209.12
926.319	4321.12
926.553	4273.12
926.786	4314.12
927.02	4271.12
927.253	4314.12
927.486	4293.12
927.72	4208.12
927.953	4247.12
928.186	4220.12
928.42	4228.12
928.653	4126.12
928.886	4139.12
929.119	4156.12
929.352	4141.12
929.585	4131.12
929.818	4043.12
930.051	4072.12
930.284	4021.12
930.516	3924.12
930.749	3910.12
930.982	4002.12
931.215	3920.12
931.447	3872.12
931.68	3867.12
931.912	3837.12
932.145	3803.12
932.377	3929.12
932.61	3990.12
932.842	3814.12
933.074	3862.12
933.307	3841.12
933.539	3935.12
933.771	3884.12
934.003	3843.12
934.236	3906.12
934.468	3863.12
934.7	3786.12
934.932	3846.12
935.164	3781.12
935.395	3763.12
935.627	3808.12
935.859	3762.12
936.091	3714.12
936.323	3711.12
936.554	3775.12
936.786	3701.12
937.017	3646.12
937.249	3647.12
937.481	3585.12
937.712	3650.12
937.943	3646.12
938.175	3631.12
938.406	3576.12
938.637	3685.12
938.869	3573.12
939.1	3646.12
939.331	3562.12
939.562	3571.12
939.793	3580.12
940.024	3580.12
940.255	3606.12
940.486	3553.12
940.717	3467.12
940.948	3508.12
941.179	3463.12
941.409	3527.12
941.64	3425.12
941.871	3472.12
942.102	3441.12
942.332	3449.12
942.563	3489.12
942.793	3496.12
943.024	3418.12
943.254	3454.12
943.484	3464.12
943.715	3496.12
943.945	3459.12
944.175	3410.12
944.405	3384.12
944.636	3384.12
944.866	3378.12
945.096	3410.12
945.326	3333.12
945.556	3404.12
945.786	3413.12
946.016	3331.12
946.245	3257.12
946.475	3299.12
946.705	3223.12
946.935	3272.12
947.164	3265.12
947.394	3168.12
947.624	3184.12
947.853	3226.12
948.083	3191.12
948.312	3180.12
948.542	3114.12
948.771	3070.12
949	3125.12
949.23	3143.12
949.459	3127.12
949.688	3235.12
949.917	3138.12
950.146	3123.12
950.375	3186.12
950.604	3028.12
950.833	3195.12
951.062	3149.12
951.291	3090.12
951.52	3070.12
951.749	3069.12
951.978	3043.12
952.206	3010.12
952.435	3011.12
952.664	3077.12
952.892	3024.12
953.121	3034.12
953.349	3043.12
953.578	3018.12
953.806	2962.12
954.035	2949.12
954.263	2972.12
954.491	2891.12
954.719	2979.12
954.948	2884.12
955.176	2895.12
955.404	2832.12
955.632	2867.12
955.86	2849.12
956.088	2856.12
956.316	2870.12
956.544	2875.12
956.772	2818.12
956.999	2795.12
957.227	2884.12
957.455	2755.12
957.683	2773.12
957.91	2719.12
958.138	2694.12
958.365	2703.12
958.593	2713.12
958.82	2654.12
959.048	2724.12
959.275	2676.12
959.502	2647.12
959.73	2674.12
959.957	2664.12
960.184	2711.12
960.411	2639.12
960.638	2656.12
960.865	2682.12
961.092	2639.12
961.319	2568.12
961.546	2671.12
961.773	2672.12
962	2627.12
962.227	2665.12
962.454	2660.12
962.68	2583.12
962.907	2619.12
963.134	2550.12
963.36	2581.12
963.587	2587.12
963.813	2529.12
964.04	2543.12
964.266	2508.12
964.493	2537.12
964.719	2539.12
964.945	2537.12
965.171	2424.12
965.398	2499.12
965.624	2488.12
965.85	2430.12
966.076	2401.12
966.302	2459.12
966.528	2412.12
966.754	2437.12
966.98	2419.12
967.206	2419.12
967.431	2310.12
967.657	2441.12
967.883	2400.12
968.109	2412.12
968.334	2347.12
968.56	2350.12
968.785	2334.12
969.011	2286.12
969.236	2363.12
969.462	2304.12
969.687	2289.12
969.912	2346.12
970.138	2338.12
970.363	2273.12
970.588	2294.12
970.813	2253.12
971.038	2247.12
971.263	2305.12
971.488	2263.12
971.713	2297.12
971.938	2266.12
972.163	2166.12
972.388	2227.12
972.613	2169.12
972.838	2208.12
973.062	2168.12
973.287	2166.12
973.512	2124.12
973.736	2176.12
973.961	2135.12
974.185	2124.12
974.41	2143.12
974.634	2046.12
974.858	2080.12
975.083	2115.12
975.307	2100.12
975.531	2083.12
975.755	2024.12
975.98	2035.12
976.204	1966.12
976.428	1962.12
976.652	1982.12
976.876	1957.12
977.1	1994.12
977.324	1937.12
977.547	1979.12
977.771	1998.12
977.995	1965.12
978.219	1913.12
978.442	2018.12
978.666	1949.12
978.89	1944.12
979.113	1968.12
979.337	1950.12
979.56	1876.12
979.783	1963.12
980.007	1900.12
980.23	1917.12
980.453	1863.12
980.677	1914.12
980.9	1924.12
981.123	1809.12
981.346	1910.12
981.569	1879.12
981.792	1871.12
982.015	1873.12
982.238	1816.12
982.461	1830.12
982.684	1830.12
982.907	1741.12
983.129	1767.12
983.352	1808.12
983.575	1799.12
983.797	1830.12
984.02	1728.12
984.242	1733.12
984.465	1776.12
984.687	1766.12
984.91	1800.12
985.132	1760.12
985.354	1784.12
985.577	1748.12
985.799	1728.12
986.021	1663.12
986.243	1695.12
986.465	1727.12
986.687	1746.12
986.909	1778.12
987.131	1714.12
987.353	1683.12
987.575	1712.12
987.797	1682.12
988.019	1634.12
988.241	1719.12
988.462	1649.12
988.684	1709.12
988.906	1700.12
989.127	1743.12
989.349	1605.12
989.57	1661.12
989.792	1707.12
990.013	1697.12
990.234	1694.12
990.456	1706.12
990.677	1687.12
990.898	1628.12
991.119	1614.12
991.341	1660.12
991.562	1591.12
991.783	1684.12
992.004	1531.12
992.225	1542.12
992.446	1601.12
992.667	1535.12
992.887	1588.12
993.108	1508.12
993.329	1637.12
993.55	1579.12
993.77	1507.12
993.991	1547.12
994.212	1554.12
994.432	1549.12
994.653	1567.12
994.873	1538.12
995.093	1430.12
995.314	1479.12
995.534	1575.12
995.754	1563.12
995.975	1569.12
996.195	1447.12
996.415	1518.12
996.635	1486.12
996.855	1490.12
997.075	1461.12
997.295	1490.12
997.515	1455.12
997.735	1501.12
997.955	1474.12
998.174	1457.12
998.394	1456.12
998.614	1482.12
998.834	1439.12
999.053	1517.12
999.273	1453.12
999.492	1545.12
999.712	1452.12
999.931	1410.12
1000.151	1491.12
1000.37	1448.12
1000.589	1502.12
1000.809	1436.12
1001.028	1544.12
1001.247	1492.12
1001.466	1339.12
1001.685	1528.12
1001.904	1477.12
1002.123	1411.12
1002.342	1426.12
1002.561	1371.12
1002.78	1428.12
1002.999	1485.12
1003.218	1416.12
1003.436	1379.12
1003.655	1455.12
1003.874	1369.12
1004.092	1420.12
1004.311	1459.12
1004.53	1415.12
1004.748	1487.12
1004.966	1381.12
1005.185	1432.12
1005.403	1448.12
1005.622	1399.12
1005.84	1491.12
1006.058	1396.12
1006.276	1417.12
1006.494	1775.12
1006.712	1415.12
1006.931	1480.12
1007.149	1362.12
1007.367	1376.12
1007.584	1402.12
1007.802	1450.12
1008.02	1376.12
1008.238	1509.12
1008.456	1462.12
1008.673	1312.12
1008.891	1424.12
1009.109	1377.12
1009.326	1440.12
1009.544	1541.12
1009.761	1419.12
1009.979	1511.12
1010.196	1519.12
1010.413	1607.12
1010.631	1654.12
1010.848	1693.12
1011.065	1654.12
1011.282	1601.12
1011.5	1526.12
1011.717	1629.12
1011.934	1587.12
1012.151	1622.12
1012.368	1596.12
1012.585	1542.12
1012.801	1591.12
1013.018	1550.12
1013.235	1546.12
1013.452	1523.12
1013.669	1547.12
1013.885	1515.12
1014.102	1551.12
1014.318	1510.12
1014.535	1471.12
1014.751	1495.12
1014.968	1479.12
1015.184	1538.12
1015.401	1445.12
1015.617	1465.12
1015.833	1404.12
1016.049	1433.12
1016.266	1439.12
1016.482	1409.12
1016.698	1322.12
1016.914	1381.12
1017.13	1343.12
1017.346	1354.12
1017.562	1384.12
1017.778	1338.12
1017.993	1325.12
1018.209	1378.12
1018.425	1336.12
1018.641	1298.12
1018.856	1268.12
1019.072	1298.12
1019.288	1329.12
1019.503	1305.12
1019.719	1229.12
1019.934	1241.12
1020.149	1312.12
1020.365	1241.12
1020.58	1174.12
1020.795	1243.12
1021.011	1201.12
1021.226	1172.12
1021.441	1185.12
1021.656	1135.12
1021.871	1073.12
1022.086	1057.12
1022.301	1062.12
1022.516	1044.12
1022.731	1143.12
1022.946	1026.12
1023.16	1019.12
1023.375	1011.12
1023.59	953.12
1023.804	940.12
1024.019	1034.12
1024.234	898.12
1024.448	939.12
1024.663	899.12
1024.877	916.12
1025.092	934.12
1025.306	913.12
1025.52	820.12
1025.734	908.12
1025.949	833.12
1026.163	831.12
1026.377	756.12
1026.591	819.12
1026.805	757.12
1027.019	729.12
1027.233	717.12
1027.447	676.12
1027.661	768.12
1027.875	702.12
1028.088	696.12
1028.302	658.12
1028.516	642.12
1028.73	641.12
1028.943	647.12
1029.157	595.12
1029.37	558.12
1029.584	-1.88
1029.797	2.12
1030.011	-1.88
1030.224	0.12
