Data from QEP037381__248__14-36-08-754.txt Node

Date: Fri Apr 28 14:36:08 EDT 2023
User: dcclab
Spectrometer: QEP03738
Trigger mode: 4
Integration Time (sec): 1.000000E1
Scans to average: 1
Electric dark correction enabled: true
Nonlinearity correction enabled: false
Boxcar width: 0
XAxis mode: Wavelengths
Number of Pixels in Spectrum: 1044
>>>>>Begin Spectral Data<<<<<
784.041	13.5
784.3	0.5
784.558	-1.5
784.817	-6.5
785.075	77529.5
785.334	15282.5
785.592	7932.5
785.851	5589.5
786.109	4213.5
786.368	3306.5
786.626	2667.5
786.884	2201.5
787.143	1868.5
787.401	1529.5
787.659	1388.5
787.917	1189.5
788.175	1076.5
788.433	962.5
788.691	858.5
788.949	780.5
789.207	769.5
789.465	663.5
789.723	645.5
789.98	588.5
790.238	612.5
790.496	574.5
790.753	549.5
791.011	600.5
791.268	542.5
791.526	509.5
791.783	526.5
792.041	508.5
792.298	432.5
792.556	492.5
792.813	475.5
793.07	455.5
793.327	420.5
793.584	511.5
793.841	439.5
794.099	461.5
794.356	496.5
794.613	405.5
794.869	446.5
795.126	407.5
795.383	382.5
795.64	416.5
795.897	370.5
796.153	413.5
796.41	402.5
796.667	393.5
796.923	393.5
797.18	397.5
797.436	415.5
797.693	390.5
797.949	425.5
798.206	448.5
798.462	367.5
798.718	441.5
798.974	410.5
799.231	452.5
799.487	438.5
799.743	421.5
799.999	462.5
800.255	461.5
800.511	427.5
800.767	469.5
801.023	467.5
801.279	482.5
801.534	504.5
801.79	548.5
802.046	548.5
802.302	674.5
802.557	765.5
802.813	917.5
803.068	1132.5
803.324	1553.5
803.579	2069.5
803.835	2802.5
804.09	3852.5
804.345	4834.5
804.601	5864.5
804.856	6851.5
805.111	7584.5
805.366	8090.5
805.621	8382.5
805.876	8639.5
806.131	8695.5
806.386	8833.5
806.641	8924.5
806.896	9062.5
807.151	9214.5
807.406	9347.5
807.661	9433.5
807.915	9579.5
808.17	9762.5
808.425	9810.5
808.679	9866.5
808.934	10065.5
809.188	10020.5
809.443	10230.5
809.697	10224.5
809.951	10302.5
810.206	10313.5
810.46	10406.5
810.714	10563.5
810.968	10640.5
811.223	10588.5
811.477	10698.5
811.731	10811.5
811.985	10810.5
812.239	10762.5
812.493	10915.5
812.747	10939.5
813	10972.5
813.254	10972.5
813.508	10973.5
813.762	11073.5
814.015	11093.5
814.269	11161.5
814.522	11279.5
814.776	11389.5
815.03	11481.5
815.283	11664.5
815.536	11786.5
815.79	11978.5
816.043	12075.5
816.296	12206.5
816.55	12241.5
816.803	12400.5
817.056	12554.5
817.309	12608.5
817.562	12774.5
817.815	12877.5
818.068	12976.5
818.321	13022.5
818.574	13192.5
818.827	13329.5
819.079	13500.5
819.332	13755.5
819.585	13875.5
819.838	14163.5
820.09	14045.5
820.343	14273.5
820.595	14305.5
820.848	14371.5
821.1	14407.5
821.353	14438.5
821.605	14351.5
821.857	14492.5
822.11	14277.5
822.362	14310.5
822.614	14334.5
822.866	14301.5
823.118	14275.5
823.37	14397.5
823.622	14359.5
823.874	14487.5
824.126	14545.5
824.378	14545.5
824.63	14630.5
824.882	14582.5
825.134	14559.5
825.385	14600.5
825.637	14462.5
825.888	14516.5
826.14	14425.5
826.392	14296.5
826.643	14178.5
826.895	14268.5
827.146	14174.5
827.397	14178.5
827.649	14110.5
827.9	14059.5
828.151	14059.5
828.402	14142.5
828.653	14109.5
828.905	14145.5
829.156	14240.5
829.407	14204.5
829.658	14226.5
829.909	14212.5
830.159	14122.5
830.41	13994.5
830.661	13960.5
830.912	13870.5
831.162	13858.5
831.413	13765.5
831.664	13800.5
831.914	13874.5
832.165	13898.5
832.415	13897.5
832.666	13816.5
832.916	13840.5
833.167	13789.5
833.417	13781.5
833.667	13692.5
833.917	13671.5
834.168	13650.5
834.418	13519.5
834.668	13575.5
834.918	13517.5
835.168	13424.5
835.418	13400.5
835.668	13347.5
835.918	13306.5
836.167	13281.5
836.417	13246.5
836.667	13315.5
836.917	13258.5
837.166	13194.5
837.416	13233.5
837.666	13192.5
837.915	13048.5
838.165	13010.5
838.414	13027.5
838.663	12941.5
838.913	12935.5
839.162	12840.5
839.411	12929.5
839.661	12795.5
839.91	12869.5
840.159	12812.5
840.408	12818.5
840.657	12785.5
840.906	12756.5
841.155	12804.5
841.404	12718.5
841.653	12718.5
841.902	12709.5
842.15	12791.5
842.399	12802.5
842.648	12741.5
842.897	12784.5
843.145	12616.5
843.394	12454.5
843.642	12500.5
843.891	12418.5
844.139	12386.5
844.388	12260.5
844.636	12156.5
844.884	12275.5
845.133	12232.5
845.381	12173.5
845.629	12152.5
845.877	12139.5
846.125	12079.5
846.373	12098.5
846.621	12053.5
846.869	12059.5
847.117	11987.5
847.365	11909.5
847.613	11861.5
847.861	11917.5
848.108	11817.5
848.356	11828.5
848.604	11765.5
848.851	11758.5
849.099	11777.5
849.346	11916.5
849.594	11831.5
849.841	11955.5
850.089	11908.5
850.336	11815.5
850.583	11851.5
850.831	11809.5
851.078	11739.5
851.325	11726.5
851.572	11740.5
851.819	11610.5
852.066	11330.5
852.313	11278.5
852.56	11156.5
852.807	11080.5
853.054	11071.5
853.301	11096.5
853.548	11081.5
853.794	11180.5
854.041	11234.5
854.288	11223.5
854.534	11432.5
854.781	11271.5
855.028	11242.5
855.274	11307.5
855.52	11179.5
855.767	11106.5
856.013	11116.5
856.26	11364.5
856.506	10933.5
856.752	10980.5
856.998	10874.5
857.244	10900.5
857.49	10926.5
857.736	11028.5
857.982	11004.5
858.228	10980.5
858.474	10930.5
858.72	10851.5
858.966	10706.5
859.212	10627.5
859.458	10513.5
859.703	10434.5
859.949	10319.5
860.195	10257.5
860.44	10190.5
860.686	10093.5
860.931	10096.5
861.177	10046.5
861.422	10128.5
861.667	10103.5
861.913	10082.5
862.158	10114.5
862.403	10071.5
862.648	10188.5
862.893	10139.5
863.138	10159.5
863.384	10129.5
863.629	10043.5
863.873	10007.5
864.118	10028.5
864.363	9889.5
864.608	9944.5
864.853	9868.5
865.098	9791.5
865.342	9717.5
865.587	9681.5
865.832	9687.5
866.076	9684.5
866.321	9601.5
866.565	9575.5
866.81	9507.5
867.054	9545.5
867.298	9510.5
867.543	9435.5
867.787	9530.5
868.031	9491.5
868.275	9409.5
868.519	9444.5
868.764	9393.5
869.008	9432.5
869.252	9414.5
869.496	9330.5
869.739	9291.5
869.983	9367.5
870.227	9327.5
870.471	9296.5
870.715	9312.5
870.958	9336.5
871.202	9311.5
871.446	9237.5
871.689	9285.5
871.933	9286.5
872.176	9371.5
872.42	9297.5
872.663	9250.5
872.906	9270.5
873.15	9179.5
873.393	9077.5
873.636	9151.5
873.879	8982.5
874.122	8922.5
874.366	8855.5
874.609	8825.5
874.852	8734.5
875.095	8725.5
875.337	8670.5
875.58	8527.5
875.823	8611.5
876.066	8591.5
876.309	8660.5
876.551	8551.5
876.794	8454.5
877.037	8511.5
877.279	8431.5
877.522	8414.5
877.764	8515.5
878.007	8355.5
878.249	8467.5
878.491	8376.5
878.734	8470.5
878.976	8411.5
879.218	8302.5
879.46	8288.5
879.702	8255.5
879.945	8145.5
880.187	8107.5
880.429	8045.5
880.671	7978.5
880.912	8008.5
881.154	7950.5
881.396	7803.5
881.638	7959.5
881.88	7873.5
882.121	7867.5
882.363	7863.5
882.605	7865.5
882.846	7813.5
883.088	7812.5
883.329	7735.5
883.571	7728.5
883.812	7836.5
884.053	7877.5
884.295	7986.5
884.536	8152.5
884.777	7992.5
885.018	7932.5
885.259	7926.5
885.5	7867.5
885.742	8026.5
885.982	7870.5
886.223	7770.5
886.464	7710.5
886.705	7607.5
886.946	7587.5
887.187	7465.5
887.428	7481.5
887.668	7425.5
887.909	7265.5
888.15	7197.5
888.39	7195.5
888.631	7237.5
888.871	7120.5
889.111	7087.5
889.352	7032.5
889.592	6971.5
889.833	6976.5
890.073	6936.5
890.313	6880.5
890.553	6824.5
890.793	6793.5
891.033	6717.5
891.273	6767.5
891.513	6701.5
891.753	6717.5
891.993	6631.5
892.233	6665.5
892.473	6813.5
892.713	6710.5
892.952	6670.5
893.192	6656.5
893.432	6643.5
893.671	6608.5
893.911	6573.5
894.15	6552.5
894.39	6424.5
894.629	6426.5
894.869	6464.5
895.108	6409.5
895.347	6337.5
895.587	6382.5
895.826	6247.5
896.065	6274.5
896.304	6254.5
896.543	6313.5
896.782	6207.5
897.021	6182.5
897.26	6158.5
897.499	6233.5
897.738	6189.5
897.977	6156.5
898.216	6088.5
898.454	6012.5
898.693	5978.5
898.932	5974.5
899.17	5926.5
899.409	5946.5
899.647	5888.5
899.886	5860.5
900.124	5930.5
900.363	5836.5
900.601	5929.5
900.839	5876.5
901.078	5895.5
901.316	5870.5
901.554	5892.5
901.792	5917.5
902.03	5830.5
902.268	5887.5
902.506	5942.5
902.744	5817.5
902.982	5857.5
903.22	5707.5
903.458	5639.5
903.695	5663.5
903.933	5594.5
904.171	5446.5
904.409	5408.5
904.646	5427.5
904.884	5322.5
905.121	5338.5
905.359	5228.5
905.596	5235.5
905.833	5190.5
906.071	5152.5
906.308	5178.5
906.545	5120.5
906.783	5040.5
907.02	5088.5
907.257	5066.5
907.494	5070.5
907.731	5051.5
907.968	5089.5
908.205	4949.5
908.442	4989.5
908.679	4939.5
908.915	4906.5
909.152	4919.5
909.389	4770.5
909.626	4806.5
909.862	4712.5
910.099	4779.5
910.335	4761.5
910.572	4660.5
910.808	4687.5
911.045	4700.5
911.281	4589.5
911.518	4680.5
911.754	4609.5
911.99	4581.5
912.226	4594.5
912.463	4523.5
912.699	4511.5
912.935	4466.5
913.171	4443.5
913.407	4391.5
913.643	4397.5
913.879	4355.5
914.114	4316.5
914.35	4281.5
914.586	4234.5
914.822	4165.5
915.057	4265.5
915.293	4081.5
915.529	4099.5
915.764	4167.5
916	4129.5
916.235	4142.5
916.471	4106.5
916.706	4101.5
916.941	4038.5
917.177	4072.5
917.412	4060.5
917.647	4076.5
917.882	4009.5
918.117	4071.5
918.352	4044.5
918.588	4049.5
918.823	3953.5
919.057	3958.5
919.292	3836.5
919.527	3901.5
919.762	3809.5
919.997	3857.5
920.232	3737.5
920.466	3769.5
920.701	3623.5
920.935	3669.5
921.17	3613.5
921.405	3608.5
921.639	3685.5
921.873	3577.5
922.108	3633.5
922.342	3593.5
922.576	3545.5
922.811	3522.5
923.045	3564.5
923.279	3602.5
923.513	3435.5
923.747	3552.5
923.981	3482.5
924.215	3442.5
924.449	3447.5
924.683	3385.5
924.917	3362.5
925.151	3390.5
925.385	3409.5
925.618	3369.5
925.852	3372.5
926.086	3285.5
926.319	3326.5
926.553	3337.5
926.786	3336.5
927.02	3312.5
927.253	3361.5
927.486	3325.5
927.72	3245.5
927.953	3314.5
928.186	3287.5
928.42	3315.5
928.653	3232.5
928.886	3196.5
929.119	3243.5
929.352	3201.5
929.585	3251.5
929.818	3165.5
930.051	3140.5
930.284	3137.5
930.516	3046.5
930.749	3036.5
930.982	3084.5
931.215	3087.5
931.447	3019.5
931.68	2997.5
931.912	3001.5
932.145	2976.5
932.377	3018.5
932.61	3138.5
932.842	2923.5
933.074	3031.5
933.307	2947.5
933.539	3065.5
933.771	3019.5
934.003	2991.5
934.236	3046.5
934.468	3040.5
934.7	2979.5
934.932	2998.5
935.164	2931.5
935.395	2937.5
935.627	2943.5
935.859	2924.5
936.091	2847.5
936.323	2920.5
936.554	2968.5
936.786	2898.5
937.017	2798.5
937.249	2876.5
937.481	2838.5
937.712	2863.5
937.943	2839.5
938.175	2819.5
938.406	2826.5
938.637	2865.5
938.869	2767.5
939.1	2824.5
939.331	2793.5
939.562	2827.5
939.793	2771.5
940.024	2832.5
940.255	2767.5
940.486	2765.5
940.717	2771.5
940.948	2722.5
941.179	2677.5
941.409	2714.5
941.64	2727.5
941.871	2683.5
942.102	2684.5
942.332	2692.5
942.563	2719.5
942.793	2699.5
943.024	2654.5
943.254	2662.5
943.484	2736.5
943.715	2730.5
943.945	2700.5
944.175	2622.5
944.405	2613.5
944.636	2612.5
944.866	2687.5
945.096	2649.5
945.326	2615.5
945.556	2636.5
945.786	2646.5
946.016	2603.5
946.245	2555.5
946.475	2549.5
946.705	2540.5
946.935	2547.5
947.164	2551.5
947.394	2492.5
947.624	2520.5
947.853	2523.5
948.083	2495.5
948.312	2483.5
948.542	2424.5
948.771	2407.5
949	2428.5
949.23	2452.5
949.459	2467.5
949.688	2498.5
949.917	2460.5
950.146	2452.5
950.375	2500.5
950.604	2397.5
950.833	2494.5
951.062	2463.5
951.291	2441.5
951.52	2385.5
951.749	2427.5
951.978	2354.5
952.206	2387.5
952.435	2326.5
952.664	2400.5
952.892	2425.5
953.121	2372.5
953.349	2392.5
953.578	2355.5
953.806	2350.5
954.035	2291.5
954.263	2325.5
954.491	2273.5
954.719	2304.5
954.948	2259.5
955.176	2225.5
955.404	2217.5
955.632	2261.5
955.86	2285.5
956.088	2268.5
956.316	2272.5
956.544	2276.5
956.772	2219.5
956.999	2174.5
957.227	2292.5
957.455	2208.5
957.683	2187.5
957.91	2153.5
958.138	2122.5
958.365	2145.5
958.593	2145.5
958.82	2067.5
959.048	2160.5
959.275	2093.5
959.502	2105.5
959.73	2101.5
959.957	2089.5
960.184	2142.5
960.411	2080.5
960.638	2161.5
960.865	2101.5
961.092	2112.5
961.319	1999.5
961.546	2100.5
961.773	2129.5
962	2066.5
962.227	2119.5
962.454	2063.5
962.68	2064.5
962.907	2072.5
963.134	2035.5
963.36	2066.5
963.587	2037.5
963.813	1982.5
964.04	2040.5
964.266	1974.5
964.493	2089.5
964.719	2017.5
964.945	2012.5
965.171	1925.5
965.398	1995.5
965.624	2000.5
965.85	1918.5
966.076	1918.5
966.302	1952.5
966.528	1918.5
966.754	1943.5
966.98	1928.5
967.206	1926.5
967.431	1836.5
967.657	1931.5
967.883	1902.5
968.109	1913.5
968.334	1876.5
968.56	1853.5
968.785	1883.5
969.011	1823.5
969.236	1889.5
969.462	1833.5
969.687	1837.5
969.912	1879.5
970.138	1891.5
970.363	1830.5
970.588	1878.5
970.813	1826.5
971.038	1811.5
971.263	1800.5
971.488	1848.5
971.713	1872.5
971.938	1805.5
972.163	1763.5
972.388	1765.5
972.613	1750.5
972.838	1813.5
973.062	1793.5
973.287	1736.5
973.512	1669.5
973.736	1735.5
973.961	1741.5
974.185	1696.5
974.41	1761.5
974.634	1663.5
974.858	1663.5
975.083	1693.5
975.307	1699.5
975.531	1658.5
975.755	1591.5
975.98	1629.5
976.204	1560.5
976.428	1569.5
976.652	1607.5
976.876	1575.5
977.1	1611.5
977.324	1562.5
977.547	1592.5
977.771	1608.5
977.995	1608.5
978.219	1529.5
978.442	1635.5
978.666	1591.5
978.89	1547.5
979.113	1585.5
979.337	1572.5
979.56	1535.5
979.783	1617.5
980.007	1499.5
980.23	1550.5
980.453	1504.5
980.677	1561.5
980.9	1532.5
981.123	1435.5
981.346	1540.5
981.569	1527.5
981.792	1540.5
982.015	1496.5
982.238	1467.5
982.461	1480.5
982.684	1448.5
982.907	1437.5
983.129	1430.5
983.352	1466.5
983.575	1453.5
983.797	1481.5
984.02	1387.5
984.242	1410.5
984.465	1462.5
984.687	1452.5
984.91	1466.5
985.132	1446.5
985.354	1483.5
985.577	1431.5
985.799	1434.5
986.021	1352.5
986.243	1386.5
986.465	1400.5
986.687	1433.5
986.909	1479.5
987.131	1426.5
987.353	1389.5
987.575	1402.5
987.797	1365.5
988.019	1293.5
988.241	1368.5
988.462	1332.5
988.684	1414.5
988.906	1426.5
989.127	1446.5
989.349	1339.5
989.57	1357.5
989.792	1415.5
990.013	1413.5
990.234	1406.5
990.456	1431.5
990.677	1379.5
990.898	1353.5
991.119	1383.5
991.341	1397.5
991.562	1324.5
991.783	1356.5
992.004	1302.5
992.225	1279.5
992.446	1332.5
992.667	1259.5
992.887	1312.5
993.108	1221.5
993.329	1380.5
993.55	1306.5
993.77	1251.5
993.991	1255.5
994.212	1295.5
994.432	1287.5
994.653	1280.5
994.873	1273.5
995.093	1208.5
995.314	1206.5
995.534	1300.5
995.754	1293.5
995.975	1321.5
996.195	1211.5
996.415	1267.5
996.635	1252.5
996.855	1261.5
997.075	1244.5
997.295	1251.5
997.515	1228.5
997.735	1257.5
997.955	1219.5
998.174	1230.5
998.394	1209.5
998.614	1248.5
998.834	1197.5
999.053	1267.5
999.273	1245.5
999.492	1286.5
999.712	1244.5
999.931	1192.5
1000.151	1246.5
1000.37	1240.5
1000.589	1295.5
1000.809	1208.5
1001.028	1332.5
1001.247	1246.5
1001.466	1173.5
1001.685	1295.5
1001.904	1251.5
1002.123	1217.5
1002.342	1261.5
1002.561	1191.5
1002.78	1214.5
1002.999	1284.5
1003.218	1212.5
1003.436	1189.5
1003.655	1228.5
1003.874	1184.5
1004.092	1205.5
1004.311	1270.5
1004.53	1208.5
1004.748	1277.5
1004.966	1204.5
1005.185	1271.5
1005.403	1267.5
1005.622	1250.5
1005.84	1295.5
1006.058	1198.5
1006.276	1210.5
1006.494	1598.5
1006.712	1210.5
1006.931	1287.5
1007.149	1207.5
1007.367	1184.5
1007.584	1242.5
1007.802	1263.5
1008.02	1203.5
1008.238	1283.5
1008.456	1272.5
1008.673	1136.5
1008.891	1253.5
1009.109	1235.5
1009.326	1229.5
1009.544	1308.5
1009.761	1230.5
1009.979	1282.5
1010.196	1284.5
1010.413	1350.5
1010.631	1393.5
1010.848	1425.5
1011.065	1379.5
1011.282	1350.5
1011.5	1274.5
1011.717	1397.5
1011.934	1338.5
1012.151	1371.5
1012.368	1340.5
1012.585	1296.5
1012.801	1339.5
1013.018	1305.5
1013.235	1243.5
1013.452	1297.5
1013.669	1278.5
1013.885	1283.5
1014.102	1317.5
1014.318	1274.5
1014.535	1221.5
1014.751	1290.5
1014.968	1256.5
1015.184	1273.5
1015.401	1207.5
1015.617	1250.5
1015.833	1206.5
1016.049	1192.5
1016.266	1171.5
1016.482	1194.5
1016.698	1132.5
1016.914	1170.5
1017.13	1123.5
1017.346	1119.5
1017.562	1206.5
1017.778	1149.5
1017.993	1081.5
1018.209	1170.5
1018.425	1124.5
1018.641	1099.5
1018.856	1075.5
1019.072	1105.5
1019.288	1160.5
1019.503	1109.5
1019.719	1022.5
1019.934	1045.5
1020.149	1120.5
1020.365	1038.5
1020.58	1019.5
1020.795	1081.5
1021.011	989.5
1021.226	999.5
1021.441	1047.5
1021.656	975.5
1021.871	913.5
1022.086	918.5
1022.301	932.5
1022.516	893.5
1022.731	987.5
1022.946	891.5
1023.16	868.5
1023.375	856.5
1023.59	819.5
1023.804	799.5
1024.019	906.5
1024.234	785.5
1024.448	826.5
1024.663	768.5
1024.877	782.5
1025.092	812.5
1025.306	815.5
1025.52	730.5
1025.734	797.5
1025.949	741.5
1026.163	721.5
1026.377	670.5
1026.591	723.5
1026.805	649.5
1027.019	651.5
1027.233	620.5
1027.447	579.5
1027.661	709.5
1027.875	632.5
1028.088	641.5
1028.302	573.5
1028.516	553.5
1028.73	552.5
1028.943	553.5
1029.157	527.5
1029.37	481.5
1029.584	-1.5
1029.797	-0.5
1030.011	-2.5
1030.224	-1.5
