Data from QEP037381__219__14-31-18-753.txt Node

Date: Fri Apr 28 14:31:18 EDT 2023
User: dcclab
Spectrometer: QEP03738
Trigger mode: 4
Integration Time (sec): 1.000000E1
Scans to average: 1
Electric dark correction enabled: true
Nonlinearity correction enabled: false
Boxcar width: 0
XAxis mode: Wavelengths
Number of Pixels in Spectrum: 1044
>>>>>Begin Spectral Data<<<<<
784.041	12.88
784.3	-2.12
784.558	-3.12
784.817	-3.12
785.075	77135.88
785.334	15483.88
785.592	7938.88
785.851	5596.88
786.109	4278.88
786.368	3295.88
786.626	2661.88
786.884	2218.88
787.143	1888.88
787.401	1569.88
787.659	1387.88
787.917	1198.88
788.175	1129.88
788.433	972.88
788.691	858.88
788.949	798.88
789.207	759.88
789.465	653.88
789.723	645.88
789.98	585.88
790.238	623.88
790.496	584.88
790.753	546.88
791.011	604.88
791.268	539.88
791.526	510.88
791.783	548.88
792.041	529.88
792.298	441.88
792.556	518.88
792.813	486.88
793.07	472.88
793.327	442.88
793.584	523.88
793.841	444.88
794.099	476.88
794.356	534.88
794.613	435.88
794.869	471.88
795.126	447.88
795.383	420.88
795.64	443.88
795.897	385.88
796.153	441.88
796.41	445.88
796.667	414.88
796.923	433.88
797.18	414.88
797.436	459.88
797.693	414.88
797.949	473.88
798.206	495.88
798.462	417.88
798.718	480.88
798.974	446.88
799.231	503.88
799.487	484.88
799.743	496.88
799.999	523.88
800.255	535.88
800.511	498.88
800.767	563.88
801.023	548.88
801.279	582.88
801.534	630.88
801.79	709.88
802.046	748.88
802.302	911.88
802.557	1066.88
802.813	1390.88
803.068	1752.88
803.324	2548.88
803.579	3535.88
803.835	4969.88
804.09	6794.88
804.345	8635.88
804.601	10633.88
804.856	12430.88
805.111	13790.88
805.366	14636.88
805.621	15268.88
805.876	15699.88
806.131	15978.88
806.386	16111.88
806.641	16397.88
806.896	16563.88
807.151	16888.88
807.406	17028.88
807.661	17310.88
807.915	17605.88
808.17	17761.88
808.425	17960.88
808.679	18134.88
808.934	18384.88
809.188	18487.88
809.443	18686.88
809.697	18838.88
809.951	19013.88
810.206	19092.88
810.46	19301.88
810.714	19410.88
810.968	19505.88
811.223	19600.88
811.477	19734.88
811.731	19868.88
811.985	19909.88
812.239	20102.88
812.493	20229.88
812.747	20249.88
813	20396.88
813.254	20411.88
813.508	20452.88
813.762	20555.88
814.015	20509.88
814.269	20739.88
814.522	20849.88
814.776	20968.88
815.03	21333.88
815.283	21548.88
815.536	21796.88
815.79	22100.88
816.043	22334.88
816.296	22484.88
816.55	22867.88
816.803	22978.88
817.056	23313.88
817.309	23530.88
817.562	23678.88
817.815	23984.88
818.068	24044.88
818.321	24301.88
818.574	24650.88
818.827	24943.88
819.079	25188.88
819.332	25552.88
819.585	26041.88
819.838	26285.88
820.09	26419.88
820.343	26603.88
820.595	26725.88
820.848	26935.88
821.1	27037.88
821.353	26804.88
821.605	26854.88
821.857	26922.88
822.11	26636.88
822.362	26586.88
822.614	26711.88
822.866	26593.88
823.118	26615.88
823.37	26912.88
823.622	26881.88
823.874	26955.88
824.126	27024.88
824.378	27161.88
824.63	27108.88
824.882	27251.88
825.134	27164.88
825.385	27131.88
825.637	27022.88
825.888	26826.88
826.14	26895.88
826.392	26657.88
826.643	26459.88
826.895	26574.88
827.146	26475.88
827.397	26347.88
827.649	26363.88
827.9	26215.88
828.151	26340.88
828.402	26402.88
828.653	26459.88
828.905	26506.88
829.156	26624.88
829.407	26394.88
829.658	26440.88
829.909	26545.88
830.159	26445.88
830.41	26130.88
830.661	26112.88
830.912	25850.88
831.162	25768.88
831.413	25821.88
831.664	25669.88
831.914	25739.88
832.165	25668.88
832.415	25778.88
832.666	25650.88
832.916	25611.88
833.167	25601.88
833.417	25643.88
833.667	25526.88
833.917	25467.88
834.168	25321.88
834.418	25192.88
834.668	25113.88
834.918	24962.88
835.168	24959.88
835.418	24833.88
835.668	24842.88
835.918	24735.88
836.167	24751.88
836.417	24696.88
836.667	24536.88
836.917	24476.88
837.166	24505.88
837.416	24421.88
837.666	24486.88
837.915	24368.88
838.165	24247.88
838.414	24016.88
838.663	24151.88
838.913	23990.88
839.162	23957.88
839.411	24048.88
839.661	23751.88
839.91	23798.88
840.159	23764.88
840.408	23746.88
840.657	23801.88
840.906	23785.88
841.155	23784.88
841.404	23640.88
841.653	23703.88
841.902	23662.88
842.15	23697.88
842.399	23701.88
842.648	23736.88
842.897	23514.88
843.145	23285.88
843.394	23136.88
843.642	23136.88
843.891	23039.88
844.139	22814.88
844.388	22688.88
844.636	22597.88
844.884	22682.88
845.133	22608.88
845.381	22605.88
845.629	22563.88
845.877	22478.88
846.125	22524.88
846.373	22447.88
846.621	22318.88
846.869	22240.88
847.117	22134.88
847.365	22006.88
847.613	21994.88
847.861	21812.88
848.108	21810.88
848.356	21703.88
848.604	21651.88
848.851	21772.88
849.099	21641.88
849.346	21735.88
849.594	22000.88
849.841	21922.88
850.089	22036.88
850.336	21947.88
850.583	21854.88
850.831	21696.88
851.078	21650.88
851.325	21537.88
851.572	21529.88
851.819	21206.88
852.066	20949.88
852.313	20668.88
852.56	20632.88
852.807	20537.88
853.054	20492.88
853.301	20452.88
853.548	20323.88
853.794	20468.88
854.041	20485.88
854.288	20576.88
854.534	20822.88
854.781	20738.88
855.028	20581.88
855.274	20613.88
855.52	20515.88
855.767	20409.88
856.013	20387.88
856.26	20472.88
856.506	20146.88
856.752	20064.88
856.998	20182.88
857.244	20138.88
857.49	20174.88
857.736	20188.88
857.982	20255.88
858.228	20131.88
858.474	19939.88
858.72	19869.88
858.966	19683.88
859.212	19591.88
859.458	19407.88
859.703	19201.88
859.949	18893.88
860.195	18849.88
860.44	18739.88
860.686	18717.88
860.931	18683.88
861.177	18529.88
861.422	18520.88
861.667	18424.88
861.913	18499.88
862.158	18633.88
862.403	18554.88
862.648	18524.88
862.893	18617.88
863.138	18446.88
863.384	18420.88
863.629	18454.88
863.873	18350.88
864.118	18258.88
864.363	18161.88
864.608	18128.88
864.853	17983.88
865.098	17862.88
865.342	17830.88
865.587	17698.88
865.832	17748.88
866.076	17623.88
866.321	17493.88
866.565	17504.88
866.81	17377.88
867.054	17369.88
867.298	17389.88
867.543	17365.88
867.787	17283.88
868.031	17318.88
868.275	17289.88
868.519	17283.88
868.764	17224.88
869.008	17032.88
869.252	17156.88
869.496	16987.88
869.739	17001.88
869.983	17001.88
870.227	16990.88
870.471	16856.88
870.715	16966.88
870.958	16964.88
871.202	16937.88
871.446	16952.88
871.689	16987.88
871.933	16952.88
872.176	17016.88
872.42	16902.88
872.663	16850.88
872.906	16853.88
873.15	16721.88
873.393	16566.88
873.636	16510.88
873.879	16317.88
874.122	16164.88
874.366	16018.88
874.609	15969.88
874.852	15868.88
875.095	15832.88
875.337	15619.88
875.58	15545.88
875.823	15541.88
876.066	15534.88
876.309	15521.88
876.551	15358.88
876.794	15267.88
877.037	15304.88
877.279	15255.88
877.522	15283.88
877.764	15320.88
878.007	15305.88
878.249	15252.88
878.491	15141.88
878.734	15241.88
878.976	15207.88
879.218	15106.88
879.46	14993.88
879.702	14874.88
879.945	14794.88
880.187	14623.88
880.429	14481.88
880.671	14429.88
880.912	14376.88
881.154	14333.88
881.396	14225.88
881.638	14321.88
881.88	14326.88
882.121	14268.88
882.363	14281.88
882.605	14193.88
882.846	14178.88
883.088	14087.88
883.329	14092.88
883.571	14060.88
883.812	14124.88
884.053	14262.88
884.295	14330.88
884.536	14515.88
884.777	14394.88
885.018	14212.88
885.259	14198.88
885.5	14054.88
885.742	14202.88
885.982	14021.88
886.223	13928.88
886.464	13945.88
886.705	13742.88
886.946	13707.88
887.187	13626.88
887.428	13479.88
887.668	13266.88
887.909	13153.88
888.15	13113.88
888.39	13034.88
888.631	13005.88
888.871	12892.88
889.111	12741.88
889.352	12663.88
889.592	12537.88
889.833	12448.88
890.073	12403.88
890.313	12318.88
890.553	12186.88
890.793	12186.88
891.033	12094.88
891.273	12051.88
891.513	12056.88
891.753	12021.88
891.993	11981.88
892.233	11961.88
892.473	12064.88
892.713	12040.88
892.952	12003.88
893.192	11930.88
893.432	11932.88
893.671	11874.88
893.911	11827.88
894.15	11784.88
894.39	11647.88
894.629	11642.88
894.869	11477.88
895.108	11447.88
895.347	11438.88
895.587	11387.88
895.826	11292.88
896.065	11200.88
896.304	11319.88
896.543	11229.88
896.782	11182.88
897.021	11198.88
897.26	11077.88
897.499	11159.88
897.738	11059.88
897.977	11000.88
898.216	10909.88
898.454	10753.88
898.693	10655.88
898.932	10697.88
899.17	10569.88
899.409	10569.88
899.647	10578.88
899.886	10519.88
900.124	10457.88
900.363	10437.88
900.601	10513.88
900.839	10551.88
901.078	10517.88
901.316	10526.88
901.554	10555.88
901.792	10575.88
902.03	10466.88
902.268	10445.88
902.506	10517.88
902.744	10412.88
902.982	10391.88
903.22	10234.88
903.458	10133.88
903.695	10100.88
903.933	9950.88
904.171	9802.88
904.409	9733.88
904.646	9560.88
904.884	9460.88
905.121	9478.88
905.359	9297.88
905.596	9236.88
905.833	9093.88
906.071	9149.88
906.308	9214.88
906.545	9151.88
906.783	9063.88
907.02	8999.88
907.257	9080.88
907.494	9079.88
907.731	9000.88
907.968	8992.88
908.205	8865.88
908.442	8883.88
908.679	8780.88
908.915	8733.88
909.152	8626.88
909.389	8604.88
909.626	8560.88
909.862	8457.88
910.099	8493.88
910.335	8446.88
910.572	8318.88
910.808	8372.88
911.045	8238.88
911.281	8223.88
911.518	8219.88
911.754	8145.88
911.99	8155.88
912.226	8035.88
912.463	7989.88
912.699	7892.88
912.935	7915.88
913.171	7808.88
913.407	7795.88
913.643	7683.88
913.879	7668.88
914.114	7605.88
914.35	7531.88
914.586	7380.88
914.822	7274.88
915.057	7380.88
915.293	7254.88
915.529	7189.88
915.764	7293.88
916	7278.88
916.235	7239.88
916.471	7230.88
916.706	7120.88
916.941	7167.88
917.177	7155.88
917.412	7184.88
917.647	7093.88
917.882	7091.88
918.117	7140.88
918.352	7080.88
918.588	7036.88
918.823	6921.88
919.057	6864.88
919.292	6745.88
919.527	6835.88
919.762	6657.88
919.997	6624.88
920.232	6529.88
920.466	6522.88
920.701	6350.88
920.935	6419.88
921.17	6346.88
921.405	6305.88
921.639	6321.88
921.873	6260.88
922.108	6254.88
922.342	6280.88
922.576	6238.88
922.811	6225.88
923.045	6249.88
923.279	6217.88
923.513	6091.88
923.747	6103.88
923.981	6055.88
924.215	5964.88
924.449	5911.88
924.683	5904.88
924.917	5882.88
925.151	5793.88
925.385	5873.88
925.618	5817.88
925.852	5843.88
926.086	5705.88
926.319	5783.88
926.553	5674.88
926.786	5782.88
927.02	5736.88
927.253	5779.88
927.486	5719.88
927.72	5673.88
927.953	5697.88
928.186	5673.88
928.42	5684.88
928.653	5601.88
928.886	5574.88
929.119	5515.88
929.352	5509.88
929.585	5496.88
929.818	5412.88
930.051	5426.88
930.284	5371.88
930.516	5259.88
930.749	5299.88
930.982	5291.88
931.215	5295.88
931.447	5128.88
931.68	5172.88
931.912	5120.88
932.145	5197.88
932.377	5172.88
932.61	5237.88
932.842	5095.88
933.074	5189.88
933.307	5073.88
933.539	5160.88
933.771	5214.88
934.003	5113.88
934.236	5188.88
934.468	5159.88
934.7	5122.88
934.932	5132.88
935.164	5082.88
935.395	5073.88
935.627	5041.88
935.859	5061.88
936.091	4921.88
936.323	4963.88
936.554	5011.88
936.786	4936.88
937.017	4888.88
937.249	4848.88
937.481	4802.88
937.712	4877.88
937.943	4838.88
938.175	4823.88
938.406	4776.88
938.637	4895.88
938.869	4765.88
939.1	4798.88
939.331	4760.88
939.562	4796.88
939.793	4805.88
940.024	4725.88
940.255	4721.88
940.486	4680.88
940.717	4676.88
940.948	4670.88
941.179	4610.88
941.409	4619.88
941.64	4592.88
941.871	4589.88
942.102	4557.88
942.332	4570.88
942.563	4624.88
942.793	4594.88
943.024	4541.88
943.254	4582.88
943.484	4624.88
943.715	4581.88
943.945	4554.88
944.175	4537.88
944.405	4453.88
944.636	4459.88
944.866	4539.88
945.096	4511.88
945.326	4438.88
945.556	4494.88
945.786	4483.88
946.016	4412.88
946.245	4336.88
946.475	4329.88
946.705	4305.88
946.935	4282.88
947.164	4334.88
947.394	4221.88
947.624	4253.88
947.853	4231.88
948.083	4221.88
948.312	4217.88
948.542	4121.88
948.771	4077.88
949	4131.88
949.23	4092.88
949.459	4119.88
949.688	4157.88
949.917	4140.88
950.146	4081.88
950.375	4176.88
950.604	4045.88
950.833	4144.88
951.062	4122.88
951.291	4071.88
951.52	4016.88
951.749	4007.88
951.978	4015.88
952.206	3969.88
952.435	3981.88
952.664	4036.88
952.892	3998.88
953.121	3961.88
953.349	3995.88
953.578	3931.88
953.806	3896.88
954.035	3860.88
954.263	3891.88
954.491	3810.88
954.719	3867.88
954.948	3771.88
955.176	3784.88
955.404	3698.88
955.632	3725.88
955.86	3780.88
956.088	3732.88
956.316	3740.88
956.544	3749.88
956.772	3717.88
956.999	3626.88
957.227	3722.88
957.455	3579.88
957.683	3587.88
957.91	3519.88
958.138	3541.88
958.365	3535.88
958.593	3548.88
958.82	3492.88
959.048	3540.88
959.275	3484.88
959.502	3500.88
959.73	3488.88
959.957	3489.88
960.184	3516.88
960.411	3442.88
960.638	3501.88
960.865	3486.88
961.092	3458.88
961.319	3441.88
961.546	3443.88
961.773	3490.88
962	3384.88
962.227	3465.88
962.454	3368.88
962.68	3372.88
962.907	3410.88
963.134	3302.88
963.36	3345.88
963.587	3342.88
963.813	3273.88
964.04	3334.88
964.266	3212.88
964.493	3324.88
964.719	3258.88
964.945	3233.88
965.171	3157.88
965.398	3201.88
965.624	3360.88
965.85	3159.88
966.076	3139.88
966.302	3175.88
966.528	3117.88
966.754	3133.88
966.98	3145.88
967.206	3135.88
967.431	3054.88
967.657	3112.88
967.883	3063.88
968.109	3079.88
968.334	3030.88
968.56	3019.88
968.785	3010.88
969.011	2943.88
969.236	3018.88
969.462	2952.88
969.687	2963.88
969.912	2967.88
970.138	3031.88
970.363	2926.88
970.588	2953.88
970.813	2912.88
971.038	2923.88
971.263	2897.88
971.488	2923.88
971.713	2928.88
971.938	2916.88
972.163	2833.88
972.388	2833.88
972.613	2798.88
972.838	2838.88
973.062	2811.88
973.287	2782.88
973.512	2706.88
973.736	2797.88
973.961	2739.88
974.185	2678.88
974.41	2768.88
974.634	2646.88
974.858	2678.88
975.083	2702.88
975.307	2673.88
975.531	2615.88
975.755	2549.88
975.98	2587.88
976.204	2527.88
976.428	2482.88
976.652	2543.88
976.876	2483.88
977.1	2525.88
977.324	2471.88
977.547	2530.88
977.771	2549.88
977.995	2473.88
978.219	2431.88
978.442	2546.88
978.666	2485.88
978.89	2453.88
979.113	2482.88
979.337	2444.88
979.56	2423.88
979.783	2508.88
980.007	2427.88
980.23	2426.88
980.453	2379.88
980.677	2403.88
980.9	2400.88
981.123	2286.88
981.346	2413.88
981.569	2326.88
981.792	2362.88
982.015	2333.88
982.238	2298.88
982.461	2314.88
982.684	2269.88
982.907	2254.88
983.129	2245.88
983.352	2275.88
983.575	2240.88
983.797	2251.88
984.02	2219.88
984.242	2184.88
984.465	2193.88
984.687	2226.88
984.91	2232.88
985.132	2225.88
985.354	2205.88
985.577	2192.88
985.799	2185.88
986.021	2090.88
986.243	2121.88
986.465	2123.88
986.687	2200.88
986.909	2214.88
987.131	2137.88
987.353	2072.88
987.575	2183.88
987.797	2105.88
988.019	2034.88
988.241	2115.88
988.462	2035.88
988.684	2148.88
988.906	2139.88
989.127	2164.88
989.349	2011.88
989.57	2060.88
989.792	2113.88
990.013	2075.88
990.234	2051.88
990.456	2125.88
990.677	2084.88
990.898	2005.88
991.119	2042.88
991.341	2061.88
991.562	1973.88
991.783	1979.88
992.004	1948.88
992.225	1913.88
992.446	1973.88
992.667	1883.88
992.887	1972.88
993.108	1844.88
993.329	1964.88
993.55	1939.88
993.77	1861.88
993.991	1865.88
994.212	1874.88
994.432	1884.88
994.653	1885.88
994.873	1853.88
995.093	1766.88
995.314	1828.88
995.534	1845.88
995.754	1873.88
995.975	1877.88
996.195	1799.88
996.415	1819.88
996.635	1804.88
996.855	1816.88
997.075	1819.88
997.295	1810.88
997.515	1769.88
997.735	1825.88
997.955	1779.88
998.174	1756.88
998.394	1750.88
998.614	1802.88
998.834	1755.88
999.053	1810.88
999.273	1768.88
999.492	1825.88
999.712	1778.88
999.931	1706.88
1000.151	1731.88
1000.37	1763.88
1000.589	1805.88
1000.809	1718.88
1001.028	1802.88
1001.247	1811.88
1001.466	1649.88
1001.685	1784.88
1001.904	1716.88
1002.123	1710.88
1002.342	1726.88
1002.561	1628.88
1002.78	1690.88
1002.999	1724.88
1003.218	1677.88
1003.436	1645.88
1003.655	1664.88
1003.874	1633.88
1004.092	1651.88
1004.311	1718.88
1004.53	1642.88
1004.748	1722.88
1004.966	1651.88
1005.185	1701.88
1005.403	1658.88
1005.622	1659.88
1005.84	1709.88
1006.058	1611.88
1006.276	1623.88
1006.494	2011.88
1006.712	1631.88
1006.931	1694.88
1007.149	1607.88
1007.367	1618.88
1007.584	1647.88
1007.802	1686.88
1008.02	1612.88
1008.238	1687.88
1008.456	1683.88
1008.673	1566.88
1008.891	1682.88
1009.109	1600.88
1009.326	1693.88
1009.544	1753.88
1009.761	1657.88
1009.979	1737.88
1010.196	1750.88
1010.413	1846.88
1010.631	1890.88
1010.848	1901.88
1011.065	1892.88
1011.282	1839.88
1011.5	1739.88
1011.717	1890.88
1011.934	1798.88
1012.151	1825.88
1012.368	1827.88
1012.585	1748.88
1012.801	1785.88
1013.018	1756.88
1013.235	1734.88
1013.452	1768.88
1013.669	1764.88
1013.885	1748.88
1014.102	1818.88
1014.318	1732.88
1014.535	1698.88
1014.751	1762.88
1014.968	1714.88
1015.184	1745.88
1015.401	1682.88
1015.617	1668.88
1015.833	1619.88
1016.049	1625.88
1016.266	1618.88
1016.482	1608.88
1016.698	1548.88
1016.914	1597.88
1017.13	1544.88
1017.346	1521.88
1017.562	1584.88
1017.778	1526.88
1017.993	1490.88
1018.209	1531.88
1018.425	1499.88
1018.641	1503.88
1018.856	1453.88
1019.072	1487.88
1019.288	1496.88
1019.503	1465.88
1019.719	1431.88
1019.934	1404.88
1020.149	1487.88
1020.365	1409.88
1020.58	1361.88
1020.795	1418.88
1021.011	1371.88
1021.226	1326.88
1021.441	1358.88
1021.656	1276.88
1021.871	1210.88
1022.086	1234.88
1022.301	1218.88
1022.516	1198.88
1022.731	1286.88
1022.946	1155.88
1023.16	1145.88
1023.375	1129.88
1023.59	1090.88
1023.804	1055.88
1024.019	1162.88
1024.234	1029.88
1024.448	1072.88
1024.663	1026.88
1024.877	1016.88
1025.092	1051.88
1025.306	1050.88
1025.52	932.88
1025.734	1003.88
1025.949	956.88
1026.163	932.88
1026.377	881.88
1026.591	922.88
1026.805	835.88
1027.019	858.88
1027.233	802.88
1027.447	766.88
1027.661	870.88
1027.875	799.88
1028.088	795.88
1028.302	740.88
1028.516	716.88
1028.73	736.88
1028.943	695.88
1029.157	651.88
1029.37	628.88
1029.584	-2.12
1029.797	-1.12
1030.011	-0.12
1030.224	-1.12
