Data from QEP037381__246__14-35-48-755.txt Node

Date: Fri Apr 28 14:35:48 EDT 2023
User: dcclab
Spectrometer: QEP03738
Trigger mode: 4
Integration Time (sec): 1.000000E1
Scans to average: 1
Electric dark correction enabled: true
Nonlinearity correction enabled: false
Boxcar width: 0
XAxis mode: Wavelengths
Number of Pixels in Spectrum: 1044
>>>>>Begin Spectral Data<<<<<
784.041	9.62
784.3	-0.38
784.558	0.62
784.817	-4.38
785.075	77105.62
785.334	15975.62
785.592	8483.62
785.851	5942.62
786.109	4522.62
786.368	3541.62
786.626	2869.62
786.884	2397.62
787.143	1971.62
787.401	1623.62
787.659	1468.62
787.917	1245.62
788.175	1140.62
788.433	1001.62
788.691	865.62
788.949	796.62
789.207	771.62
789.465	665.62
789.723	643.62
789.98	581.62
790.238	636.62
790.496	574.62
790.753	568.62
791.011	602.62
791.268	532.62
791.526	516.62
791.783	529.62
792.041	502.62
792.298	431.62
792.556	497.62
792.813	463.62
793.07	457.62
793.327	425.62
793.584	517.62
793.841	450.62
794.099	455.62
794.356	518.62
794.613	416.62
794.869	448.62
795.126	410.62
795.383	399.62
795.64	422.62
795.897	373.62
796.153	422.62
796.41	409.62
796.667	399.62
796.923	401.62
797.18	410.62
797.436	431.62
797.693	389.62
797.949	445.62
798.206	470.62
798.462	372.62
798.718	438.62
798.974	407.62
799.231	455.62
799.487	445.62
799.743	453.62
799.999	464.62
800.255	451.62
800.511	434.62
800.767	472.62
801.023	480.62
801.279	492.62
801.534	519.62
801.79	584.62
802.046	578.62
802.302	707.62
802.557	788.62
802.813	968.62
803.068	1186.62
803.324	1660.62
803.579	2271.62
803.835	3085.62
804.09	4174.62
804.345	5301.62
804.601	6456.62
804.856	7561.62
805.111	8318.62
805.366	8808.62
805.621	9231.62
805.876	9398.62
806.131	9565.62
806.386	9669.62
806.641	9748.62
806.896	9835.62
807.151	10088.62
807.406	10206.62
807.661	10296.62
807.915	10513.62
808.17	10589.62
808.425	10744.62
808.679	10807.62
808.934	10851.62
809.188	10988.62
809.443	11100.62
809.697	11254.62
809.951	11279.62
810.206	11342.62
810.46	11425.62
810.714	11470.62
810.968	11628.62
811.223	11535.62
811.477	11791.62
811.731	11817.62
811.985	11840.62
812.239	11825.62
812.493	11936.62
812.747	11978.62
813	11909.62
813.254	12012.62
813.508	12109.62
813.762	12099.62
814.015	12125.62
814.269	12230.62
814.522	12354.62
814.776	12445.62
815.03	12502.62
815.283	12717.62
815.536	12851.62
815.79	13046.62
816.043	13096.62
816.296	13349.62
816.55	13468.62
816.803	13534.62
817.056	13803.62
817.309	13820.62
817.562	13987.62
817.815	14072.62
818.068	14071.62
818.321	14253.62
818.574	14407.62
818.827	14589.62
819.079	14747.62
819.332	15076.62
819.585	15193.62
819.838	15418.62
820.09	15502.62
820.343	15574.62
820.595	15591.62
820.848	15802.62
821.1	15673.62
821.353	15717.62
821.605	15720.62
821.857	15850.62
822.11	15654.62
822.362	15655.62
822.614	15630.62
822.866	15716.62
823.118	15635.62
823.37	15698.62
823.622	15703.62
823.874	15845.62
824.126	15888.62
824.378	15916.62
824.63	15901.62
824.882	15958.62
825.134	15930.62
825.385	15936.62
825.637	15889.62
825.888	15740.62
826.14	15753.62
826.392	15672.62
826.643	15535.62
826.895	15510.62
827.146	15445.62
827.397	15392.62
827.649	15483.62
827.9	15332.62
828.151	15416.62
828.402	15500.62
828.653	15429.62
828.905	15511.62
829.156	15514.62
829.407	15496.62
829.658	15416.62
829.909	15562.62
830.159	15467.62
830.41	15335.62
830.661	15217.62
830.912	15114.62
831.162	15046.62
831.413	15070.62
831.664	15075.62
831.914	15114.62
832.165	15065.62
832.415	15117.62
832.666	15129.62
832.916	15063.62
833.167	15045.62
833.417	14920.62
833.667	14937.62
833.917	14933.62
834.168	14919.62
834.418	14847.62
834.668	14672.62
834.918	14704.62
835.168	14731.62
835.418	14629.62
835.668	14649.62
835.918	14631.62
836.167	14630.62
836.417	14460.62
836.667	14435.62
836.917	14337.62
837.166	14360.62
837.416	14361.62
837.666	14353.62
837.915	14253.62
838.165	14186.62
838.414	14097.62
838.663	14001.62
838.913	14113.62
839.162	13997.62
839.411	14076.62
839.661	13996.62
839.91	14024.62
840.159	13912.62
840.408	13981.62
840.657	13874.62
840.906	13860.62
841.155	13933.62
841.404	13825.62
841.653	13865.62
841.902	13867.62
842.15	13874.62
842.399	13876.62
842.648	13847.62
842.897	13835.62
843.145	13656.62
843.394	13578.62
843.642	13495.62
843.891	13599.62
844.139	13442.62
844.388	13376.62
844.636	13293.62
844.884	13335.62
845.133	13270.62
845.381	13273.62
845.629	13272.62
845.877	13231.62
846.125	13215.62
846.373	13166.62
846.621	13138.62
846.869	13170.62
847.117	12992.62
847.365	12973.62
847.613	12985.62
847.861	12896.62
848.108	12888.62
848.356	12835.62
848.604	12721.62
848.851	12781.62
849.099	12865.62
849.346	12942.62
849.594	12832.62
849.841	12951.62
850.089	12895.62
850.336	12869.62
850.583	12978.62
850.831	12734.62
851.078	12753.62
851.325	12625.62
851.572	12719.62
851.819	12558.62
852.066	12300.62
852.313	12144.62
852.56	12124.62
852.807	12054.62
853.054	12012.62
853.301	12076.62
853.548	12012.62
853.794	12133.62
854.041	12151.62
854.288	12268.62
854.534	12310.62
854.781	12287.62
855.028	12114.62
855.274	12244.62
855.52	12036.62
855.767	11958.62
856.013	12021.62
856.26	12184.62
856.506	11772.62
856.752	11867.62
856.998	11744.62
857.244	11779.62
857.49	11909.62
857.736	11865.62
857.982	11905.62
858.228	11897.62
858.474	11695.62
858.72	11707.62
858.966	11579.62
859.212	11555.62
859.458	11413.62
859.703	11385.62
859.949	11173.62
860.195	11110.62
860.44	11127.62
860.686	10952.62
860.931	11076.62
861.177	10910.62
861.422	10916.62
861.667	10852.62
861.913	10847.62
862.158	10904.62
862.403	10992.62
862.648	11048.62
862.893	11036.62
863.138	10989.62
863.384	10880.62
863.629	10881.62
863.873	10840.62
864.118	10845.62
864.363	10719.62
864.608	10660.62
864.853	10674.62
865.098	10568.62
865.342	10513.62
865.587	10494.62
865.832	10540.62
866.076	10442.62
866.321	10406.62
866.565	10376.62
866.81	10381.62
867.054	10642.62
867.298	10343.62
867.543	10290.62
867.787	10294.62
868.031	10232.62
868.275	10182.62
868.519	10180.62
868.764	10186.62
869.008	10098.62
869.252	10155.62
869.496	10036.62
869.739	10037.62
869.983	10082.62
870.227	10026.62
870.471	9968.62
870.715	10023.62
870.958	10018.62
871.202	10053.62
871.446	10079.62
871.689	9939.62
871.933	10028.62
872.176	9999.62
872.42	10063.62
872.663	9997.62
872.906	9974.62
873.15	9887.62
873.393	9744.62
873.636	9813.62
873.879	9722.62
874.122	9666.62
874.366	9430.62
874.609	9474.62
874.852	9406.62
875.095	9357.62
875.337	9357.62
875.58	9267.62
875.823	9282.62
876.066	9253.62
876.309	9327.62
876.551	9175.62
876.794	9054.62
877.037	9189.62
877.279	9097.62
877.522	9086.62
877.764	9152.62
878.007	9063.62
878.249	9059.62
878.491	9079.62
878.734	9079.62
878.976	9042.62
879.218	8903.62
879.46	8949.62
879.702	8880.62
879.945	8756.62
880.187	8728.62
880.429	8729.62
880.671	8652.62
880.912	8561.62
881.154	8573.62
881.396	8519.62
881.638	8557.62
881.88	8539.62
882.121	8406.62
882.363	8457.62
882.605	8460.62
882.846	8417.62
883.088	8437.62
883.329	8372.62
883.571	8362.62
883.812	8409.62
884.053	8432.62
884.295	8466.62
884.536	8626.62
884.777	8513.62
885.018	8501.62
885.259	8511.62
885.5	8405.62
885.742	8539.62
885.982	8373.62
886.223	8231.62
886.464	8267.62
886.705	8248.62
886.946	8217.62
887.187	8071.62
887.428	8052.62
887.668	7948.62
887.909	7861.62
888.15	7796.62
888.39	7797.62
888.631	7790.62
888.871	7740.62
889.111	7632.62
889.352	7580.62
889.592	7524.62
889.833	7463.62
890.073	7433.62
890.313	7449.62
890.553	7260.62
890.793	7286.62
891.033	7248.62
891.273	7256.62
891.513	7193.62
891.753	7268.62
891.993	7171.62
892.233	7219.62
892.473	7234.62
892.713	7251.62
892.952	7172.62
893.192	7214.62
893.432	7162.62
893.671	7174.62
893.911	7114.62
894.15	7090.62
894.39	6943.62
894.629	6936.62
894.869	6858.62
895.108	6914.62
895.347	6837.62
895.587	6822.62
895.826	6824.62
896.065	6787.62
896.304	6769.62
896.543	6761.62
896.782	6653.62
897.021	6731.62
897.26	6664.62
897.499	6704.62
897.738	6677.62
897.977	6606.62
898.216	6553.62
898.454	6486.62
898.693	6392.62
898.932	6451.62
899.17	6357.62
899.409	6354.62
899.647	6318.62
899.886	6344.62
900.124	6383.62
900.363	6306.62
900.601	6357.62
900.839	6316.62
901.078	6373.62
901.316	6355.62
901.554	6276.62
901.792	6284.62
902.03	6293.62
902.268	6242.62
902.506	6311.62
902.744	6220.62
902.982	6260.62
903.22	6117.62
903.458	6057.62
903.695	6087.62
903.933	5985.62
904.171	5868.62
904.409	5810.62
904.646	5779.62
904.884	5645.62
905.121	5678.62
905.359	5629.62
905.596	5649.62
905.833	5556.62
906.071	5489.62
906.308	5549.62
906.545	5481.62
906.783	5399.62
907.02	5486.62
907.257	5442.62
907.494	5461.62
907.731	5448.62
907.968	5426.62
908.205	5369.62
908.442	5353.62
908.679	5350.62
908.915	5272.62
909.152	5243.62
909.389	5145.62
909.626	5184.62
909.862	5114.62
910.099	5114.62
910.335	5109.62
910.572	4984.62
910.808	5084.62
911.045	5041.62
911.281	4988.62
911.518	5026.62
911.754	4956.62
911.99	4941.62
912.226	4856.62
912.463	4889.62
912.699	4842.62
912.935	4837.62
913.171	4743.62
913.407	4722.62
913.643	4741.62
913.879	4676.62
914.114	4609.62
914.35	4556.62
914.586	4554.62
914.822	4477.62
915.057	4527.62
915.293	4362.62
915.529	4359.62
915.764	4508.62
916	4460.62
916.235	4401.62
916.471	4442.62
916.706	4311.62
916.941	4390.62
917.177	4342.62
917.412	4381.62
917.647	4400.62
917.882	4314.62
918.117	4378.62
918.352	4349.62
918.588	4341.62
918.823	4232.62
919.057	4234.62
919.292	4079.62
919.527	4172.62
919.762	4066.62
919.997	4093.62
920.232	4060.62
920.466	4037.62
920.701	3926.62
920.935	3976.62
921.17	3887.62
921.405	3841.62
921.639	3908.62
921.873	3793.62
922.108	3832.62
922.342	3910.62
922.576	3785.62
922.811	3814.62
923.045	3825.62
923.279	3842.62
923.513	3667.62
923.747	3783.62
923.981	3740.62
924.215	3698.62
924.449	3700.62
924.683	3581.62
924.917	3598.62
925.151	3606.62
925.385	3640.62
925.618	3633.62
925.852	3605.62
926.086	3514.62
926.319	3538.62
926.553	3543.62
926.786	3561.62
927.02	3510.62
927.253	3557.62
927.486	3540.62
927.72	3508.62
927.953	3559.62
928.186	3518.62
928.42	3490.62
928.653	3453.62
928.886	3390.62
929.119	3512.62
929.352	3423.62
929.585	3407.62
929.818	3357.62
930.051	3390.62
930.284	3368.62
930.516	3268.62
930.749	3293.62
930.982	3312.62
931.215	3297.62
931.447	3179.62
931.68	3186.62
931.912	3219.62
932.145	3203.62
932.377	3217.62
932.61	3361.62
932.842	3141.62
933.074	3233.62
933.307	3129.62
933.539	3256.62
933.771	3230.62
934.003	3153.62
934.236	3242.62
934.468	3240.62
934.7	3192.62
934.932	3196.62
935.164	3137.62
935.395	3115.62
935.627	3119.62
935.859	3137.62
936.091	3072.62
936.323	3089.62
936.554	3129.62
936.786	3094.62
937.017	3010.62
937.249	3056.62
937.481	3006.62
937.712	3045.62
937.943	3008.62
938.175	2968.62
938.406	3009.62
938.637	3065.62
938.869	2966.62
939.1	3027.62
939.331	2932.62
939.562	2991.62
939.793	2986.62
940.024	2987.62
940.255	3011.62
940.486	2920.62
940.717	2909.62
940.948	2923.62
941.179	2896.62
941.409	2899.62
941.64	2870.62
941.871	2891.62
942.102	2886.62
942.332	2849.62
942.563	2916.62
942.793	2885.62
943.024	2834.62
943.254	2864.62
943.484	2849.62
943.715	2924.62
943.945	2863.62
944.175	2786.62
944.405	2778.62
944.636	2783.62
944.866	2852.62
945.096	2849.62
945.326	2785.62
945.556	2800.62
945.786	2844.62
946.016	2783.62
946.245	2700.62
946.475	2737.62
946.705	2700.62
946.935	2725.62
947.164	2675.62
947.394	2697.62
947.624	2667.62
947.853	2690.62
948.083	2653.62
948.312	2616.62
948.542	2606.62
948.771	2594.62
949	2592.62
949.23	2562.62
949.459	2604.62
949.688	2645.62
949.917	2570.62
950.146	2552.62
950.375	2651.62
950.604	2544.62
950.833	2649.62
951.062	2628.62
951.291	2568.62
951.52	2521.62
951.749	2557.62
951.978	2521.62
952.206	2566.62
952.435	2498.62
952.664	2523.62
952.892	2572.62
953.121	2545.62
953.349	2532.62
953.578	2527.62
953.806	2490.62
954.035	2417.62
954.263	2445.62
954.491	2403.62
954.719	2465.62
954.948	2444.62
955.176	2378.62
955.404	2356.62
955.632	2394.62
955.86	2393.62
956.088	2369.62
956.316	2416.62
956.544	2424.62
956.772	2324.62
956.999	2333.62
957.227	2398.62
957.455	2291.62
957.683	2290.62
957.91	2271.62
958.138	2292.62
958.365	2255.62
958.593	2254.62
958.82	2218.62
959.048	2266.62
959.275	2226.62
959.502	2258.62
959.73	2222.62
959.957	2229.62
960.184	2259.62
960.411	2219.62
960.638	2276.62
960.865	2233.62
961.092	2233.62
961.319	2144.62
961.546	2228.62
961.773	2205.62
962	2229.62
962.227	2235.62
962.454	2182.62
962.68	2177.62
962.907	2203.62
963.134	2114.62
963.36	2160.62
963.587	2156.62
963.813	2099.62
964.04	2121.62
964.266	2084.62
964.493	2150.62
964.719	2111.62
964.945	2115.62
965.171	2011.62
965.398	2090.62
965.624	2100.62
965.85	2002.62
966.076	2030.62
966.302	2081.62
966.528	2021.62
966.754	2039.62
966.98	2060.62
967.206	2014.62
967.431	1963.62
967.657	2036.62
967.883	2040.62
968.109	2016.62
968.334	1945.62
968.56	1986.62
968.785	1968.62
969.011	1933.62
969.236	2003.62
969.462	1968.62
969.687	1962.62
969.912	2022.62
970.138	1966.62
970.363	1914.62
970.588	1943.62
970.813	1903.62
971.038	1896.62
971.263	1915.62
971.488	1893.62
971.713	1939.62
971.938	1924.62
972.163	1824.62
972.388	1835.62
972.613	1825.62
972.838	1835.62
973.062	1858.62
973.287	1827.62
973.512	1771.62
973.736	1817.62
973.961	1822.62
974.185	1780.62
974.41	1830.62
974.634	1741.62
974.858	1737.62
975.083	1789.62
975.307	1797.62
975.531	1716.62
975.755	1696.62
975.98	1705.62
976.204	1656.62
976.428	1657.62
976.652	1679.62
976.876	1638.62
977.1	1689.62
977.324	1632.62
977.547	1693.62
977.771	1693.62
977.995	1693.62
978.219	1610.62
978.442	1758.62
978.666	1658.62
978.89	1640.62
979.113	1639.62
979.337	1659.62
979.56	1593.62
979.783	1681.62
980.007	1596.62
980.23	1626.62
980.453	1578.62
980.677	1620.62
980.9	1612.62
981.123	1533.62
981.346	1619.62
981.569	1621.62
981.792	1615.62
982.015	1551.62
982.238	1536.62
982.461	1585.62
982.684	1533.62
982.907	1532.62
983.129	1473.62
983.352	1553.62
983.575	1527.62
983.797	1538.62
984.02	1488.62
984.242	1473.62
984.465	1491.62
984.687	1534.62
984.91	1547.62
985.132	1537.62
985.354	1531.62
985.577	1512.62
985.799	1525.62
986.021	1448.62
986.243	1448.62
986.465	1447.62
986.687	1517.62
986.909	1527.62
987.131	1481.62
987.353	1437.62
987.575	1474.62
987.797	1419.62
988.019	1368.62
988.241	1438.62
988.462	1403.62
988.684	1453.62
988.906	1493.62
989.127	1502.62
989.349	1383.62
989.57	1423.62
989.792	1448.62
990.013	1459.62
990.234	1453.62
990.456	1467.62
990.677	1460.62
990.898	1391.62
991.119	1411.62
991.341	1420.62
991.562	1379.62
991.783	1424.62
992.004	1334.62
992.225	1337.62
992.446	1391.62
992.667	1297.62
992.887	1395.62
993.108	1306.62
993.329	1408.62
993.55	1384.62
993.77	1300.62
993.991	1321.62
994.212	1361.62
994.432	1338.62
994.653	1340.62
994.873	1345.62
995.093	1224.62
995.314	1287.62
995.534	1344.62
995.754	1378.62
995.975	1373.62
996.195	1285.62
996.415	1327.62
996.635	1309.62
996.855	1302.62
997.075	1280.62
997.295	1280.62
997.515	1232.62
997.735	1310.62
997.955	1267.62
998.174	1281.62
998.394	1257.62
998.614	1285.62
998.834	1240.62
999.053	1326.62
999.273	1284.62
999.492	1317.62
999.712	1267.62
999.931	1254.62
1000.151	1303.62
1000.37	1281.62
1000.589	1337.62
1000.809	1248.62
1001.028	1367.62
1001.247	1289.62
1001.466	1201.62
1001.685	1342.62
1001.904	1291.62
1002.123	1259.62
1002.342	1259.62
1002.561	1219.62
1002.78	1253.62
1002.999	1278.62
1003.218	1247.62
1003.436	1242.62
1003.655	1305.62
1003.874	1235.62
1004.092	1231.62
1004.311	1267.62
1004.53	1243.62
1004.748	1323.62
1004.966	1238.62
1005.185	1293.62
1005.403	1288.62
1005.622	1267.62
1005.84	1311.62
1006.058	1239.62
1006.276	1265.62
1006.494	1629.62
1006.712	1244.62
1006.931	1338.62
1007.149	1243.62
1007.367	1209.62
1007.584	1239.62
1007.802	1270.62
1008.02	1236.62
1008.238	1297.62
1008.456	1285.62
1008.673	1168.62
1008.891	1268.62
1009.109	1218.62
1009.326	1260.62
1009.544	1339.62
1009.761	1214.62
1009.979	1321.62
1010.196	1296.62
1010.413	1368.62
1010.631	1364.62
1010.848	1398.62
1011.065	1406.62
1011.282	1334.62
1011.5	1278.62
1011.717	1379.62
1011.934	1343.62
1012.151	1347.62
1012.368	1344.62
1012.585	1290.62
1012.801	1300.62
1013.018	1299.62
1013.235	1265.62
1013.452	1264.62
1013.669	1281.62
1013.885	1255.62
1014.102	1314.62
1014.318	1239.62
1014.535	1214.62
1014.751	1271.62
1014.968	1263.62
1015.184	1273.62
1015.401	1200.62
1015.617	1231.62
1015.833	1194.62
1016.049	1191.62
1016.266	1173.62
1016.482	1201.62
1016.698	1135.62
1016.914	1180.62
1017.13	1132.62
1017.346	1123.62
1017.562	1170.62
1017.778	1128.62
1017.993	1099.62
1018.209	1149.62
1018.425	1132.62
1018.641	1088.62
1018.856	1095.62
1019.072	1102.62
1019.288	1144.62
1019.503	1088.62
1019.719	1006.62
1019.934	1046.62
1020.149	1108.62
1020.365	1034.62
1020.58	1008.62
1020.795	1069.62
1021.011	998.62
1021.226	1000.62
1021.441	1031.62
1021.656	973.62
1021.871	905.62
1022.086	923.62
1022.301	903.62
1022.516	920.62
1022.731	994.62
1022.946	867.62
1023.16	880.62
1023.375	868.62
1023.59	839.62
1023.804	810.62
1024.019	915.62
1024.234	785.62
1024.448	847.62
1024.663	753.62
1024.877	775.62
1025.092	823.62
1025.306	831.62
1025.52	738.62
1025.734	809.62
1025.949	764.62
1026.163	750.62
1026.377	683.62
1026.591	730.62
1026.805	654.62
1027.019	660.62
1027.233	614.62
1027.447	601.62
1027.661	680.62
1027.875	627.62
1028.088	661.62
1028.302	562.62
1028.516	580.62
1028.73	584.62
1028.943	574.62
1029.157	532.62
1029.37	502.62
1029.584	-2.38
1029.797	-0.38
1030.011	-2.38
1030.224	-0.38
