Data from QEP037381__216__14-30-48-753.txt Node

Date: Fri Apr 28 14:30:48 EDT 2023
User: dcclab
Spectrometer: QEP03738
Trigger mode: 4
Integration Time (sec): 1.000000E1
Scans to average: 1
Electric dark correction enabled: true
Nonlinearity correction enabled: false
Boxcar width: 0
XAxis mode: Wavelengths
Number of Pixels in Spectrum: 1044
>>>>>Begin Spectral Data<<<<<
784.041	13.88
784.3	2.88
784.558	-0.12
784.817	-6.12
785.075	71244.88
785.334	14324.88
785.592	7527.88
785.851	5258.88
786.109	3972.88
786.368	3115.88
786.626	2577.88
786.884	2148.88
787.143	1796.88
787.401	1467.88
787.659	1325.88
787.917	1149.88
788.175	1052.88
788.433	970.88
788.691	831.88
788.949	790.88
789.207	748.88
789.465	655.88
789.723	632.88
789.98	593.88
790.238	621.88
790.496	577.88
790.753	585.88
791.011	626.88
791.268	547.88
791.526	536.88
791.783	531.88
792.041	538.88
792.298	454.88
792.556	521.88
792.813	490.88
793.07	474.88
793.327	458.88
793.584	547.88
793.841	469.88
794.099	483.88
794.356	556.88
794.613	446.88
794.869	487.88
795.126	462.88
795.383	435.88
795.64	469.88
795.897	420.88
796.153	481.88
796.41	467.88
796.667	456.88
796.923	466.88
797.18	469.88
797.436	487.88
797.693	448.88
797.949	508.88
798.206	540.88
798.462	465.88
798.718	521.88
798.974	503.88
799.231	556.88
799.487	539.88
799.743	568.88
799.999	615.88
800.255	609.88
800.511	586.88
800.767	653.88
801.023	660.88
801.279	720.88
801.534	810.88
801.79	879.88
802.046	1004.88
802.302	1211.88
802.557	1515.88
802.813	2006.88
803.068	2736.88
803.324	4002.88
803.579	5720.88
803.835	8030.88
804.09	10962.88
804.345	13906.88
804.601	16982.88
804.856	19548.88
805.111	21548.88
805.366	22867.88
805.621	23861.88
805.876	24490.88
806.131	24911.88
806.386	25322.88
806.641	25640.88
806.896	26097.88
807.151	26610.88
807.406	26782.88
807.661	27240.88
807.915	27735.88
808.17	28104.88
808.425	28523.88
808.679	28708.88
808.934	29184.88
809.188	29461.88
809.443	29628.88
809.697	30054.88
809.951	30151.88
810.206	30368.88
810.46	30674.88
810.714	30860.88
810.968	31014.88
811.223	31184.88
811.477	31405.88
811.731	31782.88
811.985	31871.88
812.239	31983.88
812.493	32205.88
812.747	32359.88
813	32338.88
813.254	32506.88
813.508	32701.88
813.762	32751.88
814.015	32712.88
814.269	33213.88
814.522	33386.88
814.776	33654.88
815.03	34068.88
815.283	34414.88
815.536	34951.88
815.79	35464.88
816.043	35835.88
816.296	36213.88
816.55	36738.88
816.803	36936.88
817.056	37543.88
817.309	37815.88
817.562	38155.88
817.815	38530.88
818.068	38758.88
818.321	39239.88
818.574	39783.88
818.827	40301.88
819.079	40810.88
819.332	41497.88
819.585	42004.88
819.838	42343.88
820.09	42717.88
820.343	43006.88
820.595	43216.88
820.848	43499.88
821.1	43702.88
821.353	43621.88
821.605	43644.88
821.857	43480.88
822.11	43467.88
822.362	43297.88
822.614	43129.88
822.866	43316.88
823.118	43102.88
823.37	43235.88
823.622	43498.88
823.874	43468.88
824.126	43650.88
824.378	43719.88
824.63	43898.88
824.882	43881.88
825.134	43894.88
825.385	43883.88
825.637	43684.88
825.888	43613.88
826.14	43375.88
826.392	43254.88
826.643	42910.88
826.895	42812.88
827.146	42706.88
827.397	42552.88
827.649	42553.88
827.9	42600.88
828.151	42514.88
828.402	42689.88
828.653	42675.88
828.905	42932.88
829.156	42931.88
829.407	42574.88
829.658	42830.88
829.909	42743.88
830.159	42645.88
830.41	42316.88
830.661	42127.88
830.912	41945.88
831.162	41814.88
831.413	41692.88
831.664	41698.88
831.914	41595.88
832.165	41643.88
832.415	41472.88
832.666	41410.88
832.916	41394.88
833.167	41390.88
833.417	41393.88
833.667	41089.88
833.917	40965.88
834.168	40939.88
834.418	40737.88
834.668	40458.88
834.918	40267.88
835.168	40286.88
835.418	40154.88
835.668	39981.88
835.918	39926.88
836.167	39671.88
836.417	39633.88
836.667	39458.88
836.917	39409.88
837.166	39462.88
837.416	39488.88
837.666	39352.88
837.915	39226.88
838.165	39005.88
838.414	39030.88
838.663	38786.88
838.913	38818.88
839.162	38348.88
839.411	38655.88
839.661	38392.88
839.91	38172.88
840.159	38319.88
840.408	38180.88
840.657	38166.88
840.906	38108.88
841.155	38069.88
841.404	37935.88
841.653	38117.88
841.902	38006.88
842.15	38109.88
842.399	38097.88
842.648	37766.88
842.897	37823.88
843.145	37588.88
843.394	37455.88
843.642	37121.88
843.891	36964.88
844.139	36830.88
844.388	36610.88
844.636	36461.88
844.884	36413.88
845.133	36192.88
845.381	36077.88
845.629	36185.88
845.877	36144.88
846.125	36044.88
846.373	35839.88
846.621	35755.88
846.869	35575.88
847.117	35511.88
847.365	35440.88
847.613	35151.88
847.861	34941.88
848.108	34916.88
848.356	34911.88
848.604	34711.88
848.851	34753.88
849.099	34708.88
849.346	34886.88
849.594	35025.88
849.841	35004.88
850.089	35176.88
850.336	35039.88
850.583	34939.88
850.831	34711.88
851.078	34685.88
851.325	34442.88
851.572	34373.88
851.819	33938.88
852.066	33433.88
852.313	33106.88
852.56	32935.88
852.807	32582.88
853.054	32628.88
853.301	32529.88
853.548	32541.88
853.794	32756.88
854.041	32665.88
854.288	32831.88
854.534	33253.88
854.781	33194.88
855.028	33031.88
855.274	32878.88
855.52	32744.88
855.767	32630.88
856.013	32546.88
856.26	32650.88
856.506	32080.88
856.752	32083.88
856.998	31992.88
857.244	32024.88
857.49	32224.88
857.736	32296.88
857.982	32178.88
858.228	32069.88
858.474	31992.88
858.72	31655.88
858.966	31333.88
859.212	31166.88
859.458	30706.88
859.703	30393.88
859.949	30178.88
860.195	30060.88
860.44	29889.88
860.686	29774.88
860.931	29708.88
861.177	29504.88
861.422	29316.88
861.667	29368.88
861.913	29234.88
862.158	29315.88
862.403	29532.88
862.648	29537.88
862.893	29513.88
863.138	29388.88
863.384	29320.88
863.629	29324.88
863.873	29148.88
864.118	28883.88
864.363	28793.88
864.608	28717.88
864.853	28455.88
865.098	28243.88
865.342	28235.88
865.587	27942.88
865.832	28098.88
866.076	27908.88
866.321	27913.88
866.565	27673.88
866.81	27628.88
867.054	27662.88
867.298	27535.88
867.543	27472.88
867.787	27449.88
868.031	27253.88
868.275	27290.88
868.519	27210.88
868.764	27129.88
869.008	27141.88
869.252	27133.88
869.496	26914.88
869.739	26915.88
869.983	26852.88
870.227	26775.88
870.471	26732.88
870.715	26774.88
870.958	26824.88
871.202	26695.88
871.446	26801.88
871.689	26785.88
871.933	26772.88
872.176	26893.88
872.42	26644.88
872.663	26554.88
872.906	26523.88
873.15	26443.88
873.393	26422.88
873.636	26158.88
873.879	25821.88
874.122	25676.88
874.366	25191.88
874.609	25109.88
874.852	24961.88
875.095	24824.88
875.337	24670.88
875.58	24567.88
875.823	24467.88
876.066	24554.88
876.309	24383.88
876.551	24139.88
876.794	24167.88
877.037	24120.88
877.279	23963.88
877.522	24057.88
877.764	24195.88
878.007	23954.88
878.249	24060.88
878.491	23848.88
878.734	23832.88
878.976	23870.88
879.218	23732.88
879.46	23467.88
879.702	23409.88
879.945	23171.88
880.187	22909.88
880.429	22809.88
880.671	22675.88
880.912	22576.88
881.154	22598.88
881.396	22452.88
881.638	22523.88
881.88	22483.88
882.121	22309.88
882.363	22421.88
882.605	22355.88
882.846	22234.88
883.088	22030.88
883.329	22002.88
883.571	22043.88
883.812	22187.88
884.053	22460.88
884.295	22586.88
884.536	22698.88
884.777	22575.88
885.018	22330.88
885.259	22387.88
885.5	22140.88
885.742	22304.88
885.982	22146.88
886.223	21896.88
886.464	21817.88
886.705	21507.88
886.946	21538.88
887.187	21166.88
887.428	21201.88
887.668	20819.88
887.909	20602.88
888.15	20357.88
888.39	20288.88
888.631	20242.88
888.871	20025.88
889.111	19867.88
889.352	19709.88
889.592	19496.88
889.833	19417.88
890.073	19242.88
890.313	19205.88
890.553	18956.88
890.793	18883.88
891.033	18851.88
891.273	18714.88
891.513	18678.88
891.753	18650.88
891.993	18539.88
892.233	18623.88
892.473	18717.88
892.713	18658.88
892.952	18591.88
893.192	18667.88
893.432	18604.88
893.671	18422.88
893.911	18465.88
894.15	18244.88
894.39	18095.88
894.629	18009.88
894.869	17909.88
895.108	17824.88
895.347	17689.88
895.587	17531.88
895.826	17541.88
896.065	17497.88
896.304	17450.88
896.543	17418.88
896.782	17302.88
897.021	17252.88
897.26	17154.88
897.499	17260.88
897.738	17160.88
897.977	17001.88
898.216	16914.88
898.454	16712.88
898.693	16649.88
898.932	16621.88
899.17	16431.88
899.409	16428.88
899.647	16347.88
899.886	16250.88
900.124	16301.88
900.363	16296.88
900.601	16268.88
900.839	16395.88
901.078	16300.88
901.316	16277.88
901.554	16321.88
901.792	16309.88
902.03	16250.88
902.268	16325.88
902.506	16293.88
902.744	16169.88
902.982	16048.88
903.22	15791.88
903.458	15653.88
903.695	15595.88
903.933	15359.88
904.171	15056.88
904.409	14835.88
904.646	14796.88
904.884	14617.88
905.121	14495.88
905.359	14288.88
905.596	14232.88
905.833	14104.88
906.071	14133.88
906.308	14069.88
906.545	14071.88
906.783	13852.88
907.02	13834.88
907.257	13789.88
907.494	13848.88
907.731	13879.88
907.968	13741.88
908.205	13708.88
908.442	13547.88
908.679	13576.88
908.915	13342.88
909.152	13285.88
909.389	13061.88
909.626	13076.88
909.862	12905.88
910.099	12944.88
910.335	12827.88
910.572	12731.88
910.808	12800.88
911.045	12707.88
911.281	12595.88
911.518	12656.88
911.754	12542.88
911.99	12384.88
912.226	12380.88
912.463	12217.88
912.699	12136.88
912.935	12072.88
913.171	11964.88
913.407	11889.88
913.643	11820.88
913.879	11612.88
914.114	11558.88
914.35	11442.88
914.586	11375.88
914.822	11248.88
915.057	11246.88
915.293	11044.88
915.529	10978.88
915.764	11037.88
916	11072.88
916.235	11027.88
916.471	10973.88
916.706	10870.88
916.941	10886.88
917.177	10852.88
917.412	10944.88
917.647	10854.88
917.882	10774.88
918.117	10863.88
918.352	10702.88
918.588	10690.88
918.823	10564.88
919.057	10451.88
919.292	10305.88
919.527	10343.88
919.762	10184.88
919.997	10082.88
920.232	9883.88
920.466	9876.88
920.701	9667.88
920.935	9678.88
921.17	9670.88
921.405	9606.88
921.639	9571.88
921.873	9547.88
922.108	9448.88
922.342	9506.88
922.576	9350.88
922.811	9395.88
923.045	9406.88
923.279	9369.88
923.513	9152.88
923.747	9234.88
923.981	9173.88
924.215	9097.88
924.449	8992.88
924.683	8929.88
924.917	8862.88
925.151	8828.88
925.385	8925.88
925.618	8837.88
925.852	8725.88
926.086	8687.88
926.319	8721.88
926.553	8716.88
926.786	8729.88
927.02	8674.88
927.253	8662.88
927.486	8656.88
927.72	8582.88
927.953	8537.88
928.186	8515.88
928.42	8534.88
928.653	8443.88
928.886	8431.88
929.119	8426.88
929.352	8359.88
929.585	8271.88
929.818	8198.88
930.051	8161.88
930.284	8102.88
930.516	7998.88
930.749	7952.88
930.982	7903.88
931.215	7958.88
931.447	7790.88
931.68	7868.88
931.912	7768.88
932.145	7828.88
932.377	7769.88
932.61	7931.88
932.842	7674.88
933.074	7738.88
933.307	7698.88
933.539	7835.88
933.771	7807.88
934.003	7766.88
934.236	7863.88
934.468	7868.88
934.7	7806.88
934.932	7823.88
935.164	7803.88
935.395	7792.88
935.627	7810.88
935.859	7701.88
936.091	7571.88
936.323	7546.88
936.554	7458.88
936.786	7422.88
937.017	7291.88
937.249	7316.88
937.481	7270.88
937.712	7326.88
937.943	7286.88
938.175	7292.88
938.406	7228.88
938.637	7294.88
938.869	7202.88
939.1	7252.88
939.331	7205.88
939.562	7229.88
939.793	7236.88
940.024	7282.88
940.255	7407.88
940.486	7711.88
940.717	8422.88
940.948	9147.88
941.179	9097.88
941.409	8705.88
941.64	8219.88
941.871	7707.88
942.102	7363.88
942.332	7127.88
942.563	7039.88
942.793	6982.88
943.024	6872.88
943.254	6857.88
943.484	6881.88
943.715	6855.88
943.945	6807.88
944.175	6744.88
944.405	6759.88
944.636	6707.88
944.866	6775.88
945.096	6758.88
945.326	6628.88
945.556	6608.88
945.786	6703.88
946.016	6529.88
946.245	6535.88
946.475	6468.88
946.705	6416.88
946.935	6428.88
947.164	6352.88
947.394	6308.88
947.624	6291.88
947.853	6305.88
948.083	6254.88
948.312	6249.88
948.542	6146.88
948.771	6151.88
949	6111.88
949.23	6146.88
949.459	6122.88
949.688	6141.88
949.917	6112.88
950.146	6127.88
950.375	6148.88
950.604	6027.88
950.833	6154.88
951.062	6164.88
951.291	6011.88
951.52	5979.88
951.749	5975.88
951.978	6020.88
952.206	5925.88
952.435	5918.88
952.664	5884.88
952.892	5946.88
953.121	5871.88
953.349	5889.88
953.578	5810.88
953.806	5738.88
954.035	5771.88
954.263	5744.88
954.491	5660.88
954.719	5691.88
954.948	5621.88
955.176	5588.88
955.404	5509.88
955.632	5577.88
955.86	5530.88
956.088	5528.88
956.316	5519.88
956.544	5518.88
956.772	5432.88
956.999	5379.88
957.227	5390.88
957.455	5293.88
957.683	5317.88
957.91	5250.88
958.138	5237.88
958.365	5217.88
958.593	5228.88
958.82	5096.88
959.048	5224.88
959.275	5183.88
959.502	5127.88
959.73	5096.88
959.957	5135.88
960.184	5126.88
960.411	5060.88
960.638	5126.88
960.865	5081.88
961.092	5083.88
961.319	4974.88
961.546	5072.88
961.773	5064.88
962	5039.88
962.227	5054.88
962.454	4954.88
962.68	4952.88
962.907	4952.88
963.134	4830.88
963.36	4886.88
963.587	4914.88
963.813	4789.88
964.04	4794.88
964.266	4725.88
964.493	4761.88
964.719	4724.88
964.945	4734.88
965.171	4608.88
965.398	4650.88
965.624	4618.88
965.85	4558.88
966.076	4556.88
966.302	4578.88
966.528	4524.88
966.754	4521.88
966.98	4532.88
967.206	4460.88
967.431	4449.88
967.657	4538.88
967.883	4465.88
968.109	4408.88
968.334	4354.88
968.56	4382.88
968.785	4351.88
969.011	4316.88
969.236	4373.88
969.462	4307.88
969.687	4281.88
969.912	4321.88
970.138	4343.88
970.363	4290.88
970.588	4279.88
970.813	4242.88
971.038	4194.88
971.263	4199.88
971.488	4195.88
971.713	4192.88
971.938	4178.88
972.163	4061.88
972.388	4093.88
972.613	4018.88
972.838	4023.88
973.062	4009.88
973.287	4024.88
973.512	3937.88
973.736	3981.88
973.961	3976.88
974.185	3899.88
974.41	3908.88
974.634	3770.88
974.858	3836.88
975.083	3853.88
975.307	3858.88
975.531	3792.88
975.755	3718.88
975.98	3707.88
976.204	3655.88
976.428	3647.88
976.652	3629.88
976.876	3625.88
977.1	3641.88
977.324	3596.88
977.547	3649.88
977.771	3635.88
977.995	3599.88
978.219	3519.88
978.442	3637.88
978.666	3558.88
978.89	3538.88
979.113	3522.88
979.337	3541.88
979.56	3455.88
979.783	3551.88
980.007	3428.88
980.23	3460.88
980.453	3408.88
980.677	3400.88
980.9	3412.88
981.123	3309.88
981.346	3376.88
981.569	3392.88
981.792	3406.88
982.015	3320.88
982.238	3287.88
982.461	3294.88
982.684	3252.88
982.907	3212.88
983.129	3160.88
983.352	3170.88
983.575	3189.88
983.797	3180.88
984.02	3134.88
984.242	3096.88
984.465	3132.88
984.687	3142.88
984.91	3164.88
985.132	3112.88
985.354	3102.88
985.577	3051.88
985.799	3038.88
986.021	2943.88
986.243	2980.88
986.465	3001.88
986.687	3049.88
986.909	3029.88
987.131	2984.88
987.353	2950.88
987.575	2991.88
987.797	2929.88
988.019	2880.88
988.241	2921.88
988.462	2857.88
988.684	2928.88
988.906	2960.88
989.127	2931.88
989.349	2844.88
989.57	2842.88
989.792	2903.88
990.013	2871.88
990.234	2874.88
990.456	2894.88
990.677	2858.88
990.898	2801.88
991.119	2788.88
991.341	2808.88
991.562	2721.88
991.783	2786.88
992.004	2676.88
992.225	2671.88
992.446	2702.88
992.667	2633.88
992.887	2703.88
993.108	2570.88
993.329	2716.88
993.55	2654.88
993.77	2581.88
993.991	2556.88
994.212	2584.88
994.432	2540.88
994.653	2599.88
994.873	2533.88
995.093	2438.88
995.314	2491.88
995.534	2520.88
995.754	2569.88
995.975	2566.88
996.195	2450.88
996.415	2505.88
996.635	2451.88
996.855	2511.88
997.075	2464.88
997.295	2462.88
997.515	2438.88
997.735	2484.88
997.955	2409.88
998.174	2418.88
998.394	2385.88
998.614	2442.88
998.834	2355.88
999.053	2428.88
999.273	2409.88
999.492	2458.88
999.712	2368.88
999.931	2322.88
1000.151	2365.88
1000.37	2327.88
1000.589	2409.88
1000.809	2298.88
1001.028	2395.88
1001.247	2324.88
1001.466	2193.88
1001.685	2361.88
1001.904	2258.88
1002.123	2270.88
1002.342	2237.88
1002.561	2199.88
1002.78	2219.88
1002.999	2272.88
1003.218	2206.88
1003.436	2138.88
1003.655	2219.88
1003.874	2148.88
1004.092	2172.88
1004.311	2229.88
1004.53	2136.88
1004.748	2219.88
1004.966	2135.88
1005.185	2224.88
1005.403	2180.88
1005.622	2137.88
1005.84	2245.88
1006.058	2097.88
1006.276	2135.88
1006.494	2482.88
1006.712	2123.88
1006.931	2172.88
1007.149	2106.88
1007.367	2104.88
1007.584	2112.88
1007.802	2177.88
1008.02	2123.88
1008.238	2173.88
1008.456	2190.88
1008.673	2091.88
1008.891	2179.88
1009.109	2126.88
1009.326	2135.88
1009.544	2266.88
1009.761	2170.88
1009.979	2281.88
1010.196	2296.88
1010.413	2445.88
1010.631	2439.88
1010.848	2483.88
1011.065	2485.88
1011.282	2436.88
1011.5	2353.88
1011.717	2499.88
1011.934	2404.88
1012.151	2424.88
1012.368	2427.88
1012.585	2325.88
1012.801	2400.88
1013.018	2356.88
1013.235	2334.88
1013.452	2314.88
1013.669	2347.88
1013.885	2355.88
1014.102	2379.88
1014.318	2364.88
1014.535	2314.88
1014.751	2353.88
1014.968	2314.88
1015.184	2306.88
1015.401	2256.88
1015.617	2269.88
1015.833	2168.88
1016.049	2187.88
1016.266	2143.88
1016.482	2159.88
1016.698	2104.88
1016.914	2101.88
1017.13	2062.88
1017.346	2033.88
1017.562	2109.88
1017.778	2001.88
1017.993	1964.88
1018.209	2055.88
1018.425	1988.88
1018.641	1962.88
1018.856	1923.88
1019.072	1965.88
1019.288	1994.88
1019.503	1967.88
1019.719	1879.88
1019.934	1897.88
1020.149	1957.88
1020.365	1881.88
1020.58	1819.88
1020.795	1890.88
1021.011	1784.88
1021.226	1780.88
1021.441	1779.88
1021.656	1697.88
1021.871	1614.88
1022.086	1607.88
1022.301	1598.88
1022.516	1584.88
1022.731	1655.88
1022.946	1533.88
1023.16	1520.88
1023.375	1443.88
1023.59	1439.88
1023.804	1392.88
1024.019	1504.88
1024.234	1379.88
1024.448	1390.88
1024.663	1335.88
1024.877	1340.88
1025.092	1362.88
1025.306	1338.88
1025.52	1261.88
1025.734	1299.88
1025.949	1205.88
1026.163	1206.88
1026.377	1133.88
1026.591	1175.88
1026.805	1103.88
1027.019	1102.88
1027.233	1026.88
1027.447	977.88
1027.661	1094.88
1027.875	1014.88
1028.088	1023.88
1028.302	946.88
1028.516	912.88
1028.73	929.88
1028.943	899.88
1029.157	820.88
1029.37	797.88
1029.584	-1.12
1029.797	-5.12
1030.011	-4.12
1030.224	-0.12
