Data from QEP037381__222__14-31-48-754.txt Node

Date: Fri Apr 28 14:31:48 EDT 2023
User: dcclab
Spectrometer: QEP03738
Trigger mode: 4
Integration Time (sec): 1.000000E1
Scans to average: 1
Electric dark correction enabled: true
Nonlinearity correction enabled: false
Boxcar width: 0
XAxis mode: Wavelengths
Number of Pixels in Spectrum: 1044
>>>>>Begin Spectral Data<<<<<
784.041	13
784.3	-1
784.558	-4
784.817	-3
785.075	77167
785.334	15133
785.592	7788
785.851	5477
786.109	4121
786.368	3253
786.626	2641
786.884	2184
787.143	1845
787.401	1511
787.659	1395
787.917	1206
788.175	1099
788.433	993
788.691	866
788.949	797
789.207	748
789.465	672
789.723	643
789.98	586
790.238	608
790.496	582
790.753	547
791.011	611
791.268	545
791.526	523
791.783	548
792.041	527
792.298	439
792.556	528
792.813	483
793.07	461
793.327	455
793.584	539
793.841	443
794.099	478
794.356	515
794.613	408
794.869	467
795.126	430
795.383	416
795.64	437
795.897	384
796.153	440
796.41	433
796.667	413
796.923	421
797.18	397
797.436	461
797.693	423
797.949	464
798.206	497
798.462	392
798.718	457
798.974	452
799.231	502
799.487	466
799.743	481
799.999	510
800.255	515
800.511	493
800.767	528
801.023	525
801.279	567
801.534	599
801.79	658
802.046	691
802.302	866
802.557	994
802.813	1237
803.068	1583
803.324	2279
803.579	3138
803.835	4344
804.09	5920
804.345	7678
804.601	9310
804.856	10944
805.111	12170
805.366	13017
805.621	13411
805.876	13771
806.131	14076
806.386	14195
806.641	14245
806.896	14559
807.151	14759
807.406	14893
807.661	15047
807.915	15393
808.17	15602
808.425	15805
808.679	15797
808.934	16125
809.188	16267
809.443	16354
809.697	16505
809.951	16616
810.206	16702
810.46	16896
810.714	17016
810.968	17087
811.223	17155
811.477	17299
811.731	17384
811.985	17517
812.239	17532
812.493	17643
812.747	17793
813	17767
813.254	17793
813.508	17995
813.762	17921
814.015	17981
814.269	18108
814.522	18293
814.776	18392
815.03	18583
815.283	18806
815.536	19170
815.79	19355
816.043	19583
816.296	19781
816.55	19862
816.803	20050
817.056	20344
817.309	20558
817.562	20731
817.815	20939
818.068	21115
818.321	21258
818.574	21549
818.827	21816
819.079	21958
819.332	22526
819.585	22673
819.838	22973
820.09	22995
820.343	23208
820.595	23351
820.848	23536
821.1	23565
821.353	23525
821.605	23535
821.857	23532
822.11	23423
822.362	23381
822.614	23332
822.866	23372
823.118	23348
823.37	23480
823.622	23647
823.874	23584
824.126	23570
824.378	23693
824.63	23740
824.882	23791
825.134	23885
825.385	23846
825.637	23762
825.888	23650
826.14	23550
826.392	23421
826.643	23347
826.895	23287
827.146	23105
827.397	23082
827.649	23067
827.9	22995
828.151	23070
828.402	23199
828.653	23290
828.905	23111
829.156	23314
829.407	23157
829.658	23195
829.909	23148
830.159	23071
830.41	22957
830.661	22828
830.912	22716
831.162	22560
831.413	22483
831.664	22514
831.914	22525
832.165	22640
832.415	22618
832.666	22519
832.916	22542
833.167	22492
833.417	22481
833.667	22313
833.917	22252
834.168	22247
834.418	22177
834.668	22175
834.918	21970
835.168	21854
835.418	21786
835.668	21609
835.918	21779
836.167	21643
836.417	21645
836.667	21596
836.917	21606
837.166	21398
837.416	21419
837.666	21423
837.915	21340
838.165	21280
838.414	21124
838.663	21157
838.913	21040
839.162	20893
839.411	21097
839.661	20789
839.91	20786
840.159	20782
840.408	20685
840.657	20840
840.906	20813
841.155	20632
841.404	20759
841.653	20750
841.902	20760
842.15	20800
842.399	20752
842.648	20574
842.897	20429
843.145	20420
843.394	20334
843.642	20249
843.891	20208
844.139	20059
844.388	19909
844.636	19772
844.884	19868
845.133	19749
845.381	19766
845.629	19763
845.877	19582
846.125	19625
846.373	19687
846.621	19553
846.869	19566
847.117	19401
847.365	19198
847.613	19190
847.861	19161
848.108	19193
848.356	19070
848.604	19033
848.851	19082
849.099	19029
849.346	19098
849.594	19220
849.841	19241
850.089	19231
850.336	19169
850.583	19182
850.831	19034
851.078	18891
851.325	18887
851.572	18808
851.819	18683
852.066	18236
852.313	18139
852.56	17890
852.807	17912
853.054	17858
853.301	17858
853.548	17857
853.794	18028
854.041	17997
854.288	18106
854.534	18257
854.781	18181
855.028	18015
855.274	18117
855.52	17881
855.767	17750
856.013	17753
856.26	17988
856.506	17605
856.752	17630
856.998	17584
857.244	17536
857.49	17697
857.736	17539
857.982	17630
858.228	17578
858.474	17463
858.72	17396
858.966	17281
859.212	17083
859.458	16966
859.703	16779
859.949	16610
860.195	16522
860.44	16386
860.686	16362
860.931	16253
861.177	16178
861.422	16102
861.667	16256
861.913	16081
862.158	16135
862.403	16215
862.648	16237
862.893	16342
863.138	16209
863.384	16178
863.629	16106
863.873	16143
864.118	15965
864.363	15860
864.608	15900
864.853	15757
865.098	15545
865.342	15616
865.587	15481
865.832	15474
866.076	15502
866.321	15392
866.565	15389
866.81	15201
867.054	15230
867.298	15172
867.543	15176
867.787	15163
868.031	15133
868.275	15038
868.519	15201
868.764	15042
869.008	15031
869.252	15100
869.496	14870
869.739	14902
869.983	14896
870.227	14818
870.471	14821
870.715	14819
870.958	14809
871.202	14695
871.446	14842
871.689	14765
871.933	14931
872.176	14811
872.42	14726
872.663	14740
872.906	14687
873.15	14649
873.393	14467
873.636	14400
873.879	14282
874.122	14220
874.366	13994
874.609	13900
874.852	13859
875.095	13724
875.337	13688
875.58	13628
875.823	13627
876.066	13635
876.309	13705
876.551	13521
876.794	13382
877.037	13474
877.279	13336
877.522	13377
877.764	13503
878.007	13369
878.249	13420
878.491	13282
878.734	13380
878.976	13400
879.218	13197
879.46	13191
879.702	13107
879.945	13012
880.187	12780
880.429	12755
880.671	12680
880.912	12678
881.154	12598
881.396	12535
881.638	12513
881.88	12577
882.121	12552
882.363	12419
882.605	12455
882.846	12414
883.088	12377
883.329	12249
883.571	12227
883.812	12241
884.053	12390
884.295	12511
884.536	12575
884.777	12457
885.018	12474
885.259	12299
885.5	12208
885.742	12429
885.982	12245
886.223	12156
886.464	12110
886.705	12038
886.946	12082
887.187	11830
887.428	11763
887.668	11619
887.909	11494
888.15	11390
888.39	11383
888.631	11330
888.871	11390
889.111	11184
889.352	11135
889.592	10982
889.833	10972
890.073	10872
890.313	10867
890.553	10696
890.793	10730
891.033	10674
891.273	10575
891.513	10602
891.753	10551
891.993	10536
892.233	10604
892.473	10621
892.713	10547
892.952	10498
893.192	10558
893.432	10490
893.671	10466
893.911	10472
894.15	10351
894.39	10331
894.629	10172
894.869	10178
895.108	10073
895.347	9999
895.587	9941
895.826	9942
896.065	9914
896.304	9911
896.543	9911
896.782	9770
897.021	9823
897.26	9751
897.499	9801
897.738	9800
897.977	9621
898.216	9599
898.454	9444
898.693	9424
898.932	9385
899.17	9305
899.409	9280
899.647	9218
899.886	9236
900.124	9217
900.363	9177
900.601	9209
900.839	9252
901.078	9244
901.316	9177
901.554	9250
901.792	9234
902.03	9212
902.268	9187
902.506	9232
902.744	9033
902.982	9095
903.22	8975
903.458	8879
903.695	8896
903.933	8690
904.171	8539
904.409	8474
904.646	8406
904.884	8344
905.121	8325
905.359	8220
905.596	8137
905.833	8042
906.071	8024
906.308	8042
906.545	8029
906.783	7946
907.02	7933
907.257	7917
907.494	7953
907.731	7887
907.968	7944
908.205	7855
908.442	7755
908.679	7722
908.915	7651
909.152	7621
909.389	7479
909.626	7515
909.862	7457
910.099	7422
910.335	7434
910.572	7322
910.808	7358
911.045	7345
911.281	7245
911.518	7303
911.754	7187
911.99	7204
912.226	7156
912.463	7032
912.699	6975
912.935	6998
913.171	6917
913.407	6769
913.643	6827
913.879	6754
914.114	6701
914.35	6597
914.586	6574
914.822	6498
915.057	6511
915.293	6375
915.529	6348
915.764	6365
916	6376
916.235	6400
916.471	6291
916.706	6289
916.941	6336
917.177	6313
917.412	6317
917.647	6296
917.882	6235
918.117	6257
918.352	6229
918.588	6240
918.823	6095
919.057	6100
919.292	5970
919.527	5992
919.762	5873
919.997	5875
920.232	5807
920.466	5750
920.701	5644
920.935	5680
921.17	5580
921.405	5525
921.639	5603
921.873	5506
922.108	5531
922.342	5548
922.576	5480
922.811	5452
923.045	5503
923.279	5518
923.513	5331
923.747	5401
923.981	5370
924.215	5307
924.449	5265
924.683	5244
924.917	5155
925.151	5159
925.385	5240
925.618	5144
925.852	5174
926.086	5030
926.319	5139
926.553	5092
926.786	5117
927.02	5104
927.253	5081
927.486	5019
927.72	5035
927.953	5018
928.186	4982
928.42	5042
928.653	4920
928.886	4903
929.119	4911
929.352	4899
929.585	4853
929.818	4826
930.051	4793
930.284	4744
930.516	4650
930.749	4689
930.982	4638
931.215	4678
931.447	4600
931.68	4596
931.912	4545
932.145	4518
932.377	4566
932.61	4673
932.842	4520
933.074	4575
933.307	4471
933.539	4586
933.771	4579
934.003	4539
934.236	4606
934.468	4652
934.7	4474
934.932	4483
935.164	4471
935.395	4436
935.627	4463
935.859	4481
936.091	4387
936.323	4432
936.554	4431
936.786	4378
937.017	4282
937.249	4338
937.481	4236
937.712	4326
937.943	4294
938.175	4241
938.406	4237
938.637	4309
938.869	4210
939.1	4265
939.331	4217
939.562	4269
939.793	4168
940.024	4264
940.255	4229
940.486	4164
940.717	4178
940.948	4117
941.179	4039
941.409	4112
941.64	4034
941.871	4071
942.102	4055
942.332	4066
942.563	4078
942.793	4111
943.024	4026
943.254	4011
943.484	4064
943.715	4069
943.945	4038
944.175	3986
944.405	3947
944.636	3985
944.866	4040
945.096	4021
945.326	3908
945.556	3958
945.786	3970
946.016	3932
946.245	3866
946.475	3834
946.705	3825
946.935	3840
947.164	3781
947.394	3750
947.624	3744
947.853	3779
948.083	3752
948.312	3724
948.542	3653
948.771	3637
949	3622
949.23	3638
949.459	3644
949.688	3723
949.917	3610
950.146	3673
950.375	3667
950.604	3587
950.833	3722
951.062	3614
951.291	3669
951.52	3557
951.749	3607
951.978	3545
952.206	3543
952.435	3562
952.664	3594
952.892	3533
953.121	3555
953.349	3559
953.578	3485
953.806	3484
954.035	3404
954.263	3471
954.491	3389
954.719	3440
954.948	3360
955.176	3364
955.404	3303
955.632	3342
955.86	3374
956.088	3349
956.316	3317
956.544	3344
956.772	3244
956.999	3246
957.227	3333
957.455	3221
957.683	3217
957.91	3164
958.138	3146
958.365	3185
958.593	3139
958.82	3144
959.048	3186
959.275	3111
959.502	3146
959.73	3056
959.957	3139
960.184	3103
960.411	3073
960.638	3157
960.865	3079
961.092	3109
961.319	2998
961.546	3146
961.773	3097
962	3020
962.227	3116
962.454	3028
962.68	3037
962.907	3027
963.134	2979
963.36	2950
963.587	2996
963.813	2931
964.04	2970
964.266	2859
964.493	2912
964.719	2907
964.945	2929
965.171	2846
965.398	2835
965.624	2866
965.85	2740
966.076	2779
966.302	2814
966.528	2764
966.754	2816
966.98	2804
967.206	2779
967.431	2716
967.657	2801
967.883	2789
968.109	2755
968.334	2696
968.56	2708
968.785	2700
969.011	2646
969.236	2764
969.462	2644
969.687	2630
969.912	2654
970.138	2694
970.363	2594
970.588	2620
970.813	2610
971.038	2592
971.263	2618
971.488	2628
971.713	2628
971.938	2596
972.163	2518
972.388	2523
972.613	2522
972.838	2519
973.062	2497
973.287	2516
973.512	2474
973.736	2493
973.961	2466
974.185	2418
974.41	2459
974.634	2395
974.858	2380
975.083	2430
975.307	2439
975.531	2389
975.755	2323
975.98	2320
976.204	2303
976.428	2256
976.652	2309
976.876	2247
977.1	2281
977.324	2241
977.547	2264
977.771	2271
977.995	2256
978.219	2189
978.442	2298
978.666	2240
978.89	2257
979.113	2209
979.337	2196
979.56	2163
979.783	2252
980.007	2154
980.23	2156
980.453	2154
980.677	2191
980.9	2149
981.123	2061
981.346	2165
981.569	2117
981.792	2143
982.015	2083
982.238	2053
982.461	2114
982.684	2018
982.907	2016
983.129	2011
983.352	2046
983.575	2010
983.797	2034
984.02	1972
984.242	2007
984.465	1996
984.687	2023
984.91	2015
985.132	2006
985.354	2027
985.577	1978
985.799	1982
986.021	1873
986.243	1900
986.465	1940
986.687	1952
986.909	2016
987.131	1944
987.353	1887
987.575	1923
987.797	1917
988.019	1824
988.241	1907
988.462	1849
988.684	1913
988.906	1948
989.127	1946
989.349	1841
989.57	1874
989.792	1918
990.013	1901
990.234	1915
990.456	1921
990.677	1887
990.898	1840
991.119	1823
991.341	1840
991.562	1792
991.783	1825
992.004	1759
992.225	1721
992.446	1818
992.667	1705
992.887	1778
993.108	1672
993.329	1810
993.55	1764
993.77	1671
993.991	1696
994.212	1716
994.432	1716
994.653	1727
994.873	1726
995.093	1564
995.314	1636
995.534	1704
995.754	1712
995.975	1713
996.195	1627
996.415	1686
996.635	1644
996.855	1641
997.075	1631
997.295	1617
997.515	1588
997.735	1665
997.955	1647
998.174	1613
998.394	1596
998.614	1653
998.834	1586
999.053	1660
999.273	1603
999.492	1648
999.712	1615
999.931	1582
1000.151	1623
1000.37	1601
1000.589	1646
1000.809	1551
1001.028	1648
1001.247	1620
1001.466	1516
1001.685	1642
1001.904	1585
1002.123	1570
1002.342	1575
1002.561	1514
1002.78	1550
1002.999	1624
1003.218	1579
1003.436	1517
1003.655	1560
1003.874	1488
1004.092	1534
1004.311	1583
1004.53	1508
1004.748	1621
1004.966	1514
1005.185	1585
1005.403	1559
1005.622	1511
1005.84	1592
1006.058	1495
1006.276	1517
1006.494	1898
1006.712	1531
1006.931	1577
1007.149	1483
1007.367	1493
1007.584	1511
1007.802	1550
1008.02	1498
1008.238	1591
1008.456	1570
1008.673	1414
1008.891	1528
1009.109	1493
1009.326	1520
1009.544	1608
1009.761	1487
1009.979	1569
1010.196	1579
1010.413	1630
1010.631	1660
1010.848	1676
1011.065	1662
1011.282	1604
1011.5	1578
1011.717	1674
1011.934	1593
1012.151	1640
1012.368	1579
1012.585	1557
1012.801	1584
1013.018	1566
1013.235	1528
1013.452	1550
1013.669	1558
1013.885	1522
1014.102	1567
1014.318	1542
1014.535	1493
1014.751	1523
1014.968	1505
1015.184	1549
1015.401	1444
1015.617	1488
1015.833	1450
1016.049	1433
1016.266	1428
1016.482	1427
1016.698	1374
1016.914	1425
1017.13	1383
1017.346	1361
1017.562	1423
1017.778	1346
1017.993	1310
1018.209	1382
1018.425	1361
1018.641	1321
1018.856	1306
1019.072	1326
1019.288	1380
1019.503	1327
1019.719	1209
1019.934	1234
1020.149	1320
1020.365	1252
1020.58	1222
1020.795	1258
1021.011	1216
1021.226	1208
1021.441	1253
1021.656	1170
1021.871	1098
1022.086	1120
1022.301	1092
1022.516	1082
1022.731	1171
1022.946	1054
1023.16	1058
1023.375	1012
1023.59	992
1023.804	978
1024.019	1078
1024.234	951
1024.448	978
1024.663	917
1024.877	927
1025.092	958
1025.306	965
1025.52	868
1025.734	971
1025.949	871
1026.163	871
1026.377	821
1026.591	851
1026.805	800
1027.019	781
1027.233	743
1027.447	712
1027.661	819
1027.875	748
1028.088	773
1028.302	679
1028.516	673
1028.73	679
1028.943	680
1029.157	638
1029.37	566
1029.584	-4
1029.797	-1
1030.011	-3
1030.224	3
