Data from QEP037381__247__14-35-58-755.txt Node

Date: Fri Apr 28 14:35:58 EDT 2023
User: dcclab
Spectrometer: QEP03738
Trigger mode: 4
Integration Time (sec): 1.000000E1
Scans to average: 1
Electric dark correction enabled: true
Nonlinearity correction enabled: false
Boxcar width: 0
XAxis mode: Wavelengths
Number of Pixels in Spectrum: 1044
>>>>>Begin Spectral Data<<<<<
784.041	10.75
784.3	0.75
784.558	-4.25
784.817	-3.25
785.075	85294.75
785.334	16323.75
785.592	8376.75
785.851	5836.75
786.109	4464.75
786.368	3463.75
786.626	2842.75
786.884	2331.75
787.143	1947.75
787.401	1640.75
787.659	1467.75
787.917	1239.75
788.175	1121.75
788.433	985.75
788.691	877.75
788.949	806.75
789.207	779.75
789.465	661.75
789.723	624.75
789.98	579.75
790.238	616.75
790.496	582.75
790.753	540.75
791.011	604.75
791.268	539.75
791.526	510.75
791.783	530.75
792.041	508.75
792.298	429.75
792.556	492.75
792.813	464.75
793.07	446.75
793.327	442.75
793.584	511.75
793.841	426.75
794.099	465.75
794.356	517.75
794.613	413.75
794.869	453.75
795.126	397.75
795.383	391.75
795.64	418.75
795.897	367.75
796.153	422.75
796.41	410.75
796.667	391.75
796.923	396.75
797.18	403.75
797.436	417.75
797.693	371.75
797.949	436.75
798.206	455.75
798.462	386.75
798.718	438.75
798.974	414.75
799.231	464.75
799.487	434.75
799.743	459.75
799.999	451.75
800.255	446.75
800.511	455.75
800.767	481.75
801.023	452.75
801.279	497.75
801.534	529.75
801.79	563.75
802.046	573.75
802.302	713.75
802.557	783.75
802.813	931.75
803.068	1149.75
803.324	1604.75
803.579	2157.75
803.835	2941.75
804.09	4003.75
804.345	5153.75
804.601	6334.75
804.856	7234.75
805.111	8127.75
805.366	8604.75
805.621	8952.75
805.876	9211.75
806.131	9273.75
806.386	9401.75
806.641	9568.75
806.896	9686.75
807.151	9847.75
807.406	9879.75
807.661	10022.75
807.915	10187.75
808.17	10393.75
808.425	10504.75
808.679	10522.75
808.934	10673.75
809.188	10704.75
809.443	10900.75
809.697	10970.75
809.951	11050.75
810.206	11035.75
810.46	11123.75
810.714	11212.75
810.968	11363.75
811.223	11297.75
811.477	11507.75
811.731	11492.75
811.985	11514.75
812.239	11541.75
812.493	11659.75
812.747	11724.75
813	11671.75
813.254	11850.75
813.508	11754.75
813.762	11907.75
814.015	11860.75
814.269	11927.75
814.522	12020.75
814.776	12169.75
815.03	12329.75
815.283	12428.75
815.536	12558.75
815.79	12800.75
816.043	12893.75
816.296	12995.75
816.55	13207.75
816.803	13221.75
817.056	13509.75
817.309	13568.75
817.562	13632.75
817.815	13755.75
818.068	13849.75
818.321	13936.75
818.574	14132.75
818.827	14284.75
819.079	14451.75
819.332	14792.75
819.585	14926.75
819.838	15133.75
820.09	15195.75
820.343	15352.75
820.595	15356.75
820.848	15439.75
821.1	15548.75
821.353	15443.75
821.605	15410.75
821.857	15510.75
822.11	15439.75
822.362	15378.75
822.614	15190.75
822.866	15369.75
823.118	15389.75
823.37	15433.75
823.622	15453.75
823.874	15572.75
824.126	15536.75
824.378	15562.75
824.63	15645.75
824.882	15714.75
825.134	15562.75
825.385	15672.75
825.637	15560.75
825.888	15581.75
826.14	15399.75
826.392	15344.75
826.643	15334.75
826.895	15250.75
827.146	15196.75
827.397	15171.75
827.649	15173.75
827.9	15149.75
828.151	15127.75
828.402	15171.75
828.653	15270.75
828.905	15229.75
829.156	15345.75
829.407	15217.75
829.658	15210.75
829.909	15345.75
830.159	15190.75
830.41	15054.75
830.661	14924.75
830.912	14896.75
831.162	14863.75
831.413	14785.75
831.664	14851.75
831.914	14812.75
832.165	14862.75
832.415	14930.75
832.666	14829.75
832.916	14755.75
833.167	14726.75
833.417	14748.75
833.667	14666.75
833.917	14686.75
834.168	14642.75
834.418	14655.75
834.668	14526.75
834.918	14412.75
835.168	14411.75
835.418	14375.75
835.668	14377.75
835.918	14400.75
836.167	14259.75
836.417	14164.75
836.667	14259.75
836.917	14177.75
837.166	14109.75
837.416	14148.75
837.666	14120.75
837.915	14038.75
838.165	14048.75
838.414	13925.75
838.663	13878.75
838.913	13942.75
839.162	13773.75
839.411	13863.75
839.661	13717.75
839.91	13751.75
840.159	13741.75
840.408	13798.75
840.657	13755.75
840.906	13757.75
841.155	13699.75
841.404	13733.75
841.653	13674.75
841.902	13620.75
842.15	13756.75
842.399	13601.75
842.648	13713.75
842.897	13657.75
843.145	13538.75
843.394	13402.75
843.642	13296.75
843.891	13372.75
844.139	13201.75
844.388	13159.75
844.636	13086.75
844.884	13091.75
845.133	13018.75
845.381	13028.75
845.629	13042.75
845.877	13020.75
846.125	12994.75
846.373	12967.75
846.621	12877.75
846.869	12870.75
847.117	12862.75
847.365	12734.75
847.613	12647.75
847.861	12659.75
848.108	12703.75
848.356	12637.75
848.604	12637.75
848.851	12653.75
849.099	12728.75
849.346	12660.75
849.594	12757.75
849.841	12736.75
850.089	12747.75
850.336	12758.75
850.583	12806.75
850.831	12621.75
851.078	12634.75
851.325	12470.75
851.572	12500.75
851.819	12483.75
852.066	12141.75
852.313	12040.75
852.56	11943.75
852.807	11908.75
853.054	11868.75
853.301	11912.75
853.548	11938.75
853.794	12012.75
854.041	12039.75
854.288	12040.75
854.534	12301.75
854.781	12053.75
855.028	11984.75
855.274	12017.75
855.52	11932.75
855.767	11843.75
856.013	11856.75
856.26	12125.75
856.506	11604.75
856.752	11701.75
856.998	11668.75
857.244	11701.75
857.49	11799.75
857.736	11739.75
857.982	11736.75
858.228	11714.75
858.474	11615.75
858.72	11629.75
858.966	11509.75
859.212	11395.75
859.458	11211.75
859.703	11186.75
859.949	11041.75
860.195	11039.75
860.44	10946.75
860.686	10910.75
860.931	10907.75
861.177	10741.75
861.422	10802.75
861.667	10791.75
861.913	10773.75
862.158	10782.75
862.403	10877.75
862.648	10839.75
862.893	10950.75
863.138	10887.75
863.384	10754.75
863.629	10802.75
863.873	10746.75
864.118	10773.75
864.363	10574.75
864.608	10585.75
864.853	10566.75
865.098	10467.75
865.342	10441.75
865.587	10349.75
865.832	10329.75
866.076	10337.75
866.321	10249.75
866.565	10197.75
866.81	10211.75
867.054	10276.75
867.298	10165.75
867.543	10110.75
867.787	10162.75
868.031	10153.75
868.275	10129.75
868.519	10169.75
868.764	10064.75
869.008	10037.75
869.252	10049.75
869.496	10006.75
869.739	10024.75
869.983	10029.75
870.227	9948.75
870.471	9835.75
870.715	9954.75
870.958	9967.75
871.202	9924.75
871.446	9897.75
871.689	9891.75
871.933	9927.75
872.176	9967.75
872.42	9885.75
872.663	9865.75
872.906	9903.75
873.15	9779.75
873.393	9727.75
873.636	9706.75
873.879	9601.75
874.122	9521.75
874.366	9421.75
874.609	9309.75
874.852	9320.75
875.095	9260.75
875.337	9226.75
875.58	9121.75
875.823	9191.75
876.066	9156.75
876.309	9138.75
876.551	9063.75
876.794	8985.75
877.037	9009.75
877.279	8966.75
877.522	8983.75
877.764	9088.75
878.007	9028.75
878.249	9052.75
878.491	9000.75
878.734	9043.75
878.976	8952.75
879.218	8907.75
879.46	8838.75
879.702	8786.75
879.945	8709.75
880.187	8676.75
880.429	8638.75
880.671	8549.75
880.912	8519.75
881.154	8532.75
881.396	8370.75
881.638	8450.75
881.88	8483.75
882.121	8404.75
882.363	8396.75
882.605	8434.75
882.846	8322.75
883.088	8352.75
883.329	8313.75
883.571	8274.75
883.812	8262.75
884.053	8400.75
884.295	8450.75
884.536	8574.75
884.777	8402.75
885.018	8384.75
885.259	8357.75
885.5	8349.75
885.742	8467.75
885.982	8340.75
886.223	8231.75
886.464	8231.75
886.705	8161.75
886.946	8168.75
887.187	7975.75
887.428	8004.75
887.668	7911.75
887.909	7899.75
888.15	7674.75
888.39	7727.75
888.631	7719.75
888.871	7594.75
889.111	7599.75
889.352	7516.75
889.592	7422.75
889.833	7390.75
890.073	7298.75
890.313	7440.75
890.553	7271.75
890.793	7211.75
891.033	7150.75
891.273	7112.75
891.513	7104.75
891.753	7201.75
891.993	7091.75
892.233	7154.75
892.473	7249.75
892.713	7219.75
892.952	7122.75
893.192	7156.75
893.432	7056.75
893.671	7144.75
893.911	7054.75
894.15	6970.75
894.39	6891.75
894.629	6886.75
894.869	6872.75
895.108	6817.75
895.347	6793.75
895.587	6766.75
895.826	6730.75
896.065	6677.75
896.304	6679.75
896.543	6724.75
896.782	6615.75
897.021	6660.75
897.26	6646.75
897.499	6693.75
897.738	6661.75
897.977	6572.75
898.216	6482.75
898.454	6409.75
898.693	6357.75
898.932	6420.75
899.17	6294.75
899.409	6326.75
899.647	6312.75
899.886	6251.75
900.124	6323.75
900.363	6224.75
900.601	6224.75
900.839	6286.75
901.078	6280.75
901.316	6276.75
901.554	6234.75
901.792	6318.75
902.03	6263.75
902.268	6244.75
902.506	6253.75
902.744	6204.75
902.982	6208.75
903.22	6074.75
903.458	6027.75
903.695	5989.75
903.933	5938.75
904.171	5752.75
904.409	5775.75
904.646	5769.75
904.884	5680.75
905.121	5651.75
905.359	5588.75
905.596	5627.75
905.833	5479.75
906.071	5489.75
906.308	5491.75
906.545	5470.75
906.783	5405.75
907.02	5457.75
907.257	5403.75
907.494	5449.75
907.731	5435.75
907.968	5371.75
908.205	5331.75
908.442	5284.75
908.679	5259.75
908.915	5236.75
909.152	5213.75
909.389	5111.75
909.626	5105.75
909.862	5096.75
910.099	5075.75
910.335	5086.75
910.572	5016.75
910.808	5034.75
911.045	4953.75
911.281	4953.75
911.518	4949.75
911.754	4937.75
911.99	4934.75
912.226	4863.75
912.463	4827.75
912.699	4804.75
912.935	4772.75
913.171	4771.75
913.407	4667.75
913.643	4666.75
913.879	4644.75
914.114	4606.75
914.35	4532.75
914.586	4483.75
914.822	4431.75
915.057	4489.75
915.293	4338.75
915.529	4376.75
915.764	4433.75
916	4387.75
916.235	4404.75
916.471	4421.75
916.706	4310.75
916.941	4318.75
917.177	4286.75
917.412	4342.75
917.647	4315.75
917.882	4294.75
918.117	4330.75
918.352	4328.75
918.588	4305.75
918.823	4234.75
919.057	4196.75
919.292	4074.75
919.527	4136.75
919.762	4054.75
919.997	4096.75
920.232	3961.75
920.466	3993.75
920.701	3854.75
920.935	3900.75
921.17	3881.75
921.405	3824.75
921.639	3837.75
921.873	3824.75
922.108	3834.75
922.342	3849.75
922.576	3781.75
922.811	3779.75
923.045	3823.75
923.279	3829.75
923.513	3686.75
923.747	3769.75
923.981	3708.75
924.215	3680.75
924.449	3674.75
924.683	3585.75
924.917	3607.75
925.151	3582.75
925.385	3650.75
925.618	3567.75
925.852	3573.75
926.086	3513.75
926.319	3542.75
926.553	3552.75
926.786	3535.75
927.02	3471.75
927.253	3571.75
927.486	3555.75
927.72	3439.75
927.953	3527.75
928.186	3456.75
928.42	3485.75
928.653	3473.75
928.886	3414.75
929.119	3472.75
929.352	3398.75
929.585	3367.75
929.818	3401.75
930.051	3378.75
930.284	3312.75
930.516	3230.75
930.749	3248.75
930.982	3274.75
931.215	3274.75
931.447	3181.75
931.68	3210.75
931.912	3171.75
932.145	3188.75
932.377	3202.75
932.61	3310.75
932.842	3120.75
933.074	3185.75
933.307	3163.75
933.539	3226.75
933.771	3222.75
934.003	3144.75
934.236	3202.75
934.468	3218.75
934.7	3164.75
934.932	3174.75
935.164	3151.75
935.395	3139.75
935.627	3144.75
935.859	3124.75
936.091	3067.75
936.323	3111.75
936.554	3097.75
936.786	3049.75
937.017	3007.75
937.249	3057.75
937.481	2958.75
937.712	3023.75
937.943	3005.75
938.175	3014.75
938.406	2984.75
938.637	3026.75
938.869	2958.75
939.1	2993.75
939.331	2944.75
939.562	2981.75
939.793	2976.75
940.024	2968.75
940.255	2976.75
940.486	2971.75
940.717	2902.75
940.948	2874.75
941.179	2838.75
941.409	2874.75
941.64	2849.75
941.871	2864.75
942.102	2863.75
942.332	2865.75
942.563	2918.75
942.793	2824.75
943.024	2840.75
943.254	2862.75
943.484	2901.75
943.715	2913.75
943.945	2860.75
944.175	2785.75
944.405	2725.75
944.636	2766.75
944.866	2834.75
945.096	2819.75
945.326	2730.75
945.556	2834.75
945.786	2768.75
946.016	2764.75
946.245	2697.75
946.475	2731.75
946.705	2714.75
946.935	2713.75
947.164	2701.75
947.394	2680.75
947.624	2652.75
947.853	2692.75
948.083	2651.75
948.312	2628.75
948.542	2594.75
948.771	2529.75
949	2516.75
949.23	2621.75
949.459	2598.75
949.688	2639.75
949.917	2615.75
950.146	2592.75
950.375	2670.75
950.604	2552.75
950.833	2643.75
951.062	2656.75
951.291	2583.75
951.52	2540.75
951.749	2564.75
951.978	2529.75
952.206	2534.75
952.435	2506.75
952.664	2525.75
952.892	2539.75
953.121	2509.75
953.349	2485.75
953.578	2526.75
953.806	2502.75
954.035	2434.75
954.263	2463.75
954.491	2369.75
954.719	2445.75
954.948	2410.75
955.176	2376.75
955.404	2350.75
955.632	2359.75
955.86	2362.75
956.088	2361.75
956.316	2417.75
956.544	2374.75
956.772	2351.75
956.999	2314.75
957.227	2395.75
957.455	2289.75
957.683	2365.75
957.91	2263.75
958.138	2249.75
958.365	2280.75
958.593	2241.75
958.82	2213.75
959.048	2259.75
959.275	2271.75
959.502	2227.75
959.73	2221.75
959.957	2272.75
960.184	2265.75
960.411	2186.75
960.638	2265.75
960.865	2211.75
961.092	2241.75
961.319	2160.75
961.546	2233.75
961.773	2231.75
962	2201.75
962.227	2217.75
962.454	2233.75
962.68	2189.75
962.907	2175.75
963.134	2122.75
963.36	2145.75
963.587	2182.75
963.813	2101.75
964.04	2172.75
964.266	2087.75
964.493	2143.75
964.719	2117.75
964.945	2128.75
965.171	2046.75
965.398	2056.75
965.624	2097.75
965.85	2013.75
966.076	2017.75
966.302	2061.75
966.528	2008.75
966.754	2052.75
966.98	2015.75
967.206	2022.75
967.431	1962.75
967.657	2041.75
967.883	2011.75
968.109	2019.75
968.334	1963.75
968.56	1950.75
968.785	1970.75
969.011	1921.75
969.236	2006.75
969.462	1956.75
969.687	1927.75
969.912	1974.75
970.138	2014.75
970.363	1873.75
970.588	1970.75
970.813	1903.75
971.038	1902.75
971.263	1919.75
971.488	1941.75
971.713	1929.75
971.938	1937.75
972.163	1857.75
972.388	1867.75
972.613	1801.75
972.838	1844.75
973.062	1848.75
973.287	1847.75
973.512	1786.75
973.736	1831.75
973.961	1824.75
974.185	1797.75
974.41	1803.75
974.634	1728.75
974.858	1725.75
975.083	1806.75
975.307	1795.75
975.531	1729.75
975.755	1673.75
975.98	1719.75
976.204	1648.75
976.428	1650.75
976.652	1672.75
976.876	1654.75
977.1	1682.75
977.324	1639.75
977.547	1676.75
977.771	1710.75
977.995	1663.75
978.219	1619.75
978.442	1727.75
978.666	1668.75
978.89	1663.75
979.113	1646.75
979.337	1641.75
979.56	1586.75
979.783	1701.75
980.007	1578.75
980.23	1619.75
980.453	1575.75
980.677	1614.75
980.9	1588.75
981.123	1528.75
981.346	1593.75
981.569	1606.75
981.792	1600.75
982.015	1589.75
982.238	1527.75
982.461	1552.75
982.684	1535.75
982.907	1497.75
983.129	1515.75
983.352	1550.75
983.575	1540.75
983.797	1540.75
984.02	1486.75
984.242	1513.75
984.465	1521.75
984.687	1527.75
984.91	1530.75
985.132	1544.75
985.354	1534.75
985.577	1517.75
985.799	1490.75
986.021	1395.75
986.243	1464.75
986.465	1483.75
986.687	1510.75
986.909	1529.75
987.131	1477.75
987.353	1448.75
987.575	1474.75
987.797	1439.75
988.019	1375.75
988.241	1419.75
988.462	1421.75
988.684	1453.75
988.906	1462.75
989.127	1479.75
989.349	1387.75
989.57	1431.75
989.792	1459.75
990.013	1472.75
990.234	1451.75
990.456	1482.75
990.677	1464.75
990.898	1398.75
991.119	1379.75
991.341	1443.75
991.562	1377.75
991.783	1420.75
992.004	1362.75
992.225	1320.75
992.446	1399.75
992.667	1327.75
992.887	1400.75
993.108	1286.75
993.329	1432.75
993.55	1356.75
993.77	1280.75
993.991	1322.75
994.212	1351.75
994.432	1331.75
994.653	1341.75
994.873	1342.75
995.093	1241.75
995.314	1268.75
995.534	1344.75
995.754	1343.75
995.975	1376.75
996.195	1269.75
996.415	1350.75
996.635	1316.75
996.855	1328.75
997.075	1275.75
997.295	1281.75
997.515	1251.75
997.735	1317.75
997.955	1266.75
998.174	1262.75
998.394	1264.75
998.614	1302.75
998.834	1243.75
999.053	1348.75
999.273	1286.75
999.492	1358.75
999.712	1284.75
999.931	1246.75
1000.151	1291.75
1000.37	1270.75
1000.589	1324.75
1000.809	1255.75
1001.028	1360.75
1001.247	1312.75
1001.466	1226.75
1001.685	1324.75
1001.904	1278.75
1002.123	1262.75
1002.342	1301.75
1002.561	1225.75
1002.78	1284.75
1002.999	1335.75
1003.218	1267.75
1003.436	1234.75
1003.655	1281.75
1003.874	1257.75
1004.092	1258.75
1004.311	1300.75
1004.53	1274.75
1004.748	1339.75
1004.966	1242.75
1005.185	1286.75
1005.403	1296.75
1005.622	1256.75
1005.84	1358.75
1006.058	1236.75
1006.276	1259.75
1006.494	1616.75
1006.712	1251.75
1006.931	1325.75
1007.149	1207.75
1007.367	1220.75
1007.584	1260.75
1007.802	1306.75
1008.02	1239.75
1008.238	1346.75
1008.456	1326.75
1008.673	1179.75
1008.891	1253.75
1009.109	1232.75
1009.326	1290.75
1009.544	1345.75
1009.761	1227.75
1009.979	1333.75
1010.196	1306.75
1010.413	1378.75
1010.631	1383.75
1010.848	1427.75
1011.065	1418.75
1011.282	1365.75
1011.5	1315.75
1011.717	1406.75
1011.934	1325.75
1012.151	1382.75
1012.368	1351.75
1012.585	1287.75
1012.801	1342.75
1013.018	1308.75
1013.235	1299.75
1013.452	1274.75
1013.669	1295.75
1013.885	1296.75
1014.102	1312.75
1014.318	1272.75
1014.535	1237.75
1014.751	1282.75
1014.968	1281.75
1015.184	1319.75
1015.401	1191.75
1015.617	1262.75
1015.833	1179.75
1016.049	1214.75
1016.266	1211.75
1016.482	1194.75
1016.698	1128.75
1016.914	1195.75
1017.13	1156.75
1017.346	1140.75
1017.562	1210.75
1017.778	1130.75
1017.993	1099.75
1018.209	1146.75
1018.425	1142.75
1018.641	1104.75
1018.856	1064.75
1019.072	1125.75
1019.288	1173.75
1019.503	1122.75
1019.719	1033.75
1019.934	1036.75
1020.149	1099.75
1020.365	1065.75
1020.58	1010.75
1020.795	1068.75
1021.011	1041.75
1021.226	1012.75
1021.441	1051.75
1021.656	980.75
1021.871	927.75
1022.086	932.75
1022.301	935.75
1022.516	919.75
1022.731	978.75
1022.946	890.75
1023.16	879.75
1023.375	848.75
1023.59	858.75
1023.804	826.75
1024.019	907.75
1024.234	816.75
1024.448	850.75
1024.663	763.75
1024.877	797.75
1025.092	814.75
1025.306	846.75
1025.52	739.75
1025.734	842.75
1025.949	749.75
1026.163	750.75
1026.377	688.75
1026.591	752.75
1026.805	683.75
1027.019	669.75
1027.233	643.75
1027.447	588.75
1027.661	690.75
1027.875	642.75
1028.088	638.75
1028.302	557.75
1028.516	576.75
1028.73	589.75
1028.943	582.75
1029.157	549.75
1029.37	490.75
1029.584	0.75
1029.797	-3.25
1030.011	0.75
1030.224	-2.25
