Data from QEP037381__237__14-34-18-754.txt Node

Date: Fri Apr 28 14:34:18 EDT 2023
User: dcclab
Spectrometer: QEP03738
Trigger mode: 4
Integration Time (sec): 1.000000E1
Scans to average: 1
Electric dark correction enabled: true
Nonlinearity correction enabled: false
Boxcar width: 0
XAxis mode: Wavelengths
Number of Pixels in Spectrum: 1044
>>>>>Begin Spectral Data<<<<<
784.041	11.5
784.3	-0.5
784.558	-4.5
784.817	-3.5
785.075	72636.5
785.334	14686.5
785.592	7624.5
785.851	5400.5
786.109	4053.5
786.368	3197.5
786.626	2578.5
786.884	2111.5
787.143	1781.5
787.401	1467.5
787.659	1341.5
787.917	1133.5
788.175	1044.5
788.433	907.5
788.691	825.5
788.949	749.5
789.207	755.5
789.465	631.5
789.723	587.5
789.98	559.5
790.238	590.5
790.496	559.5
790.753	540.5
791.011	572.5
791.268	528.5
791.526	494.5
791.783	523.5
792.041	516.5
792.298	422.5
792.556	495.5
792.813	464.5
793.07	447.5
793.327	425.5
793.584	504.5
793.841	425.5
794.099	453.5
794.356	507.5
794.613	421.5
794.869	458.5
795.126	405.5
795.383	386.5
795.64	416.5
795.897	374.5
796.153	418.5
796.41	413.5
796.667	378.5
796.923	404.5
797.18	405.5
797.436	428.5
797.693	399.5
797.949	443.5
798.206	466.5
798.462	390.5
798.718	438.5
798.974	412.5
799.231	452.5
799.487	430.5
799.743	457.5
799.999	480.5
800.255	471.5
800.511	455.5
800.767	503.5
801.023	488.5
801.279	508.5
801.534	544.5
801.79	606.5
802.046	620.5
802.302	733.5
802.557	840.5
802.813	1058.5
803.068	1313.5
803.324	1807.5
803.579	2489.5
803.835	3410.5
804.09	4703.5
804.345	5911.5
804.601	7207.5
804.856	8456.5
805.111	9368.5
805.366	10042.5
805.621	10347.5
805.876	10672.5
806.131	10871.5
806.386	11065.5
806.641	11170.5
806.896	11311.5
807.151	11531.5
807.406	11689.5
807.661	11851.5
807.915	11992.5
808.17	12091.5
808.425	12235.5
808.679	12377.5
808.934	12548.5
809.188	12587.5
809.443	12834.5
809.697	12914.5
809.951	12936.5
810.206	13005.5
810.46	13211.5
810.714	13206.5
810.968	13354.5
811.223	13360.5
811.477	13496.5
811.731	13682.5
811.985	13600.5
812.239	13695.5
812.493	13799.5
812.747	13743.5
813	13789.5
813.254	13861.5
813.508	13968.5
813.762	14033.5
814.015	13995.5
814.269	14166.5
814.522	14207.5
814.776	14429.5
815.03	14503.5
815.283	14653.5
815.536	14809.5
815.79	15050.5
816.043	15177.5
816.296	15408.5
816.55	15533.5
816.803	15672.5
817.056	15858.5
817.309	15978.5
817.562	16131.5
817.815	16371.5
818.068	16514.5
818.321	16672.5
818.574	16872.5
818.827	17034.5
819.079	17235.5
819.332	17552.5
819.585	17729.5
819.838	17997.5
820.09	18032.5
820.343	18177.5
820.595	18232.5
820.848	18362.5
821.1	18430.5
821.353	18429.5
821.605	18422.5
821.857	18365.5
822.11	18312.5
822.362	18276.5
822.614	18273.5
822.866	18297.5
823.118	18308.5
823.37	18349.5
823.622	18434.5
823.874	18368.5
824.126	18574.5
824.378	18601.5
824.63	18595.5
824.882	18545.5
825.134	18560.5
825.385	18637.5
825.637	18579.5
825.888	18409.5
826.14	18370.5
826.392	18229.5
826.643	18184.5
826.895	18141.5
827.146	18014.5
827.397	17971.5
827.649	18082.5
827.9	17967.5
828.151	17970.5
828.402	18012.5
828.653	17997.5
828.905	18177.5
829.156	18155.5
829.407	18032.5
829.658	18146.5
829.909	18034.5
830.159	18173.5
830.41	17961.5
830.661	17866.5
830.912	17726.5
831.162	17619.5
831.413	17691.5
831.664	17624.5
831.914	17703.5
832.165	17626.5
832.415	17605.5
832.666	17660.5
832.916	17685.5
833.167	17533.5
833.417	17472.5
833.667	17506.5
833.917	17440.5
834.168	17457.5
834.418	17339.5
834.668	17327.5
834.918	17206.5
835.168	17123.5
835.418	17100.5
835.668	17059.5
835.918	17065.5
836.167	16978.5
836.417	16888.5
836.667	16937.5
836.917	16950.5
837.166	16759.5
837.416	16777.5
837.666	16869.5
837.915	16748.5
838.165	16681.5
838.414	16574.5
838.663	16483.5
838.913	16561.5
839.162	16423.5
839.411	16500.5
839.661	16283.5
839.91	16318.5
840.159	16309.5
840.408	16303.5
840.657	16324.5
840.906	16330.5
841.155	16356.5
841.404	16287.5
841.653	16357.5
841.902	16232.5
842.15	16334.5
842.399	16241.5
842.648	16225.5
842.897	16072.5
843.145	16005.5
843.394	15980.5
843.642	15989.5
843.891	15871.5
844.139	15707.5
844.388	15618.5
844.636	15625.5
844.884	15539.5
845.133	15614.5
845.381	15567.5
845.629	15540.5
845.877	15384.5
846.125	15486.5
846.373	15455.5
846.621	15351.5
846.869	15307.5
847.117	15226.5
847.365	15160.5
847.613	15115.5
847.861	15080.5
848.108	15094.5
848.356	15010.5
848.604	14993.5
848.851	15014.5
849.099	14961.5
849.346	14979.5
849.594	15121.5
849.841	15134.5
850.089	15194.5
850.336	15168.5
850.583	15168.5
850.831	14953.5
851.078	14922.5
851.325	14927.5
851.572	14891.5
851.819	14664.5
852.066	14478.5
852.313	14353.5
852.56	14137.5
852.807	14073.5
853.054	14056.5
853.301	14083.5
853.548	14144.5
853.794	14225.5
854.041	14229.5
854.288	14342.5
854.534	14438.5
854.781	14380.5
855.028	14209.5
855.274	14284.5
855.52	14207.5
855.767	14066.5
856.013	14113.5
856.26	14235.5
856.506	13918.5
856.752	13879.5
856.998	13919.5
857.244	13972.5
857.49	13978.5
857.736	13975.5
857.982	13974.5
858.228	13912.5
858.474	13913.5
858.72	13749.5
858.966	13684.5
859.212	13521.5
859.458	13315.5
859.703	13179.5
859.949	13121.5
860.195	13078.5
860.44	13061.5
860.686	12919.5
860.931	12945.5
861.177	12805.5
861.422	12908.5
861.667	12752.5
861.913	12738.5
862.158	12818.5
862.403	12840.5
862.648	12942.5
862.893	12857.5
863.138	12855.5
863.384	12749.5
863.629	12767.5
863.873	12740.5
864.118	12665.5
864.363	12571.5
864.608	12574.5
864.853	12462.5
865.098	12488.5
865.342	12413.5
865.587	12305.5
865.832	12306.5
866.076	12326.5
866.321	12229.5
866.565	12133.5
866.81	12014.5
867.054	12071.5
867.298	12098.5
867.543	12063.5
867.787	12066.5
868.031	12050.5
868.275	11975.5
868.519	11928.5
868.764	12072.5
869.008	11877.5
869.252	11915.5
869.496	11830.5
869.739	11876.5
869.983	11812.5
870.227	11805.5
870.471	11797.5
870.715	11864.5
870.958	11781.5
871.202	11772.5
871.446	11789.5
871.689	11761.5
871.933	11797.5
872.176	11855.5
872.42	11726.5
872.663	11767.5
872.906	11803.5
873.15	11608.5
873.393	11534.5
873.636	11582.5
873.879	11460.5
874.122	11398.5
874.366	11180.5
874.609	11065.5
874.852	11048.5
875.095	10974.5
875.337	10923.5
875.58	10884.5
875.823	10894.5
876.066	10906.5
876.309	10892.5
876.551	10838.5
876.794	10671.5
877.037	10742.5
877.279	10646.5
877.522	10675.5
877.764	10715.5
878.007	10679.5
878.249	10744.5
878.491	10641.5
878.734	10705.5
878.976	10585.5
879.218	10492.5
879.46	10493.5
879.702	10471.5
879.945	10327.5
880.187	10177.5
880.429	10191.5
880.671	10113.5
880.912	10084.5
881.154	10034.5
881.396	9941.5
881.638	9969.5
881.88	9949.5
882.121	9918.5
882.363	9923.5
882.605	9895.5
882.846	9922.5
883.088	9849.5
883.329	9827.5
883.571	9787.5
883.812	9828.5
884.053	10021.5
884.295	10088.5
884.536	10192.5
884.777	10103.5
885.018	10013.5
885.259	10006.5
885.5	9939.5
885.742	10061.5
885.982	9906.5
886.223	9786.5
886.464	9822.5
886.705	9637.5
886.946	9626.5
887.187	9443.5
887.428	9507.5
887.668	9284.5
887.909	9246.5
888.15	9098.5
888.39	9143.5
888.631	9136.5
888.871	8979.5
889.111	8964.5
889.352	8862.5
889.592	8769.5
889.833	8663.5
890.073	8713.5
890.313	8629.5
890.553	8510.5
890.793	8511.5
891.033	8482.5
891.273	8449.5
891.513	8435.5
891.753	8512.5
891.993	8445.5
892.233	8390.5
892.473	8466.5
892.713	8454.5
892.952	8438.5
893.192	8410.5
893.432	8428.5
893.671	8437.5
893.911	8231.5
894.15	8291.5
894.39	8163.5
894.629	8153.5
894.869	8141.5
895.108	8040.5
895.347	7968.5
895.587	7973.5
895.826	7967.5
896.065	7900.5
896.304	7964.5
896.543	7937.5
896.782	7865.5
897.021	7855.5
897.26	7877.5
897.499	7846.5
897.738	7766.5
897.977	7731.5
898.216	7616.5
898.454	7633.5
898.693	7497.5
898.932	7496.5
899.17	7495.5
899.409	7515.5
899.647	7437.5
899.886	7393.5
900.124	7485.5
900.363	7417.5
900.601	7430.5
900.839	7401.5
901.078	7428.5
901.316	7400.5
901.554	7437.5
901.792	7441.5
902.03	7392.5
902.268	7426.5
902.506	7403.5
902.744	7358.5
902.982	7312.5
903.22	7184.5
903.458	7129.5
903.695	7128.5
903.933	7015.5
904.171	6862.5
904.409	6837.5
904.646	6807.5
904.884	6718.5
905.121	6689.5
905.359	6639.5
905.596	6533.5
905.833	6449.5
906.071	6456.5
906.308	6485.5
906.545	6479.5
906.783	6374.5
907.02	6429.5
907.257	6374.5
907.494	6331.5
907.731	6381.5
907.968	6378.5
908.205	6293.5
908.442	6251.5
908.679	6221.5
908.915	6158.5
909.152	6147.5
909.389	6050.5
909.626	6015.5
909.862	5977.5
910.099	6001.5
910.335	6034.5
910.572	5850.5
910.808	5944.5
911.045	5859.5
911.281	5830.5
911.518	5864.5
911.754	5764.5
911.99	5719.5
912.226	5684.5
912.463	5668.5
912.699	5624.5
912.935	5561.5
913.171	5514.5
913.407	5487.5
913.643	5531.5
913.879	5449.5
914.114	5354.5
914.35	5324.5
914.586	5325.5
914.822	5220.5
915.057	5274.5
915.293	5156.5
915.529	5115.5
915.764	5191.5
916	5147.5
916.235	5079.5
916.471	5165.5
916.706	5037.5
916.941	5082.5
917.177	5085.5
917.412	5097.5
917.647	5101.5
917.882	5026.5
918.117	5077.5
918.352	5026.5
918.588	5099.5
918.823	4962.5
919.057	4888.5
919.292	4745.5
919.527	4911.5
919.762	4783.5
919.997	4810.5
920.232	4703.5
920.466	4705.5
920.701	4531.5
920.935	4561.5
921.17	4565.5
921.405	4485.5
921.639	4555.5
921.873	4452.5
922.108	4519.5
922.342	4424.5
922.576	4395.5
922.811	4391.5
923.045	4421.5
923.279	4411.5
923.513	4320.5
923.747	4355.5
923.981	4349.5
924.215	4241.5
924.449	4285.5
924.683	4178.5
924.917	4246.5
925.151	4223.5
925.385	4287.5
925.618	4170.5
925.852	4166.5
926.086	4113.5
926.319	4175.5
926.553	4149.5
926.786	4165.5
927.02	4114.5
927.253	4165.5
927.486	4178.5
927.72	4070.5
927.953	4110.5
928.186	4072.5
928.42	4044.5
928.653	3984.5
928.886	3968.5
929.119	4035.5
929.352	3963.5
929.585	3979.5
929.818	3908.5
930.051	3882.5
930.284	3918.5
930.516	3810.5
930.749	3774.5
930.982	3802.5
931.215	3808.5
931.447	3731.5
931.68	3743.5
931.912	3688.5
932.145	3726.5
932.377	3701.5
932.61	3828.5
932.842	3666.5
933.074	3773.5
933.307	3690.5
933.539	3786.5
933.771	3740.5
934.003	3717.5
934.236	3766.5
934.468	3801.5
934.7	3721.5
934.932	3698.5
935.164	3630.5
935.395	3607.5
935.627	3656.5
935.859	3646.5
936.091	3585.5
936.323	3628.5
936.554	3649.5
936.786	3568.5
937.017	3515.5
937.249	3548.5
937.481	3452.5
937.712	3548.5
937.943	3495.5
938.175	3452.5
938.406	3473.5
938.637	3561.5
938.869	3442.5
939.1	3505.5
939.331	3465.5
939.562	3468.5
939.793	3479.5
940.024	3444.5
940.255	3480.5
940.486	3390.5
940.717	3378.5
940.948	3377.5
941.179	3318.5
941.409	3317.5
941.64	3317.5
941.871	3331.5
942.102	3305.5
942.332	3326.5
942.563	3373.5
942.793	3357.5
943.024	3279.5
943.254	3301.5
943.484	3326.5
943.715	3399.5
943.945	3303.5
944.175	3293.5
944.405	3226.5
944.636	3265.5
944.866	3259.5
945.096	3284.5
945.326	3234.5
945.556	3283.5
945.786	3274.5
946.016	3204.5
946.245	3174.5
946.475	3142.5
946.705	3115.5
946.935	3163.5
947.164	3102.5
947.394	3094.5
947.624	3087.5
947.853	3102.5
948.083	3080.5
948.312	3076.5
948.542	3035.5
948.771	2960.5
949	2968.5
949.23	2977.5
949.459	3011.5
949.688	3044.5
949.917	3017.5
950.146	3005.5
950.375	3039.5
950.604	2991.5
950.833	3035.5
951.062	3058.5
951.291	2965.5
951.52	2970.5
951.749	2976.5
951.978	2931.5
952.206	2939.5
952.435	2923.5
952.664	2954.5
952.892	2907.5
953.121	2943.5
953.349	2904.5
953.578	2940.5
953.806	2886.5
954.035	2836.5
954.263	2840.5
954.491	2757.5
954.719	2862.5
954.948	2779.5
955.176	2795.5
955.404	2704.5
955.632	2791.5
955.86	2770.5
956.088	2762.5
956.316	2790.5
956.544	2774.5
956.772	2724.5
956.999	2672.5
957.227	2766.5
957.455	2658.5
957.683	2703.5
957.91	2605.5
958.138	2619.5
958.365	2649.5
958.593	2625.5
958.82	2564.5
959.048	2651.5
959.275	2587.5
959.502	2598.5
959.73	2549.5
959.957	2600.5
960.184	2620.5
960.411	2540.5
960.638	2648.5
960.865	2578.5
961.092	2613.5
961.319	2485.5
961.546	2567.5
961.773	2582.5
962	2508.5
962.227	2586.5
962.454	2542.5
962.68	2510.5
962.907	2513.5
963.134	2528.5
963.36	2479.5
963.587	2499.5
963.813	2420.5
964.04	2490.5
964.266	2391.5
964.493	2489.5
964.719	2426.5
964.945	2423.5
965.171	2332.5
965.398	2405.5
965.624	2434.5
965.85	2334.5
966.076	2346.5
966.302	2366.5
966.528	2323.5
966.754	2381.5
966.98	2321.5
967.206	2341.5
967.431	2254.5
967.657	2335.5
967.883	2323.5
968.109	2328.5
968.334	2252.5
968.56	2232.5
968.785	2265.5
969.011	2228.5
969.236	2261.5
969.462	2233.5
969.687	2232.5
969.912	2279.5
970.138	2269.5
970.363	2181.5
970.588	2208.5
970.813	2166.5
971.038	2195.5
971.263	2187.5
971.488	2186.5
971.713	2225.5
971.938	2202.5
972.163	2110.5
972.388	2141.5
972.613	2117.5
972.838	2150.5
973.062	2136.5
973.287	2117.5
973.512	2065.5
973.736	2064.5
973.961	2046.5
974.185	2037.5
974.41	2063.5
974.634	1994.5
974.858	2027.5
975.083	2035.5
975.307	2032.5
975.531	1983.5
975.755	1950.5
975.98	1960.5
976.204	1890.5
976.428	1910.5
976.652	1917.5
976.876	1911.5
977.1	1946.5
977.324	1910.5
977.547	1925.5
977.771	1944.5
977.995	1889.5
978.219	1863.5
978.442	1950.5
978.666	1903.5
978.89	1883.5
979.113	1887.5
979.337	1866.5
979.56	1838.5
979.783	1937.5
980.007	1823.5
980.23	1865.5
980.453	1806.5
980.677	1821.5
980.9	1813.5
981.123	1763.5
981.346	1836.5
981.569	1811.5
981.792	1865.5
982.015	1779.5
982.238	1746.5
982.461	1779.5
982.684	1714.5
982.907	1718.5
983.129	1746.5
983.352	1756.5
983.575	1760.5
983.797	1730.5
984.02	1691.5
984.242	1708.5
984.465	1696.5
984.687	1744.5
984.91	1738.5
985.132	1732.5
985.354	1763.5
985.577	1699.5
985.799	1703.5
986.021	1605.5
986.243	1642.5
986.465	1659.5
986.687	1695.5
986.909	1720.5
987.131	1701.5
987.353	1631.5
987.575	1658.5
987.797	1623.5
988.019	1579.5
988.241	1648.5
988.462	1599.5
988.684	1654.5
988.906	1667.5
989.127	1678.5
989.349	1565.5
989.57	1606.5
989.792	1629.5
990.013	1644.5
990.234	1650.5
990.456	1672.5
990.677	1636.5
990.898	1569.5
991.119	1578.5
991.341	1600.5
991.562	1545.5
991.783	1596.5
992.004	1523.5
992.225	1499.5
992.446	1575.5
992.667	1481.5
992.887	1546.5
993.108	1443.5
993.329	1584.5
993.55	1543.5
993.77	1458.5
993.991	1464.5
994.212	1514.5
994.432	1495.5
994.653	1500.5
994.873	1480.5
995.093	1360.5
995.314	1446.5
995.534	1505.5
995.754	1513.5
995.975	1541.5
996.195	1435.5
996.415	1458.5
996.635	1436.5
996.855	1448.5
997.075	1441.5
997.295	1440.5
997.515	1413.5
997.735	1471.5
997.955	1428.5
998.174	1427.5
998.394	1382.5
998.614	1441.5
998.834	1405.5
999.053	1446.5
999.273	1433.5
999.492	1475.5
999.712	1433.5
999.931	1375.5
1000.151	1444.5
1000.37	1403.5
1000.589	1466.5
1000.809	1372.5
1001.028	1524.5
1001.247	1460.5
1001.466	1337.5
1001.685	1476.5
1001.904	1389.5
1002.123	1404.5
1002.342	1391.5
1002.561	1339.5
1002.78	1391.5
1002.999	1440.5
1003.218	1399.5
1003.436	1360.5
1003.655	1416.5
1003.874	1360.5
1004.092	1374.5
1004.311	1414.5
1004.53	1370.5
1004.748	1419.5
1004.966	1347.5
1005.185	1420.5
1005.403	1390.5
1005.622	1399.5
1005.84	1444.5
1006.058	1321.5
1006.276	1374.5
1006.494	1738.5
1006.712	1377.5
1006.931	1424.5
1007.149	1323.5
1007.367	1338.5
1007.584	1374.5
1007.802	1404.5
1008.02	1345.5
1008.238	1443.5
1008.456	1445.5
1008.673	1307.5
1008.891	1413.5
1009.109	1347.5
1009.326	1409.5
1009.544	1485.5
1009.761	1380.5
1009.979	1465.5
1010.196	1464.5
1010.413	1530.5
1010.631	1529.5
1010.848	1576.5
1011.065	1568.5
1011.282	1521.5
1011.5	1447.5
1011.717	1584.5
1011.934	1495.5
1012.151	1522.5
1012.368	1529.5
1012.585	1448.5
1012.801	1493.5
1013.018	1477.5
1013.235	1429.5
1013.452	1444.5
1013.669	1450.5
1013.885	1434.5
1014.102	1476.5
1014.318	1434.5
1014.535	1398.5
1014.751	1443.5
1014.968	1439.5
1015.184	1412.5
1015.401	1344.5
1015.617	1419.5
1015.833	1345.5
1016.049	1355.5
1016.266	1327.5
1016.482	1357.5
1016.698	1275.5
1016.914	1334.5
1017.13	1295.5
1017.346	1301.5
1017.562	1330.5
1017.778	1276.5
1017.993	1255.5
1018.209	1267.5
1018.425	1265.5
1018.641	1245.5
1018.856	1225.5
1019.072	1252.5
1019.288	1275.5
1019.503	1263.5
1019.719	1149.5
1019.934	1182.5
1020.149	1232.5
1020.365	1205.5
1020.58	1146.5
1020.795	1205.5
1021.011	1134.5
1021.226	1123.5
1021.441	1158.5
1021.656	1079.5
1021.871	1031.5
1022.086	1034.5
1022.301	1010.5
1022.516	1033.5
1022.731	1079.5
1022.946	980.5
1023.16	959.5
1023.375	936.5
1023.59	945.5
1023.804	898.5
1024.019	985.5
1024.234	893.5
1024.448	924.5
1024.663	859.5
1024.877	853.5
1025.092	886.5
1025.306	883.5
1025.52	804.5
1025.734	898.5
1025.949	815.5
1026.163	794.5
1026.377	746.5
1026.591	797.5
1026.805	731.5
1027.019	734.5
1027.233	699.5
1027.447	655.5
1027.661	736.5
1027.875	687.5
1028.088	703.5
1028.302	630.5
1028.516	611.5
1028.73	621.5
1028.943	608.5
1029.157	583.5
1029.37	552.5
1029.584	1.5
1029.797	0.5
1030.011	-1.5
1030.224	-3.5
