Data from QEP037381__239__14-34-38-755.txt Node

Date: Fri Apr 28 14:34:38 EDT 2023
User: dcclab
Spectrometer: QEP03738
Trigger mode: 4
Integration Time (sec): 1.000000E1
Scans to average: 1
Electric dark correction enabled: true
Nonlinearity correction enabled: false
Boxcar width: 0
XAxis mode: Wavelengths
Number of Pixels in Spectrum: 1044
>>>>>Begin Spectral Data<<<<<
784.041	10.38
784.3	2.38
784.558	-1.62
784.817	-9.62
785.075	75889.38
785.334	14964.38
785.592	7851.38
785.851	5490.38
786.109	4184.38
786.368	3240.38
786.626	2644.38
786.884	2179.38
787.143	1825.38
787.401	1496.38
787.659	1346.38
787.917	1155.38
788.175	1080.38
788.433	942.38
788.691	832.38
788.949	778.38
789.207	752.38
789.465	649.38
789.723	627.38
789.98	578.38
790.238	606.38
790.496	589.38
790.753	539.38
791.011	602.38
791.268	543.38
791.526	516.38
791.783	539.38
792.041	523.38
792.298	422.38
792.556	494.38
792.813	477.38
793.07	469.38
793.327	438.38
793.584	522.38
793.841	428.38
794.099	477.38
794.356	522.38
794.613	417.38
794.869	455.38
795.126	422.38
795.383	399.38
795.64	433.38
795.897	392.38
796.153	446.38
796.41	424.38
796.667	406.38
796.923	414.38
797.18	414.38
797.436	457.38
797.693	417.38
797.949	458.38
798.206	484.38
798.462	396.38
798.718	468.38
798.974	446.38
799.231	480.38
799.487	475.38
799.743	493.38
799.999	518.38
800.255	520.38
800.511	499.38
800.767	535.38
801.023	537.38
801.279	568.38
801.534	623.38
801.79	684.38
802.046	725.38
802.302	897.38
802.557	1038.38
802.813	1325.38
803.068	1738.38
803.324	2491.38
803.579	3429.38
803.835	4808.38
804.09	6581.38
804.345	8585.38
804.601	10378.38
804.856	12141.38
805.111	13532.38
805.366	14488.38
805.621	15022.38
805.876	15370.38
806.131	15630.38
806.386	15905.38
806.641	16094.38
806.896	16318.38
807.151	16670.38
807.406	16806.38
807.661	17038.38
807.915	17290.38
808.17	17621.38
808.425	17803.38
808.679	17941.38
808.934	18202.38
809.188	18301.38
809.443	18561.38
809.697	18743.38
809.951	18812.38
810.206	19074.38
810.46	19127.38
810.714	19285.38
810.968	19425.38
811.223	19499.38
811.477	19703.38
811.731	19842.38
811.985	19938.38
812.239	20028.38
812.493	20020.38
812.747	20174.38
813	20160.38
813.254	20233.38
813.508	20421.38
813.762	20428.38
814.015	20580.38
814.269	20645.38
814.522	20809.38
814.776	20948.38
815.03	21379.38
815.283	21526.38
815.536	21816.38
815.79	22123.38
816.043	22471.38
816.296	22666.38
816.55	22819.38
816.803	23071.38
817.056	23446.38
817.309	23601.38
817.562	23884.38
817.815	24111.38
818.068	24209.38
818.321	24427.38
818.574	24880.38
818.827	25117.38
819.079	25451.38
819.332	25931.38
819.585	26215.38
819.838	26514.38
820.09	26729.38
820.343	26884.38
820.595	26998.38
820.848	27192.38
821.1	27265.38
821.353	27424.38
821.605	27202.38
821.857	27217.38
822.11	26983.38
822.362	27084.38
822.614	27001.38
822.866	27130.38
823.118	27056.38
823.37	27121.38
823.622	27145.38
823.874	27271.38
824.126	27387.38
824.378	27434.38
824.63	27526.38
824.882	27572.38
825.134	27443.38
825.385	27442.38
825.637	27365.38
825.888	27239.38
826.14	27218.38
826.392	27232.38
826.643	26899.38
826.895	26771.38
827.146	26719.38
827.397	26696.38
827.649	26735.38
827.9	26609.38
828.151	26651.38
828.402	26793.38
828.653	26921.38
828.905	26745.38
829.156	26823.38
829.407	26734.38
829.658	26817.38
829.909	26831.38
830.159	26750.38
830.41	26538.38
830.661	26420.38
830.912	26270.38
831.162	26135.38
831.413	25939.38
831.664	26095.38
831.914	26160.38
832.165	25990.38
832.415	26060.38
832.666	26044.38
832.916	26069.38
833.167	25883.38
833.417	25897.38
833.667	25767.38
833.917	25730.38
834.168	25618.38
834.418	25613.38
834.668	25295.38
834.918	25293.38
835.168	25262.38
835.418	25082.38
835.668	25066.38
835.918	25080.38
836.167	24984.38
836.417	24916.38
836.667	24859.38
836.917	24870.38
837.166	24731.38
837.416	24782.38
837.666	24648.38
837.915	24557.38
838.165	24572.38
838.414	24331.38
838.663	24401.38
838.913	24214.38
839.162	24199.38
839.411	24151.38
839.661	24119.38
839.91	24081.38
840.159	23992.38
840.408	24065.38
840.657	23927.38
840.906	23951.38
841.155	24007.38
841.404	23976.38
841.653	23939.38
841.902	23865.38
842.15	23963.38
842.399	23973.38
842.648	23799.38
842.897	23753.38
843.145	23613.38
843.394	23589.38
843.642	23384.38
843.891	23337.38
844.139	23113.38
844.388	23028.38
844.636	22878.38
844.884	22868.38
845.133	22788.38
845.381	22754.38
845.629	22770.38
845.877	22685.38
846.125	22763.38
846.373	22648.38
846.621	22464.38
846.869	22539.38
847.117	22270.38
847.365	22160.38
847.613	22193.38
847.861	22047.38
848.108	22091.38
848.356	21998.38
848.604	21826.38
848.851	21965.38
849.099	21943.38
849.346	22095.38
849.594	22122.38
849.841	22191.38
850.089	22154.38
850.336	22340.38
850.583	22159.38
850.831	22007.38
851.078	21794.38
851.325	21806.38
851.572	21706.38
851.819	21464.38
852.066	21143.38
852.313	20851.38
852.56	20784.38
852.807	20647.38
853.054	20546.38
853.301	20617.38
853.548	20548.38
853.794	20796.38
854.041	20689.38
854.288	20785.38
854.534	20966.38
854.781	20917.38
855.028	20853.38
855.274	20890.38
855.52	20723.38
855.767	20571.38
856.013	20539.38
856.26	20781.38
856.506	20238.38
856.752	20296.38
856.998	20311.38
857.244	20270.38
857.49	20452.38
857.736	20336.38
857.982	20457.38
858.228	20344.38
858.474	20219.38
858.72	20017.38
858.966	19956.38
859.212	19762.38
859.458	19460.38
859.703	19393.38
859.949	19136.38
860.195	18989.38
860.44	18869.38
860.686	18776.38
860.931	18811.38
861.177	18730.38
861.422	18686.38
861.667	18605.38
861.913	18648.38
862.158	18698.38
862.403	18748.38
862.648	18658.38
862.893	18736.38
863.138	18749.38
863.384	18649.38
863.629	18708.38
863.873	18609.38
864.118	18396.38
864.363	18322.38
864.608	18274.38
864.853	18176.38
865.098	18078.38
865.342	17929.38
865.587	17844.38
865.832	17972.38
866.076	17761.38
866.321	17760.38
866.565	17713.38
866.81	17608.38
867.054	17546.38
867.298	17451.38
867.543	17469.38
867.787	17510.38
868.031	17441.38
868.275	17354.38
868.519	17377.38
868.764	17485.38
869.008	17302.38
869.252	17352.38
869.496	17169.38
869.739	17144.38
869.983	17119.38
870.227	17090.38
870.471	17050.38
870.715	17098.38
870.958	17178.38
871.202	17044.38
871.446	17089.38
871.689	17111.38
871.933	17089.38
872.176	17096.38
872.42	17105.38
872.663	16986.38
872.906	16939.38
873.15	16850.38
873.393	16710.38
873.636	16863.38
873.879	16524.38
874.122	16383.38
874.366	16312.38
874.609	16055.38
874.852	15921.38
875.095	15878.38
875.337	15799.38
875.58	15686.38
875.823	15710.38
876.066	15697.38
876.309	15735.38
876.551	15561.38
876.794	15422.38
877.037	15449.38
877.279	15356.38
877.522	15411.38
877.764	15425.38
878.007	15320.38
878.249	15443.38
878.491	15411.38
878.734	15464.38
878.976	15386.38
879.218	15194.38
879.46	15190.38
879.702	15052.38
879.945	14955.38
880.187	14705.38
880.429	14646.38
880.671	14603.38
880.912	14518.38
881.154	14474.38
881.396	14379.38
881.638	14429.38
881.88	14434.38
882.121	14388.38
882.363	14305.38
882.605	14315.38
882.846	14178.38
883.088	14242.38
883.329	14231.38
883.571	14085.38
883.812	14286.38
884.053	14363.38
884.295	14514.38
884.536	14631.38
884.777	14508.38
885.018	14272.38
885.259	14230.38
885.5	14241.38
885.742	14320.38
885.982	14163.38
886.223	14094.38
886.464	14017.38
886.705	13914.38
886.946	13881.38
887.187	13579.38
887.428	13684.38
887.668	13392.38
887.909	13269.38
888.15	13137.38
888.39	13153.38
888.631	12984.38
888.871	13007.38
889.111	12849.38
889.352	12748.38
889.592	12598.38
889.833	12566.38
890.073	12562.38
890.313	12480.38
890.553	12189.38
890.793	12248.38
891.033	12169.38
891.273	12163.38
891.513	12125.38
891.753	12114.38
891.993	12078.38
892.233	12020.38
892.473	12179.38
892.713	12086.38
892.952	12048.38
893.192	12058.38
893.432	11995.38
893.671	12027.38
893.911	11894.38
894.15	11828.38
894.39	11781.38
894.629	11672.38
894.869	11604.38
895.108	11520.38
895.347	11483.38
895.587	11459.38
895.826	11348.38
896.065	11305.38
896.304	11302.38
896.543	11288.38
896.782	11209.38
897.021	11238.38
897.26	11157.38
897.499	11203.38
897.738	11144.38
897.977	11027.38
898.216	10918.38
898.454	10828.38
898.693	10761.38
898.932	10789.38
899.17	10713.38
899.409	10649.38
899.647	10563.38
899.886	10581.38
900.124	10651.38
900.363	10572.38
900.601	10578.38
900.839	10581.38
901.078	10541.38
901.316	10634.38
901.554	10612.38
901.792	10718.38
902.03	10512.38
902.268	10562.38
902.506	10610.38
902.744	10452.38
902.982	10474.38
903.22	10278.38
903.458	10192.38
903.695	10143.38
903.933	10003.38
904.171	9786.38
904.409	9695.38
904.646	9574.38
904.884	9504.38
905.121	9424.38
905.359	9366.38
905.596	9313.38
905.833	9161.38
906.071	9193.38
906.308	9219.38
906.545	9178.38
906.783	9082.38
907.02	9125.38
907.257	9067.38
907.494	9093.38
907.731	9122.38
907.968	9052.38
908.205	8899.38
908.442	8867.38
908.679	8748.38
908.915	8788.38
909.152	8678.38
909.389	8582.38
909.626	8583.38
909.862	8506.38
910.099	8428.38
910.335	8407.38
910.572	8322.38
910.808	8341.38
911.045	8337.38
911.281	8357.38
911.518	8286.38
911.754	8242.38
911.99	8202.38
912.226	8127.38
912.463	8045.38
912.699	8051.38
912.935	7938.38
913.171	7866.38
913.407	7790.38
913.643	7795.38
913.879	7664.38
914.114	7583.38
914.35	7507.38
914.586	7483.38
914.822	7382.38
915.057	7373.38
915.293	7221.38
915.529	7249.38
915.764	7277.38
916	7295.38
916.235	7284.38
916.471	7180.38
916.706	7119.38
916.941	7167.38
917.177	7144.38
917.412	7182.38
917.647	7169.38
917.882	7088.38
918.117	7124.38
918.352	7086.38
918.588	7087.38
918.823	6979.38
919.057	6935.38
919.292	6752.38
919.527	6875.38
919.762	6690.38
919.997	6692.38
920.232	6606.38
920.466	6551.38
920.701	6442.38
920.935	6413.38
921.17	6379.38
921.405	6385.38
921.639	6330.38
921.873	6301.38
922.108	6304.38
922.342	6311.38
922.576	6184.38
922.811	6191.38
923.045	6204.38
923.279	6211.38
923.513	6102.38
923.747	6167.38
923.981	6086.38
924.215	6031.38
924.449	6000.38
924.683	5914.38
924.917	5864.38
925.151	5878.38
925.385	5931.38
925.618	5821.38
925.852	5841.38
926.086	5756.38
926.319	5808.38
926.553	5786.38
926.786	5770.38
927.02	5785.38
927.253	5745.38
927.486	5740.38
927.72	5714.38
927.953	5722.38
928.186	5688.38
928.42	5710.38
928.653	5611.38
928.886	5573.38
929.119	5594.38
929.352	5605.38
929.585	5571.38
929.818	5447.38
930.051	5423.38
930.284	5404.38
930.516	5268.38
930.749	5299.38
930.982	5305.38
931.215	5292.38
931.447	5147.38
931.68	5254.38
931.912	5154.38
932.145	5139.38
932.377	5214.38
932.61	5318.38
932.842	5102.38
933.074	5179.38
933.307	5122.38
933.539	5222.38
933.771	5219.38
934.003	5153.38
934.236	5224.38
934.468	5236.38
934.7	5098.38
934.932	5094.38
935.164	5110.38
935.395	5032.38
935.627	5033.38
935.859	5032.38
936.091	4961.38
936.323	4979.38
936.554	5018.38
936.786	4921.38
937.017	4867.38
937.249	4937.38
937.481	4809.38
937.712	4897.38
937.943	4914.38
938.175	4787.38
938.406	4822.38
938.637	4892.38
938.869	4783.38
939.1	4841.38
939.331	4800.38
939.562	4800.38
939.793	4789.38
940.024	4793.38
940.255	4806.38
940.486	4716.38
940.717	4700.38
940.948	4650.38
941.179	4619.38
941.409	4616.38
941.64	4589.38
941.871	4642.38
942.102	4584.38
942.332	4612.38
942.563	4651.38
942.793	4625.38
943.024	4586.38
943.254	4595.38
943.484	4590.38
943.715	4612.38
943.945	4580.38
944.175	4476.38
944.405	4466.38
944.636	4548.38
944.866	4546.38
945.096	4562.38
945.326	4508.38
945.556	4559.38
945.786	4512.38
946.016	4448.38
946.245	4401.38
946.475	4353.38
946.705	4343.38
946.935	4316.38
947.164	4321.38
947.394	4266.38
947.624	4230.38
947.853	4266.38
948.083	4255.38
948.312	4233.38
948.542	4139.38
948.771	4127.38
949	4165.38
949.23	4168.38
949.459	4145.38
949.688	4238.38
949.917	4162.38
950.146	4161.38
950.375	4192.38
950.604	4117.38
950.833	4201.38
951.062	4154.38
951.291	4134.38
951.52	4051.38
951.749	4098.38
951.978	4003.38
952.206	4031.38
952.435	3992.38
952.664	4038.38
952.892	4024.38
953.121	3966.38
953.349	4030.38
953.578	4007.38
953.806	3927.38
954.035	3918.38
954.263	3905.38
954.491	3839.38
954.719	3916.38
954.948	3834.38
955.176	3818.38
955.404	3734.38
955.632	3816.38
955.86	3814.38
956.088	3791.38
956.316	3778.38
956.544	3747.38
956.772	3699.38
956.999	3651.38
957.227	3771.38
957.455	3617.38
957.683	3657.38
957.91	3558.38
958.138	3630.38
958.365	3593.38
958.593	3557.38
958.82	3518.38
959.048	3587.38
959.275	3557.38
959.502	3534.38
959.73	3491.38
959.957	3507.38
960.184	3544.38
960.411	3453.38
960.638	3536.38
960.865	3504.38
961.092	3508.38
961.319	3420.38
961.546	3499.38
961.773	3501.38
962	3485.38
962.227	3479.38
962.454	3443.38
962.68	3419.38
962.907	3413.38
963.134	3360.38
963.36	3394.38
963.587	3371.38
963.813	3301.38
964.04	3349.38
964.266	3274.38
964.493	3295.38
964.719	3306.38
964.945	3290.38
965.171	3172.38
965.398	3188.38
965.624	3255.38
965.85	3141.38
966.076	3125.38
966.302	3229.38
966.528	3132.38
966.754	3193.38
966.98	3152.38
967.206	3145.38
967.431	3121.38
967.657	3194.38
967.883	3110.38
968.109	3087.38
968.334	3047.38
968.56	3036.38
968.785	3027.38
969.011	3014.38
969.236	3074.38
969.462	2976.38
969.687	3030.38
969.912	3029.38
970.138	3072.38
970.363	2986.38
970.588	3012.38
970.813	2965.38
971.038	2920.38
971.263	2920.38
971.488	2940.38
971.713	2973.38
971.938	2986.38
972.163	2834.38
972.388	2878.38
972.613	2819.38
972.838	2869.38
973.062	2868.38
973.287	2865.38
973.512	2749.38
973.736	2790.38
973.961	2769.38
974.185	2753.38
974.41	2765.38
974.634	2669.38
974.858	2690.38
975.083	2702.38
975.307	2717.38
975.531	2640.38
975.755	2599.38
975.98	2588.38
976.204	2539.38
976.428	2580.38
976.652	2556.38
976.876	2535.38
977.1	2581.38
977.324	2508.38
977.547	2560.38
977.771	2576.38
977.995	2563.38
978.219	2470.38
978.442	2598.38
978.666	2498.38
978.89	2506.38
979.113	2481.38
979.337	2496.38
979.56	2450.38
979.783	2551.38
980.007	2395.38
980.23	2461.38
980.453	2434.38
980.677	2442.38
980.9	2429.38
981.123	2340.38
981.346	2435.38
981.569	2409.38
981.792	2390.38
982.015	2367.38
982.238	2328.38
982.461	2342.38
982.684	2298.38
982.907	2286.38
983.129	2270.38
983.352	2320.38
983.575	2292.38
983.797	2283.38
984.02	2217.38
984.242	2218.38
984.465	2229.38
984.687	2262.38
984.91	2284.38
985.132	2230.38
985.354	2250.38
985.577	2213.38
985.799	2189.38
986.021	2139.38
986.243	2167.38
986.465	2163.38
986.687	2183.38
986.909	2241.38
987.131	2144.38
987.353	2137.38
987.575	2177.38
987.797	2121.38
988.019	2062.38
988.241	2115.38
988.462	2093.38
988.684	2142.38
988.906	2126.38
989.127	2158.38
989.349	2045.38
989.57	2104.38
989.792	2081.38
990.013	2122.38
990.234	2115.38
990.456	2170.38
990.677	2112.38
990.898	2065.38
991.119	2050.38
991.341	2063.38
991.562	2030.38
991.783	2030.38
992.004	1980.38
992.225	1948.38
992.446	1981.38
992.667	1911.38
992.887	1998.38
993.108	1907.38
993.329	2014.38
993.55	1960.38
993.77	1890.38
993.991	1867.38
994.212	1945.38
994.432	1929.38
994.653	1890.38
994.873	1914.38
995.093	1797.38
995.314	1797.38
995.534	1916.38
995.754	1904.38
995.975	1906.38
996.195	1818.38
996.415	1881.38
996.635	1824.38
996.855	1840.38
997.075	1842.38
997.295	1817.38
997.515	1804.38
997.735	1852.38
997.955	1801.38
998.174	1793.38
998.394	1767.38
998.614	1821.38
998.834	1784.38
999.053	1839.38
999.273	1769.38
999.492	1850.38
999.712	1751.38
999.931	1766.38
1000.151	1800.38
1000.37	1785.38
1000.589	1814.38
1000.809	1721.38
1001.028	1844.38
1001.247	1794.38
1001.466	1675.38
1001.685	1817.38
1001.904	1730.38
1002.123	1715.38
1002.342	1751.38
1002.561	1664.38
1002.78	1703.38
1002.999	1757.38
1003.218	1684.38
1003.436	1638.38
1003.655	1729.38
1003.874	1643.38
1004.092	1676.38
1004.311	1689.38
1004.53	1650.38
1004.748	1714.38
1004.966	1647.38
1005.185	1703.38
1005.403	1709.38
1005.622	1681.38
1005.84	1745.38
1006.058	1643.38
1006.276	1654.38
1006.494	2045.38
1006.712	1675.38
1006.931	1713.38
1007.149	1626.38
1007.367	1636.38
1007.584	1686.38
1007.802	1708.38
1008.02	1627.38
1008.238	1749.38
1008.456	1733.38
1008.673	1590.38
1008.891	1692.38
1009.109	1608.38
1009.326	1686.38
1009.544	1758.38
1009.761	1683.38
1009.979	1749.38
1010.196	1773.38
1010.413	1846.38
1010.631	1898.38
1010.848	1895.38
1011.065	1887.38
1011.282	1877.38
1011.5	1789.38
1011.717	1898.38
1011.934	1826.38
1012.151	1852.38
1012.368	1841.38
1012.585	1761.38
1012.801	1817.38
1013.018	1816.38
1013.235	1783.38
1013.452	1787.38
1013.669	1797.38
1013.885	1773.38
1014.102	1790.38
1014.318	1755.38
1014.535	1723.38
1014.751	1752.38
1014.968	1767.38
1015.184	1766.38
1015.401	1694.38
1015.617	1703.38
1015.833	1662.38
1016.049	1678.38
1016.266	1637.38
1016.482	1634.38
1016.698	1573.38
1016.914	1603.38
1017.13	1538.38
1017.346	1542.38
1017.562	1619.38
1017.778	1525.38
1017.993	1506.38
1018.209	1579.38
1018.425	1541.38
1018.641	1502.38
1018.856	1489.38
1019.072	1529.38
1019.288	1550.38
1019.503	1515.38
1019.719	1425.38
1019.934	1414.38
1020.149	1481.38
1020.365	1470.38
1020.58	1396.38
1020.795	1442.38
1021.011	1371.38
1021.226	1368.38
1021.441	1384.38
1021.656	1304.38
1021.871	1227.38
1022.086	1223.38
1022.301	1228.38
1022.516	1233.38
1022.731	1319.38
1022.946	1170.38
1023.16	1172.38
1023.375	1146.38
1023.59	1125.38
1023.804	1085.38
1024.019	1201.38
1024.234	1068.38
1024.448	1121.38
1024.663	1013.38
1024.877	1039.38
1025.092	1068.38
1025.306	1068.38
1025.52	962.38
1025.734	1047.38
1025.949	972.38
1026.163	956.38
1026.377	900.38
1026.591	933.38
1026.805	869.38
1027.019	863.38
1027.233	834.38
1027.447	775.38
1027.661	868.38
1027.875	834.38
1028.088	824.38
1028.302	749.38
1028.516	749.38
1028.73	751.38
1028.943	737.38
1029.157	675.38
1029.37	659.38
1029.584	0.38
1029.797	-3.62
1030.011	1.38
1030.224	0.38
