Data from QEP037381__165__11-16-55-919.txt Node

Date: Fri Apr 28 11:16:55 EDT 2023
User: dcclab
Spectrometer: QEP03738
Trigger mode: 4
Integration Time (sec): 1.000000E1
Scans to average: 1
Electric dark correction enabled: true
Nonlinearity correction enabled: false
Boxcar width: 0
XAxis mode: Wavelengths
Number of Pixels in Spectrum: 1044
>>>>>Begin Spectral Data<<<<<
784.041	11.25
784.3	0.25
784.558	-5.75
784.817	-3.75
785.075	84540.25
785.334	16862.25
785.592	8645.25
785.851	6046.25
786.109	4608.25
786.368	3520.25
786.626	2871.25
786.884	2371.25
787.143	1959.25
787.401	1619.25
787.659	1496.25
787.917	1265.25
788.175	1151.25
788.433	1010.25
788.691	908.25
788.949	833.25
789.207	809.25
789.465	695.25
789.723	670.25
789.98	601.25
790.238	667.25
790.496	598.25
790.753	558.25
791.011	610.25
791.268	546.25
791.526	530.25
791.783	549.25
792.041	527.25
792.298	448.25
792.556	497.25
792.813	485.25
793.07	463.25
793.327	454.25
793.584	524.25
793.841	471.25
794.099	467.25
794.356	521.25
794.613	437.25
794.869	459.25
795.126	417.25
795.383	428.25
795.64	428.25
795.897	395.25
796.153	453.25
796.41	421.25
796.667	411.25
796.923	423.25
797.18	441.25
797.436	468.25
797.693	423.25
797.949	462.25
798.206	498.25
798.462	410.25
798.718	477.25
798.974	460.25
799.231	490.25
799.487	476.25
799.743	491.25
799.999	524.25
800.255	515.25
800.511	495.25
800.767	541.25
801.023	543.25
801.279	567.25
801.534	620.25
801.79	690.25
802.046	720.25
802.302	883.25
802.557	1027.25
802.813	1342.25
803.068	1691.25
803.324	2460.25
803.579	3373.25
803.835	4711.25
804.09	6345.25
804.345	8036.25
804.601	9779.25
804.856	11231.25
805.111	12499.25
805.366	13295.25
805.621	13950.25
805.876	14340.25
806.131	14529.25
806.386	14951.25
806.641	15078.25
806.896	15308.25
807.151	15599.25
807.406	15776.25
807.661	16127.25
807.915	16254.25
808.17	16581.25
808.425	16774.25
808.679	16777.25
808.934	17109.25
809.188	17229.25
809.443	17463.25
809.697	17557.25
809.951	17807.25
810.206	17859.25
810.46	18099.25
810.714	18183.25
810.968	18419.25
811.223	18377.25
811.477	18689.25
811.731	18861.25
811.985	18813.25
812.239	18933.25
812.493	18908.25
812.747	18980.25
813	19015.25
813.254	19214.25
813.508	19254.25
813.762	19374.25
814.015	19453.25
814.269	19615.25
814.522	19757.25
814.776	19968.25
815.03	20094.25
815.283	20373.25
815.536	20686.25
815.79	21038.25
816.043	21232.25
816.296	21484.25
816.55	21713.25
816.803	21897.25
817.056	22350.25
817.309	22452.25
817.562	22676.25
817.815	22914.25
818.068	23193.25
818.321	23374.25
818.574	23615.25
818.827	23952.25
819.079	24333.25
819.332	24895.25
819.585	25172.25
819.838	25467.25
820.09	25524.25
820.343	25668.25
820.595	25825.25
820.848	25848.25
821.1	25987.25
821.353	25931.25
821.605	25875.25
821.857	25906.25
822.11	25748.25
822.362	25807.25
822.614	25778.25
822.866	25778.25
823.118	25828.25
823.37	25888.25
823.622	25934.25
823.874	26031.25
824.126	26150.25
824.378	26152.25
824.63	26243.25
824.882	26303.25
825.134	26261.25
825.385	26308.25
825.637	26069.25
825.888	26056.25
826.14	25913.25
826.392	25909.25
826.643	25620.25
826.895	25655.25
827.146	25527.25
827.397	25480.25
827.649	25554.25
827.9	25409.25
828.151	25447.25
828.402	25487.25
828.653	25614.25
828.905	25604.25
829.156	25739.25
829.407	25626.25
829.658	25810.25
829.909	25863.25
830.159	25886.25
830.41	25846.25
830.661	25467.25
830.912	25387.25
831.162	25301.25
831.413	25209.25
831.664	25301.25
831.914	25066.25
832.165	25127.25
832.415	25210.25
832.666	25097.25
832.916	25193.25
833.167	25033.25
833.417	25090.25
833.667	24939.25
833.917	24760.25
834.168	24856.25
834.418	24773.25
834.668	24678.25
834.918	24493.25
835.168	24434.25
835.418	24459.25
835.668	24265.25
835.918	24101.25
836.167	23988.25
836.417	24154.25
836.667	24118.25
836.917	24058.25
837.166	23944.25
837.416	24201.25
837.666	24005.25
837.915	24105.25
838.165	23829.25
838.414	23896.25
838.663	23704.25
838.913	23717.25
839.162	23785.25
839.411	23847.25
839.661	23605.25
839.91	23598.25
840.159	23570.25
840.408	23620.25
840.657	23744.25
840.906	23671.25
841.155	23632.25
841.404	23569.25
841.653	23695.25
841.902	23685.25
842.15	23701.25
842.399	23900.25
842.648	23659.25
842.897	23629.25
843.145	23402.25
843.394	23254.25
843.642	23030.25
843.891	22936.25
844.139	22847.25
844.388	22655.25
844.636	22590.25
844.884	22679.25
845.133	22559.25
845.381	22490.25
845.629	22641.25
845.877	22495.25
846.125	22472.25
846.373	22411.25
846.621	22410.25
846.869	22251.25
847.117	22063.25
847.365	22021.25
847.613	21978.25
847.861	21875.25
848.108	22008.25
848.356	21983.25
848.604	21783.25
848.851	21817.25
849.099	21829.25
849.346	21945.25
849.594	22081.25
849.841	22097.25
850.089	22140.25
850.336	22180.25
850.583	22107.25
850.831	21939.25
851.078	21831.25
851.325	21754.25
851.572	21834.25
851.819	21585.25
852.066	21205.25
852.313	20849.25
852.56	20608.25
852.807	20648.25
853.054	20576.25
853.301	20521.25
853.548	20636.25
853.794	20782.25
854.041	20830.25
854.288	20845.25
854.534	21093.25
854.781	21057.25
855.028	21021.25
855.274	21003.25
855.52	20961.25
855.767	20945.25
856.013	21115.25
856.26	21265.25
856.506	20666.25
856.752	20568.25
856.998	20594.25
857.244	20606.25
857.49	20752.25
857.736	20836.25
857.982	20757.25
858.228	20515.25
858.474	20437.25
858.72	20253.25
858.966	19977.25
859.212	19900.25
859.458	19588.25
859.703	19442.25
859.949	19289.25
860.195	19097.25
860.44	19132.25
860.686	19200.25
860.931	19187.25
861.177	18912.25
861.422	18787.25
861.667	18531.25
861.913	18652.25
862.158	18606.25
862.403	18663.25
862.648	18676.25
862.893	18691.25
863.138	18649.25
863.384	18492.25
863.629	18530.25
863.873	18507.25
864.118	18438.25
864.363	18300.25
864.608	18326.25
864.853	18125.25
865.098	17962.25
865.342	17941.25
865.587	17871.25
865.832	17901.25
866.076	17856.25
866.321	17777.25
866.565	17735.25
866.81	17626.25
867.054	17623.25
867.298	17572.25
867.543	17489.25
867.787	17563.25
868.031	17479.25
868.275	17494.25
868.519	17473.25
868.764	17442.25
869.008	17452.25
869.252	17465.25
869.496	17389.25
869.739	17380.25
869.983	17375.25
870.227	17478.25
870.471	17364.25
870.715	17530.25
870.958	17539.25
871.202	17509.25
871.446	17653.25
871.689	17619.25
871.933	17515.25
872.176	17511.25
872.42	17475.25
872.663	17495.25
872.906	17487.25
873.15	17584.25
873.393	17537.25
873.636	17497.25
873.879	17218.25
874.122	17034.25
874.366	16676.25
874.609	16538.25
874.852	16367.25
875.095	16402.25
875.337	16221.25
875.58	16036.25
875.823	16133.25
876.066	16027.25
876.309	16024.25
876.551	15796.25
876.794	15755.25
877.037	15736.25
877.279	15771.25
877.522	15745.25
877.764	15760.25
878.007	15648.25
878.249	15620.25
878.491	15511.25
878.734	15444.25
878.976	15390.25
879.218	15339.25
879.46	15244.25
879.702	15125.25
879.945	15029.25
880.187	14873.25
880.429	14797.25
880.671	14625.25
880.912	14635.25
881.154	14587.25
881.396	14447.25
881.638	14480.25
881.88	14476.25
882.121	14427.25
882.363	14491.25
882.605	14520.25
882.846	14474.25
883.088	14493.25
883.329	14579.25
883.571	14619.25
883.812	14911.25
884.053	15302.25
884.295	15674.25
884.536	15979.25
884.777	15739.25
885.018	15627.25
885.259	15437.25
885.5	15297.25
885.742	15440.25
885.982	15192.25
886.223	15087.25
886.464	14797.25
886.705	14675.25
886.946	14393.25
887.187	14183.25
887.428	13916.25
887.668	13624.25
887.909	13424.25
888.15	13306.25
888.39	13206.25
888.631	13077.25
888.871	12987.25
889.111	12847.25
889.352	12796.25
889.592	12721.25
889.833	12560.25
890.073	12441.25
890.313	12465.25
890.553	12295.25
890.793	12224.25
891.033	12181.25
891.273	12051.25
891.513	12016.25
891.753	12093.25
891.993	12070.25
892.233	12061.25
892.473	12062.25
892.713	12075.25
892.952	12005.25
893.192	12068.25
893.432	11985.25
893.671	11992.25
893.911	11902.25
894.15	11842.25
894.39	11665.25
894.629	11636.25
894.869	11627.25
895.108	11481.25
895.347	11451.25
895.587	11420.25
895.826	11412.25
896.065	11381.25
896.304	11331.25
896.543	11326.25
896.782	11269.25
897.021	11311.25
897.26	11183.25
897.499	11247.25
897.738	11268.25
897.977	11077.25
898.216	10997.25
898.454	10894.25
898.693	10830.25
898.932	10813.25
899.17	10777.25
899.409	10771.25
899.647	10713.25
899.886	10713.25
900.124	10774.25
900.363	10790.25
900.601	10801.25
900.839	10795.25
901.078	10868.25
901.316	10890.25
901.554	10972.25
901.792	11123.25
902.03	11082.25
902.268	11034.25
902.506	10979.25
902.744	10926.25
902.982	10818.25
903.22	10686.25
903.458	10463.25
903.695	10308.25
903.933	10134.25
904.171	9959.25
904.409	9793.25
904.646	9742.25
904.884	9500.25
905.121	9516.25
905.359	9315.25
905.596	9232.25
905.833	9220.25
906.071	9180.25
906.308	9172.25
906.545	9150.25
906.783	9068.25
907.02	9091.25
907.257	9017.25
907.494	8954.25
907.731	9020.25
907.968	8972.25
908.205	8898.25
908.442	8867.25
908.679	8883.25
908.915	8717.25
909.152	8611.25
909.389	8535.25
909.626	8475.25
909.862	8410.25
910.099	8379.25
910.335	8387.25
910.572	8268.25
910.808	8367.25
911.045	8250.25
911.281	8213.25
911.518	8229.25
911.754	8173.25
911.99	8111.25
912.226	8072.25
912.463	7921.25
912.699	7920.25
912.935	7853.25
913.171	7788.25
913.407	7719.25
913.643	7696.25
913.879	7660.25
914.114	7506.25
914.35	7486.25
914.586	7416.25
914.822	7312.25
915.057	7377.25
915.293	7290.25
915.529	7196.25
915.764	7319.25
916	7240.25
916.235	7206.25
916.471	7222.25
916.706	7118.25
916.941	7179.25
917.177	7137.25
917.412	7098.25
917.647	7123.25
917.882	7038.25
918.117	7051.25
918.352	7070.25
918.588	7009.25
918.823	6919.25
919.057	6853.25
919.292	6738.25
919.527	6802.25
919.762	6687.25
919.997	6699.25
920.232	6543.25
920.466	6554.25
920.701	6358.25
920.935	6398.25
921.17	6334.25
921.405	6260.25
921.639	6324.25
921.873	6239.25
922.108	6228.25
922.342	6286.25
922.576	6201.25
922.811	6164.25
923.045	6206.25
923.279	6205.25
923.513	6034.25
923.747	6103.25
923.981	6007.25
924.215	5997.25
924.449	5964.25
924.683	5840.25
924.917	5897.25
925.151	5855.25
925.385	5900.25
925.618	5836.25
925.852	5787.25
926.086	5713.25
926.319	5794.25
926.553	5801.25
926.786	5767.25
927.02	5679.25
927.253	5781.25
927.486	5763.25
927.72	5651.25
927.953	5709.25
928.186	5673.25
928.42	5698.25
928.653	5635.25
928.886	5569.25
929.119	5580.25
929.352	5557.25
929.585	5502.25
929.818	5421.25
930.051	5476.25
930.284	5420.25
930.516	5279.25
930.749	5293.25
930.982	5331.25
931.215	5232.25
931.447	5207.25
931.68	5161.25
931.912	5174.25
932.145	5178.25
932.377	5169.25
932.61	5288.25
932.842	5092.25
933.074	5216.25
933.307	5126.25
933.539	5273.25
933.771	5259.25
934.003	5126.25
934.236	5203.25
934.468	5234.25
934.7	5123.25
934.932	5196.25
935.164	5099.25
935.395	5110.25
935.627	5104.25
935.859	5076.25
936.091	4958.25
936.323	5045.25
936.554	5056.25
936.786	4959.25
937.017	4909.25
937.249	4944.25
937.481	4894.25
937.712	4916.25
937.943	4852.25
938.175	4820.25
938.406	4867.25
938.637	4946.25
938.869	4809.25
939.1	4871.25
939.331	4774.25
939.562	4793.25
939.793	4774.25
940.024	4823.25
940.255	4817.25
940.486	4759.25
940.717	4732.25
940.948	4680.25
941.179	4642.25
941.409	4640.25
941.64	4617.25
941.871	4654.25
942.102	4622.25
942.332	4634.25
942.563	4697.25
942.793	4646.25
943.024	4574.25
943.254	4616.25
943.484	4655.25
943.715	4636.25
943.945	4640.25
944.175	4555.25
944.405	4544.25
944.636	4537.25
944.866	4568.25
945.096	4566.25
945.326	4528.25
945.556	4507.25
945.786	4548.25
946.016	4437.25
946.245	4407.25
946.475	4409.25
946.705	4427.25
946.935	4376.25
947.164	4340.25
947.394	4272.25
947.624	4297.25
947.853	4327.25
948.083	4267.25
948.312	4241.25
948.542	4163.25
948.771	4161.25
949	4216.25
949.23	4214.25
949.459	4194.25
949.688	4280.25
949.917	4184.25
950.146	4227.25
950.375	4228.25
950.604	4148.25
950.833	4224.25
951.062	4197.25
951.291	4115.25
951.52	4131.25
951.749	4110.25
951.978	4051.25
952.206	4066.25
952.435	4058.25
952.664	4043.25
952.892	4043.25
953.121	4051.25
953.349	4017.25
953.578	4030.25
953.806	3971.25
954.035	3896.25
954.263	3998.25
954.491	3850.25
954.719	3928.25
954.948	3875.25
955.176	3884.25
955.404	3766.25
955.632	3814.25
955.86	3854.25
956.088	3813.25
956.316	3873.25
956.544	3817.25
956.772	3720.25
956.999	3698.25
957.227	3783.25
957.455	3732.25
957.683	3685.25
957.91	3634.25
958.138	3607.25
958.365	3610.25
958.593	3606.25
958.82	3533.25
959.048	3617.25
959.275	3585.25
959.502	3580.25
959.73	3523.25
959.957	3572.25
960.184	3595.25
960.411	3485.25
960.638	3619.25
960.865	3534.25
961.092	3531.25
961.319	3473.25
961.546	3554.25
961.773	3509.25
962	3493.25
962.227	3544.25
962.454	3491.25
962.68	3432.25
962.907	3489.25
963.134	3399.25
963.36	3401.25
963.587	3416.25
963.813	3338.25
964.04	3401.25
964.266	3306.25
964.493	3373.25
964.719	3321.25
964.945	3321.25
965.171	3184.25
965.398	3247.25
965.624	3268.25
965.85	3190.25
966.076	3195.25
966.302	3216.25
966.528	3180.25
966.754	3193.25
966.98	3156.25
967.206	3189.25
967.431	3079.25
967.657	3181.25
967.883	3157.25
968.109	3120.25
968.334	3064.25
968.56	3057.25
968.785	3085.25
969.011	3060.25
969.236	3107.25
969.462	3005.25
969.687	3030.25
969.912	3054.25
970.138	3067.25
970.363	2981.25
970.588	3004.25
970.813	2972.25
971.038	2924.25
971.263	2998.25
971.488	2978.25
971.713	3000.25
971.938	2990.25
972.163	2881.25
972.388	2860.25
972.613	2853.25
972.838	2849.25
973.062	2860.25
973.287	2890.25
973.512	2798.25
973.736	2812.25
973.961	2787.25
974.185	2796.25
974.41	2788.25
974.634	2719.25
974.858	2717.25
975.083	2732.25
975.307	2752.25
975.531	2700.25
975.755	2643.25
975.98	2643.25
976.204	2590.25
976.428	2588.25
976.652	2608.25
976.876	2572.25
977.1	2599.25
977.324	2575.25
977.547	2602.25
977.771	2626.25
977.995	2604.25
978.219	2475.25
978.442	2599.25
978.666	2535.25
978.89	2557.25
979.113	2564.25
979.337	2515.25
979.56	2480.25
979.783	2561.25
980.007	2465.25
980.23	2487.25
980.453	2449.25
980.677	2457.25
980.9	2498.25
981.123	2351.25
981.346	2471.25
981.569	2434.25
981.792	2442.25
982.015	2426.25
982.238	2414.25
982.461	2378.25
982.684	2348.25
982.907	2286.25
983.129	2308.25
983.352	2352.25
983.575	2335.25
983.797	2328.25
984.02	2266.25
984.242	2278.25
984.465	2271.25
984.687	2296.25
984.91	2309.25
985.132	2295.25
985.354	2276.25
985.577	2290.25
985.799	2273.25
986.021	2178.25
986.243	2187.25
986.465	2212.25
986.687	2250.25
986.909	2295.25
987.131	2219.25
987.353	2191.25
987.575	2200.25
987.797	2189.25
988.019	2130.25
988.241	2185.25
988.462	2111.25
988.684	2194.25
988.906	2237.25
989.127	2201.25
989.349	2103.25
989.57	2140.25
989.792	2158.25
990.013	2179.25
990.234	2195.25
990.456	2217.25
990.677	2183.25
990.898	2074.25
991.119	2117.25
991.341	2134.25
991.562	2056.25
991.783	2094.25
992.004	2032.25
992.225	2011.25
992.446	2075.25
992.667	1963.25
992.887	2056.25
993.108	1930.25
993.329	2077.25
993.55	1988.25
993.77	1942.25
993.991	1961.25
994.212	1988.25
994.432	1957.25
994.653	1951.25
994.873	1960.25
995.093	1830.25
995.314	1858.25
995.534	1950.25
995.754	1954.25
995.975	1977.25
996.195	1876.25
996.415	1922.25
996.635	1911.25
996.855	1938.25
997.075	1883.25
997.295	1895.25
997.515	1877.25
997.735	1919.25
997.955	1908.25
998.174	1888.25
998.394	1850.25
998.614	1915.25
998.834	1868.25
999.053	1910.25
999.273	1860.25
999.492	1926.25
999.712	1878.25
999.931	1826.25
1000.151	1859.25
1000.37	1827.25
1000.589	1884.25
1000.809	1796.25
1001.028	1897.25
1001.247	1832.25
1001.466	1732.25
1001.685	1859.25
1001.904	1793.25
1002.123	1802.25
1002.342	1791.25
1002.561	1713.25
1002.78	1763.25
1002.999	1805.25
1003.218	1763.25
1003.436	1749.25
1003.655	1803.25
1003.874	1713.25
1004.092	1736.25
1004.311	1771.25
1004.53	1740.25
1004.748	1795.25
1004.966	1739.25
1005.185	1774.25
1005.403	1774.25
1005.622	1746.25
1005.84	1807.25
1006.058	1725.25
1006.276	1723.25
1006.494	2104.25
1006.712	1722.25
1006.931	1804.25
1007.149	1709.25
1007.367	1748.25
1007.584	1748.25
1007.802	1797.25
1008.02	1752.25
1008.238	1875.25
1008.456	1887.25
1008.673	1762.25
1008.891	1886.25
1009.109	1864.25
1009.326	1945.25
1009.544	2014.25
1009.761	1967.25
1009.979	2105.25
1010.196	2181.25
1010.413	2290.25
1010.631	2418.25
1010.848	2420.25
1011.065	2474.25
1011.282	2422.25
1011.5	2314.25
1011.717	2474.25
1011.934	2349.25
1012.151	2412.25
1012.368	2382.25
1012.585	2289.25
1012.801	2365.25
1013.018	2366.25
1013.235	2318.25
1013.452	2325.25
1013.669	2369.25
1013.885	2340.25
1014.102	2397.25
1014.318	2360.25
1014.535	2344.25
1014.751	2337.25
1014.968	2329.25
1015.184	2326.25
1015.401	2271.25
1015.617	2266.25
1015.833	2171.25
1016.049	2177.25
1016.266	2162.25
1016.482	2173.25
1016.698	2062.25
1016.914	2103.25
1017.13	2042.25
1017.346	2040.25
1017.562	2074.25
1017.778	2002.25
1017.993	1992.25
1018.209	2055.25
1018.425	1972.25
1018.641	2010.25
1018.856	1943.25
1019.072	1981.25
1019.288	2037.25
1019.503	1981.25
1019.719	1888.25
1019.934	1864.25
1020.149	1939.25
1020.365	1878.25
1020.58	1817.25
1020.795	1839.25
1021.011	1757.25
1021.226	1707.25
1021.441	1715.25
1021.656	1628.25
1021.871	1569.25
1022.086	1519.25
1022.301	1515.25
1022.516	1503.25
1022.731	1526.25
1022.946	1463.25
1023.16	1448.25
1023.375	1378.25
1023.59	1333.25
1023.804	1324.25
1024.019	1367.25
1024.234	1268.25
1024.448	1315.25
1024.663	1198.25
1024.877	1221.25
1025.092	1217.25
1025.306	1234.25
1025.52	1130.25
1025.734	1189.25
1025.949	1093.25
1026.163	1064.25
1026.377	998.25
1026.591	1035.25
1026.805	965.25
1027.019	972.25
1027.233	943.25
1027.447	893.25
1027.661	973.25
1027.875	905.25
1028.088	918.25
1028.302	820.25
1028.516	822.25
1028.73	829.25
1028.943	797.25
1029.157	751.25
1029.37	692.25
1029.584	2.25
1029.797	-1.75
1030.011	-0.75
1030.224	-1.75
