Data from QEP037381__170__11-17-45-919.txt Node

Date: Fri Apr 28 11:17:45 EDT 2023
User: dcclab
Spectrometer: QEP03738
Trigger mode: 4
Integration Time (sec): 1.000000E1
Scans to average: 1
Electric dark correction enabled: true
Nonlinearity correction enabled: false
Boxcar width: 0
XAxis mode: Wavelengths
Number of Pixels in Spectrum: 1044
>>>>>Begin Spectral Data<<<<<
784.041	10.75
784.3	0.75
784.558	0.75
784.817	-2.25
785.075	78727.75
785.334	15845.75
785.592	8307.75
785.851	5865.75
786.109	4424.75
786.368	3431.75
786.626	2768.75
786.884	2300.75
787.143	1948.75
787.401	1573.75
787.659	1387.75
787.917	1217.75
788.175	1137.75
788.433	978.75
788.691	850.75
788.949	804.75
789.207	765.75
789.465	668.75
789.723	645.75
789.98	564.75
790.238	636.75
790.496	584.75
790.753	550.75
791.011	608.75
791.268	526.75
791.526	518.75
791.783	547.75
792.041	521.75
792.298	430.75
792.556	500.75
792.813	476.75
793.07	451.75
793.327	437.75
793.584	498.75
793.841	455.75
794.099	469.75
794.356	538.75
794.613	418.75
794.869	465.75
795.126	414.75
795.383	405.75
795.64	439.75
795.897	390.75
796.153	448.75
796.41	429.75
796.667	413.75
796.923	414.75
797.18	427.75
797.436	448.75
797.693	405.75
797.949	466.75
798.206	485.75
798.462	399.75
798.718	467.75
798.974	442.75
799.231	502.75
799.487	482.75
799.743	489.75
799.999	503.75
800.255	508.75
800.511	483.75
800.767	524.75
801.023	528.75
801.279	552.75
801.534	616.75
801.79	673.75
802.046	695.75
802.302	869.75
802.557	981.75
802.813	1284.75
803.068	1605.75
803.324	2335.75
803.579	3196.75
803.835	4456.75
804.09	5966.75
804.345	7601.75
804.601	9177.75
804.856	10680.75
805.111	11829.75
805.366	12548.75
805.621	13157.75
805.876	13480.75
806.131	13841.75
806.386	14053.75
806.641	14169.75
806.896	14419.75
807.151	14726.75
807.406	14830.75
807.661	15100.75
807.915	15411.75
808.17	15622.75
808.425	15841.75
808.679	15863.75
808.934	16224.75
809.188	16282.75
809.443	16437.75
809.697	16703.75
809.951	16588.75
810.206	16885.75
810.46	17057.75
810.714	17277.75
810.968	17255.75
811.223	17393.75
811.477	17643.75
811.731	17734.75
811.985	17755.75
812.239	17795.75
812.493	17923.75
812.747	17880.75
813	17950.75
813.254	18000.75
813.508	18239.75
813.762	18238.75
814.015	18242.75
814.269	18411.75
814.522	18470.75
814.776	18670.75
815.03	18872.75
815.283	19057.75
815.536	19396.75
815.79	19773.75
816.043	20071.75
816.296	20131.75
816.55	20365.75
816.803	20660.75
817.056	20995.75
817.309	21112.75
817.562	21346.75
817.815	21672.75
818.068	21742.75
818.321	22075.75
818.574	22256.75
818.827	22495.75
819.079	22918.75
819.332	23328.75
819.585	23619.75
819.838	23816.75
820.09	24000.75
820.343	24029.75
820.595	24194.75
820.848	24281.75
821.1	24529.75
821.353	24511.75
821.605	24357.75
821.857	24477.75
822.11	24217.75
822.362	24181.75
822.614	24149.75
822.866	24217.75
823.118	24153.75
823.37	24274.75
823.622	24452.75
823.874	24451.75
824.126	24643.75
824.378	24594.75
824.63	24586.75
824.882	24608.75
825.134	24645.75
825.385	24639.75
825.637	24618.75
825.888	24441.75
826.14	24401.75
826.392	24180.75
826.643	24066.75
826.895	23941.75
827.146	24020.75
827.397	23897.75
827.649	23917.75
827.9	23801.75
828.151	23851.75
828.402	23944.75
828.653	24067.75
828.905	24078.75
829.156	24104.75
829.407	24178.75
829.658	24299.75
829.909	24449.75
830.159	24447.75
830.41	24185.75
830.661	23919.75
830.912	23790.75
831.162	23660.75
831.413	23727.75
831.664	23882.75
831.914	23680.75
832.165	23623.75
832.415	23594.75
832.666	23616.75
832.916	23726.75
833.167	23491.75
833.417	23520.75
833.667	23497.75
833.917	23332.75
834.168	23417.75
834.418	23227.75
834.668	23172.75
834.918	23019.75
835.168	23072.75
835.418	22929.75
835.668	22806.75
835.918	22765.75
836.167	22705.75
836.417	22720.75
836.667	22668.75
836.917	22630.75
837.166	22682.75
837.416	22625.75
837.666	22616.75
837.915	22589.75
838.165	22558.75
838.414	22385.75
838.663	22319.75
838.913	22432.75
839.162	22436.75
839.411	22437.75
839.661	22322.75
839.91	22183.75
840.159	22169.75
840.408	22358.75
840.657	22216.75
840.906	22222.75
841.155	22233.75
841.404	22182.75
841.653	22231.75
841.902	22176.75
842.15	22276.75
842.399	22358.75
842.648	22267.75
842.897	22263.75
843.145	21994.75
843.394	21817.75
843.642	21796.75
843.891	21721.75
844.139	21466.75
844.388	21349.75
844.636	21266.75
844.884	21170.75
845.133	21250.75
845.381	21133.75
845.629	21195.75
845.877	21236.75
846.125	21134.75
846.373	21128.75
846.621	21006.75
846.869	20950.75
847.117	20875.75
847.365	20704.75
847.613	20709.75
847.861	20687.75
848.108	20671.75
848.356	20666.75
848.604	20591.75
848.851	20571.75
849.099	20567.75
849.346	20636.75
849.594	20681.75
849.841	20741.75
850.089	20772.75
850.336	20785.75
850.583	20804.75
850.831	20751.75
851.078	20460.75
851.325	20596.75
851.572	20463.75
851.819	20392.75
852.066	19984.75
852.313	19651.75
852.56	19545.75
852.807	19442.75
853.054	19470.75
853.301	19453.75
853.548	19495.75
853.794	19551.75
854.041	19640.75
854.288	19704.75
854.534	20004.75
854.781	19891.75
855.028	19821.75
855.274	19857.75
855.52	19795.75
855.767	19795.75
856.013	19821.75
856.26	20142.75
856.506	19539.75
856.752	19329.75
856.998	19542.75
857.244	19467.75
857.49	19559.75
857.736	19607.75
857.982	19625.75
858.228	19518.75
858.474	19255.75
858.72	19129.75
858.966	18790.75
859.212	18795.75
859.458	18590.75
859.703	18491.75
859.949	18122.75
860.195	18085.75
860.44	18115.75
860.686	18061.75
860.931	18131.75
861.177	17850.75
861.422	17721.75
861.667	17589.75
861.913	17580.75
862.158	17546.75
862.403	17564.75
862.648	17675.75
862.893	17717.75
863.138	17584.75
863.384	17519.75
863.629	17496.75
863.873	17450.75
864.118	17508.75
864.363	17243.75
864.608	17247.75
864.853	17148.75
865.098	17020.75
865.342	16898.75
865.587	16872.75
865.832	16806.75
866.076	16851.75
866.321	16792.75
866.565	16841.75
866.81	16600.75
867.054	16629.75
867.298	16573.75
867.543	16496.75
867.787	16645.75
868.031	16524.75
868.275	16507.75
868.519	16497.75
868.764	16480.75
869.008	16463.75
869.252	16566.75
869.496	16379.75
869.739	16297.75
869.983	16466.75
870.227	16498.75
870.471	16489.75
870.715	16580.75
870.958	16600.75
871.202	16626.75
871.446	16634.75
871.689	16547.75
871.933	16563.75
872.176	16577.75
872.42	16421.75
872.663	16521.75
872.906	16475.75
873.15	16666.75
873.393	16554.75
873.636	16625.75
873.879	16300.75
874.122	16148.75
874.366	15822.75
874.609	15700.75
874.852	15500.75
875.095	15422.75
875.337	15349.75
875.58	15155.75
875.823	15124.75
876.066	15094.75
876.309	15108.75
876.551	15023.75
876.794	14843.75
877.037	14906.75
877.279	14844.75
877.522	14868.75
877.764	14897.75
878.007	14807.75
878.249	14762.75
878.491	14708.75
878.734	14724.75
878.976	14538.75
879.218	14471.75
879.46	14385.75
879.702	14319.75
879.945	14221.75
880.187	14080.75
880.429	13917.75
880.671	13921.75
880.912	13875.75
881.154	13816.75
881.396	13649.75
881.638	13747.75
881.88	13711.75
882.121	13659.75
882.363	13670.75
882.605	13786.75
882.846	13639.75
883.088	13658.75
883.329	13741.75
883.571	13912.75
883.812	14146.75
884.053	14560.75
884.295	14943.75
884.536	15153.75
884.777	14935.75
885.018	14807.75
885.259	14689.75
885.5	14563.75
885.742	14600.75
885.982	14431.75
886.223	14262.75
886.464	14051.75
886.705	13846.75
886.946	13679.75
887.187	13275.75
887.428	13232.75
887.668	13036.75
887.909	12822.75
888.15	12545.75
888.39	12517.75
888.631	12441.75
888.871	12229.75
889.111	12154.75
889.352	12080.75
889.592	11997.75
889.833	11932.75
890.073	11788.75
890.313	11888.75
890.553	11585.75
890.793	11581.75
891.033	11496.75
891.273	11500.75
891.513	11473.75
891.753	11487.75
891.993	11398.75
892.233	11480.75
892.473	11427.75
892.713	11370.75
892.952	11346.75
893.192	11423.75
893.432	11389.75
893.671	11396.75
893.911	11340.75
894.15	11235.75
894.39	11094.75
894.629	11023.75
894.869	10985.75
895.108	10950.75
895.347	10951.75
895.587	10848.75
895.826	10785.75
896.065	10749.75
896.304	10768.75
896.543	10733.75
896.782	10623.75
897.021	10632.75
897.26	10648.75
897.499	10653.75
897.738	10641.75
897.977	10474.75
898.216	10434.75
898.454	10357.75
898.693	10267.75
898.932	10244.75
899.17	10199.75
899.409	10152.75
899.647	10209.75
899.886	10147.75
900.124	10222.75
900.363	10200.75
900.601	10231.75
900.839	10266.75
901.078	10342.75
901.316	10345.75
901.554	10471.75
901.792	10505.75
902.03	10511.75
902.268	10519.75
902.506	10423.75
902.744	10397.75
902.982	10264.75
903.22	10145.75
903.458	9897.75
903.695	9823.75
903.933	9707.75
904.171	9408.75
904.409	9271.75
904.646	9191.75
904.884	9047.75
905.121	8996.75
905.359	8901.75
905.596	8825.75
905.833	8690.75
906.071	8635.75
906.308	8743.75
906.545	8664.75
906.783	8569.75
907.02	8599.75
907.257	8556.75
907.494	8549.75
907.731	8562.75
907.968	8503.75
908.205	8430.75
908.442	8323.75
908.679	8381.75
908.915	8301.75
909.152	8251.75
909.389	8107.75
909.626	8025.75
909.862	8014.75
910.099	7979.75
910.335	7941.75
910.572	7844.75
910.808	7927.75
911.045	7823.75
911.281	7763.75
911.518	7872.75
911.754	7716.75
911.99	7753.75
912.226	7620.75
912.463	7598.75
912.699	7515.75
912.935	7415.75
913.171	7430.75
913.407	7312.75
913.643	7310.75
913.879	7274.75
914.114	7215.75
914.35	7065.75
914.586	7063.75
914.822	6923.75
915.057	7032.75
915.293	6863.75
915.529	6859.75
915.764	6963.75
916	6878.75
916.235	6866.75
916.471	6830.75
916.706	6755.75
916.941	6818.75
917.177	6741.75
917.412	6805.75
917.647	6774.75
917.882	6715.75
918.117	6736.75
918.352	6714.75
918.588	6676.75
918.823	6582.75
919.057	6496.75
919.292	6344.75
919.527	6457.75
919.762	6343.75
919.997	6321.75
920.232	6217.75
920.466	6206.75
920.701	6066.75
920.935	6076.75
921.17	6021.75
921.405	6042.75
921.639	6037.75
921.873	5998.75
922.108	5984.75
922.342	5911.75
922.576	5919.75
922.811	5921.75
923.045	5918.75
923.279	5910.75
923.513	5787.75
923.747	5828.75
923.981	5740.75
924.215	5686.75
924.449	5690.75
924.683	5623.75
924.917	5601.75
925.151	5582.75
925.385	5594.75
925.618	5546.75
925.852	5603.75
926.086	5451.75
926.319	5540.75
926.553	5530.75
926.786	5515.75
927.02	5457.75
927.253	5496.75
927.486	5513.75
927.72	5376.75
927.953	5427.75
928.186	5331.75
928.42	5420.75
928.653	5357.75
928.886	5336.75
929.119	5322.75
929.352	5284.75
929.585	5312.75
929.818	5198.75
930.051	5181.75
930.284	5166.75
930.516	5030.75
930.749	5022.75
930.982	5060.75
931.215	5045.75
931.447	4943.75
931.68	4982.75
931.912	4946.75
932.145	4910.75
932.377	4902.75
932.61	5058.75
932.842	4883.75
933.074	4952.75
933.307	4909.75
933.539	4983.75
933.771	4981.75
934.003	4896.75
934.236	4940.75
934.468	4993.75
934.7	4919.75
934.932	4926.75
935.164	4879.75
935.395	4818.75
935.627	4902.75
935.859	4815.75
936.091	4742.75
936.323	4780.75
936.554	4816.75
936.786	4770.75
937.017	4654.75
937.249	4729.75
937.481	4623.75
937.712	4654.75
937.943	4675.75
938.175	4617.75
938.406	4674.75
938.637	4672.75
938.869	4590.75
939.1	4607.75
939.331	4626.75
939.562	4629.75
939.793	4626.75
940.024	4640.75
940.255	4597.75
940.486	4530.75
940.717	4489.75
940.948	4490.75
941.179	4455.75
941.409	4437.75
941.64	4385.75
941.871	4444.75
942.102	4351.75
942.332	4417.75
942.563	4464.75
942.793	4442.75
943.024	4391.75
943.254	4408.75
943.484	4454.75
943.715	4442.75
943.945	4361.75
944.175	4312.75
944.405	4299.75
944.636	4337.75
944.866	4363.75
945.096	4374.75
945.326	4298.75
945.556	4335.75
945.786	4326.75
946.016	4284.75
946.245	4222.75
946.475	4176.75
946.705	4180.75
946.935	4177.75
947.164	4181.75
947.394	4106.75
947.624	4117.75
947.853	4167.75
948.083	4103.75
948.312	4087.75
948.542	4010.75
948.771	3989.75
949	4028.75
949.23	3986.75
949.459	4006.75
949.688	4048.75
949.917	4003.75
950.146	4071.75
950.375	4024.75
950.604	3956.75
950.833	4060.75
951.062	4005.75
951.291	4039.75
951.52	3962.75
951.749	3954.75
951.978	3873.75
952.206	3902.75
952.435	3866.75
952.664	3904.75
952.892	3885.75
953.121	3869.75
953.349	3872.75
953.578	3865.75
953.806	3856.75
954.035	3769.75
954.263	3794.75
954.491	3685.75
954.719	3731.75
954.948	3728.75
955.176	3727.75
955.404	3602.75
955.632	3694.75
955.86	3680.75
956.088	3619.75
956.316	3668.75
956.544	3666.75
956.772	3600.75
956.999	3578.75
957.227	3611.75
957.455	3556.75
957.683	3570.75
957.91	3517.75
958.138	3482.75
958.365	3480.75
958.593	3454.75
958.82	3423.75
959.048	3459.75
959.275	3484.75
959.502	3425.75
959.73	3390.75
959.957	3428.75
960.184	3458.75
960.411	3386.75
960.638	3434.75
960.865	3403.75
961.092	3442.75
961.319	3301.75
961.546	3408.75
961.773	3415.75
962	3380.75
962.227	3427.75
962.454	3331.75
962.68	3300.75
962.907	3327.75
963.134	3281.75
963.36	3261.75
963.587	3252.75
963.813	3201.75
964.04	3255.75
964.266	3148.75
964.493	3214.75
964.719	3218.75
964.945	3204.75
965.171	3109.75
965.398	3112.75
965.624	3190.75
965.85	3068.75
966.076	3071.75
966.302	3095.75
966.528	3030.75
966.754	3097.75
966.98	3069.75
967.206	3056.75
967.431	2985.75
967.657	3077.75
967.883	3016.75
968.109	3009.75
968.334	2971.75
968.56	2950.75
968.785	2966.75
969.011	2953.75
969.236	3004.75
969.462	2919.75
969.687	2936.75
969.912	2962.75
970.138	2968.75
970.363	2896.75
970.588	2895.75
970.813	2892.75
971.038	2887.75
971.263	2905.75
971.488	2886.75
971.713	2903.75
971.938	2877.75
972.163	2760.75
972.388	2768.75
972.613	2767.75
972.838	2793.75
973.062	2757.75
973.287	2753.75
973.512	2693.75
973.736	2728.75
973.961	2729.75
974.185	2672.75
974.41	2707.75
974.634	2638.75
974.858	2593.75
975.083	2667.75
975.307	2648.75
975.531	2575.75
975.755	2559.75
975.98	2555.75
976.204	2478.75
976.428	2491.75
976.652	2532.75
976.876	2489.75
977.1	2516.75
977.324	2481.75
977.547	2511.75
977.771	2496.75
977.995	2497.75
978.219	2460.75
978.442	2505.75
978.666	2507.75
978.89	2440.75
979.113	2442.75
979.337	2448.75
979.56	2375.75
979.783	2495.75
980.007	2364.75
980.23	2379.75
980.453	2357.75
980.677	2393.75
980.9	2375.75
981.123	2295.75
981.346	2393.75
981.569	2352.75
981.792	2407.75
982.015	2340.75
982.238	2310.75
982.461	2318.75
982.684	2328.75
982.907	2244.75
983.129	2227.75
983.352	2313.75
983.575	2236.75
983.797	2267.75
984.02	2189.75
984.242	2226.75
984.465	2205.75
984.687	2244.75
984.91	2258.75
985.132	2217.75
985.354	2215.75
985.577	2165.75
985.799	2160.75
986.021	2058.75
986.243	2127.75
986.465	2143.75
986.687	2179.75
986.909	2202.75
987.131	2109.75
987.353	2133.75
987.575	2138.75
987.797	2121.75
988.019	2065.75
988.241	2076.75
988.462	2046.75
988.684	2139.75
988.906	2154.75
989.127	2149.75
989.349	2047.75
989.57	2056.75
989.792	2104.75
990.013	2099.75
990.234	2143.75
990.456	2107.75
990.677	2113.75
990.898	2043.75
991.119	2057.75
991.341	2075.75
991.562	1964.75
991.783	2008.75
992.004	1965.75
992.225	1925.75
992.446	1981.75
992.667	1890.75
992.887	1995.75
993.108	1862.75
993.329	1986.75
993.55	1945.75
993.77	1888.75
993.991	1862.75
994.212	1898.75
994.432	1910.75
994.653	1905.75
994.873	1930.75
995.093	1773.75
995.314	1832.75
995.534	1920.75
995.754	1927.75
995.975	1954.75
996.195	1820.75
996.415	1921.75
996.635	1870.75
996.855	1845.75
997.075	1842.75
997.295	1855.75
997.515	1835.75
997.735	1903.75
997.955	1861.75
998.174	1873.75
998.394	1835.75
998.614	1850.75
998.834	1803.75
999.053	1857.75
999.273	1844.75
999.492	1885.75
999.712	1814.75
999.931	1762.75
1000.151	1803.75
1000.37	1753.75
1000.589	1835.75
1000.809	1738.75
1001.028	1863.75
1001.247	1785.75
1001.466	1709.75
1001.685	1841.75
1001.904	1767.75
1002.123	1771.75
1002.342	1743.75
1002.561	1699.75
1002.78	1709.75
1002.999	1749.75
1003.218	1703.75
1003.436	1690.75
1003.655	1744.75
1003.874	1665.75
1004.092	1679.75
1004.311	1726.75
1004.53	1683.75
1004.748	1769.75
1004.966	1680.75
1005.185	1733.75
1005.403	1736.75
1005.622	1683.75
1005.84	1778.75
1006.058	1673.75
1006.276	1727.75
1006.494	2079.75
1006.712	1669.75
1006.931	1779.75
1007.149	1671.75
1007.367	1717.75
1007.584	1733.75
1007.802	1768.75
1008.02	1738.75
1008.238	1850.75
1008.456	1840.75
1008.673	1739.75
1008.891	1841.75
1009.109	1810.75
1009.326	1886.75
1009.544	2019.75
1009.761	1916.75
1009.979	2072.75
1010.196	2120.75
1010.413	2246.75
1010.631	2345.75
1010.848	2402.75
1011.065	2407.75
1011.282	2356.75
1011.5	2266.75
1011.717	2352.75
1011.934	2328.75
1012.151	2365.75
1012.368	2324.75
1012.585	2276.75
1012.801	2316.75
1013.018	2271.75
1013.235	2294.75
1013.452	2278.75
1013.669	2316.75
1013.885	2325.75
1014.102	2381.75
1014.318	2354.75
1014.535	2274.75
1014.751	2338.75
1014.968	2291.75
1015.184	2289.75
1015.401	2207.75
1015.617	2215.75
1015.833	2156.75
1016.049	2118.75
1016.266	2171.75
1016.482	2085.75
1016.698	2013.75
1016.914	2077.75
1017.13	2013.75
1017.346	2007.75
1017.562	2052.75
1017.778	1985.75
1017.993	1930.75
1018.209	2005.75
1018.425	1991.75
1018.641	1959.75
1018.856	1887.75
1019.072	1942.75
1019.288	1981.75
1019.503	1927.75
1019.719	1825.75
1019.934	1827.75
1020.149	1914.75
1020.365	1832.75
1020.58	1795.75
1020.795	1810.75
1021.011	1724.75
1021.226	1705.75
1021.441	1701.75
1021.656	1593.75
1021.871	1530.75
1022.086	1503.75
1022.301	1518.75
1022.516	1487.75
1022.731	1472.75
1022.946	1439.75
1023.16	1422.75
1023.375	1356.75
1023.59	1329.75
1023.804	1277.75
1024.019	1395.75
1024.234	1221.75
1024.448	1251.75
1024.663	1178.75
1024.877	1192.75
1025.092	1183.75
1025.306	1193.75
1025.52	1072.75
1025.734	1174.75
1025.949	1086.75
1026.163	1045.75
1026.377	978.75
1026.591	1053.75
1026.805	956.75
1027.019	960.75
1027.233	921.75
1027.447	849.75
1027.661	971.75
1027.875	899.75
1028.088	903.75
1028.302	829.75
1028.516	818.75
1028.73	796.75
1028.943	783.75
1029.157	728.75
1029.37	679.75
1029.584	-4.25
1029.797	-1.25
1030.011	-2.25
1030.224	-2.25
