Data from QEP037381__173__11-18-15-926.txt Node

Date: Fri Apr 28 11:18:15 EDT 2023
User: dcclab
Spectrometer: QEP03738
Trigger mode: 4
Integration Time (sec): 1.000000E1
Scans to average: 1
Electric dark correction enabled: true
Nonlinearity correction enabled: false
Boxcar width: 0
XAxis mode: Wavelengths
Number of Pixels in Spectrum: 1044
>>>>>Begin Spectral Data<<<<<
784.041	13.5
784.3	2.5
784.558	-2.5
784.817	-5.5
785.075	82473.5
785.334	16273.5
785.592	8402.5
785.851	5874.5
786.109	4425.5
786.368	3442.5
786.626	2850.5
786.884	2333.5
787.143	1958.5
787.401	1633.5
787.659	1466.5
787.917	1246.5
788.175	1139.5
788.433	996.5
788.691	889.5
788.949	810.5
789.207	773.5
789.465	681.5
789.723	671.5
789.98	605.5
790.238	647.5
790.496	598.5
790.753	565.5
791.011	602.5
791.268	537.5
791.526	524.5
791.783	516.5
792.041	522.5
792.298	428.5
792.556	490.5
792.813	483.5
793.07	453.5
793.327	443.5
793.584	523.5
793.841	440.5
794.099	472.5
794.356	516.5
794.613	426.5
794.869	471.5
795.126	419.5
795.383	411.5
795.64	417.5
795.897	395.5
796.153	433.5
796.41	420.5
796.667	403.5
796.923	416.5
797.18	427.5
797.436	446.5
797.693	410.5
797.949	443.5
798.206	501.5
798.462	394.5
798.718	451.5
798.974	435.5
799.231	493.5
799.487	463.5
799.743	461.5
799.999	497.5
800.255	493.5
800.511	483.5
800.767	531.5
801.023	518.5
801.279	549.5
801.534	579.5
801.79	644.5
802.046	649.5
802.302	800.5
802.557	930.5
802.813	1185.5
803.068	1491.5
803.324	2115.5
803.579	2853.5
803.835	3973.5
804.09	5399.5
804.345	6794.5
804.601	8206.5
804.856	9510.5
805.111	10426.5
805.366	11176.5
805.621	11653.5
805.876	11929.5
806.131	12143.5
806.386	12382.5
806.641	12525.5
806.896	12694.5
807.151	12998.5
807.406	13091.5
807.661	13312.5
807.915	13579.5
808.17	13752.5
808.425	13878.5
808.679	13990.5
808.934	14270.5
809.188	14289.5
809.443	14416.5
809.697	14591.5
809.951	14798.5
810.206	14876.5
810.46	15080.5
810.714	15055.5
810.968	15252.5
811.223	15339.5
811.477	15441.5
811.731	15582.5
811.985	15530.5
812.239	15615.5
812.493	15780.5
812.747	15792.5
813	15778.5
813.254	15942.5
813.508	16046.5
813.762	16024.5
814.015	16085.5
814.269	16208.5
814.522	16370.5
814.776	16540.5
815.03	16658.5
815.283	16822.5
815.536	17164.5
815.79	17374.5
816.043	17636.5
816.296	17811.5
816.55	17938.5
816.803	18187.5
817.056	18439.5
817.309	18689.5
817.562	18810.5
817.815	19175.5
818.068	19074.5
818.321	19342.5
818.574	19642.5
818.827	19899.5
819.079	20102.5
819.332	20594.5
819.585	20700.5
819.838	21145.5
820.09	21139.5
820.343	21284.5
820.595	21399.5
820.848	21506.5
821.1	21555.5
821.353	21620.5
821.605	21532.5
821.857	21509.5
822.11	21368.5
822.362	21407.5
822.614	21367.5
822.866	21376.5
823.118	21386.5
823.37	21478.5
823.622	21596.5
823.874	21589.5
824.126	21649.5
824.378	21633.5
824.63	21746.5
824.882	21864.5
825.134	21695.5
825.385	21667.5
825.637	21707.5
825.888	21481.5
826.14	21511.5
826.392	21493.5
826.643	21261.5
826.895	21281.5
827.146	21095.5
827.397	21056.5
827.649	21106.5
827.9	21001.5
828.151	21090.5
828.402	21039.5
828.653	21180.5
828.905	21277.5
829.156	21259.5
829.407	21280.5
829.658	21258.5
829.909	21419.5
830.159	21411.5
830.41	21272.5
830.661	21054.5
830.912	20958.5
831.162	20911.5
831.413	20928.5
831.664	20910.5
831.914	20868.5
832.165	20784.5
832.415	20778.5
832.666	20667.5
832.916	20842.5
833.167	20700.5
833.417	20656.5
833.667	20625.5
833.917	20512.5
834.168	20537.5
834.418	20366.5
834.668	20368.5
834.918	20182.5
835.168	20166.5
835.418	20088.5
835.668	20154.5
835.918	20036.5
836.167	19998.5
836.417	19821.5
836.667	19887.5
836.917	19927.5
837.166	19869.5
837.416	19802.5
837.666	19870.5
837.915	19739.5
838.165	19728.5
838.414	19704.5
838.663	19636.5
838.913	19562.5
839.162	19577.5
839.411	19604.5
839.661	19344.5
839.91	19459.5
840.159	19437.5
840.408	19525.5
840.657	19435.5
840.906	19443.5
841.155	19459.5
841.404	19394.5
841.653	19450.5
841.902	19525.5
842.15	19528.5
842.399	19532.5
842.648	19465.5
842.897	19320.5
843.145	19275.5
843.394	19158.5
843.642	18989.5
843.891	18901.5
844.139	18906.5
844.388	18620.5
844.636	18472.5
844.884	18551.5
845.133	18633.5
845.381	18577.5
845.629	18553.5
845.877	18496.5
846.125	18499.5
846.373	18493.5
846.621	18405.5
846.869	18454.5
847.117	18279.5
847.365	18156.5
847.613	18058.5
847.861	18022.5
848.108	18054.5
848.356	18057.5
848.604	17985.5
848.851	18008.5
849.099	18016.5
849.346	17974.5
849.594	18137.5
849.841	18195.5
850.089	18217.5
850.336	18200.5
850.583	18124.5
850.831	18028.5
851.078	18104.5
851.325	17936.5
851.572	18033.5
851.819	17836.5
852.066	17445.5
852.313	17241.5
852.56	17003.5
852.807	16970.5
853.054	16935.5
853.301	16938.5
853.548	17056.5
853.794	17073.5
854.041	17166.5
854.288	17208.5
854.534	17383.5
854.781	17409.5
855.028	17270.5
855.274	17243.5
855.52	17192.5
855.767	17219.5
856.013	17189.5
856.26	17504.5
856.506	16927.5
856.752	17010.5
856.998	16959.5
857.244	16885.5
857.49	17066.5
857.736	17082.5
857.982	16988.5
858.228	17034.5
858.474	16725.5
858.72	16612.5
858.966	16448.5
859.212	16360.5
859.458	16175.5
859.703	16004.5
859.949	15815.5
860.195	15825.5
860.44	15725.5
860.686	15618.5
860.931	15724.5
861.177	15567.5
861.422	15519.5
861.667	15356.5
861.913	15300.5
862.158	15338.5
862.403	15434.5
862.648	15397.5
862.893	15500.5
863.138	15397.5
863.384	15309.5
863.629	15256.5
863.873	15331.5
864.118	15303.5
864.363	15080.5
864.608	15032.5
864.853	14891.5
865.098	14868.5
865.342	14883.5
865.587	14779.5
865.832	14778.5
866.076	14666.5
866.321	14637.5
866.565	14728.5
866.81	14562.5
867.054	14602.5
867.298	14520.5
867.543	14467.5
867.787	14588.5
868.031	14460.5
868.275	14426.5
868.519	14545.5
868.764	14508.5
869.008	14433.5
869.252	14467.5
869.496	14299.5
869.739	14398.5
869.983	14414.5
870.227	14399.5
870.471	14374.5
870.715	14438.5
870.958	14481.5
871.202	14526.5
871.446	14503.5
871.689	14461.5
871.933	14421.5
872.176	14396.5
872.42	14414.5
872.663	14391.5
872.906	14470.5
873.15	14282.5
873.393	14364.5
873.636	14349.5
873.879	14173.5
874.122	14019.5
874.366	13759.5
874.609	13598.5
874.852	13541.5
875.095	13463.5
875.337	13400.5
875.58	13227.5
875.823	13206.5
876.066	13314.5
876.309	13282.5
876.551	13117.5
876.794	13071.5
877.037	13049.5
877.279	12985.5
877.522	12955.5
877.764	13034.5
878.007	12926.5
878.249	12845.5
878.491	12906.5
878.734	12755.5
878.976	12811.5
879.218	12633.5
879.46	12681.5
879.702	12566.5
879.945	12404.5
880.187	12246.5
880.429	12233.5
880.671	12159.5
880.912	12093.5
881.154	12043.5
881.396	12044.5
881.638	12022.5
881.88	12026.5
882.121	12007.5
882.363	12014.5
882.605	12052.5
882.846	12068.5
883.088	11982.5
883.329	12027.5
883.571	12113.5
883.812	12350.5
884.053	12685.5
884.295	12924.5
884.536	13090.5
884.777	13133.5
885.018	12870.5
885.259	12769.5
885.5	12710.5
885.742	12686.5
885.982	12538.5
886.223	12445.5
886.464	12231.5
886.705	12134.5
886.946	11977.5
887.187	11722.5
887.428	11601.5
887.668	11299.5
887.909	11094.5
888.15	11034.5
888.39	10996.5
888.631	10922.5
888.871	10793.5
889.111	10650.5
889.352	10587.5
889.592	10458.5
889.833	10424.5
890.073	10378.5
890.313	10293.5
890.553	10182.5
890.793	10127.5
891.033	10155.5
891.273	10007.5
891.513	10006.5
891.753	10016.5
891.993	10025.5
892.233	10005.5
892.473	10123.5
892.713	10044.5
892.952	10020.5
893.192	9998.5
893.432	9978.5
893.671	9930.5
893.911	9921.5
894.15	9841.5
894.39	9718.5
894.629	9704.5
894.869	9627.5
895.108	9583.5
895.347	9483.5
895.587	9505.5
895.826	9469.5
896.065	9400.5
896.304	9415.5
896.543	9416.5
896.782	9285.5
897.021	9342.5
897.26	9379.5
897.499	9361.5
897.738	9356.5
897.977	9278.5
898.216	9147.5
898.454	9137.5
898.693	9076.5
898.932	9016.5
899.17	8952.5
899.409	8943.5
899.647	8959.5
899.886	8909.5
900.124	9046.5
900.363	8922.5
900.601	9007.5
900.839	9031.5
901.078	9092.5
901.316	9145.5
901.554	9216.5
901.792	9257.5
902.03	9190.5
902.268	9302.5
902.506	9236.5
902.744	9098.5
902.982	9053.5
903.22	8894.5
903.458	8701.5
903.695	8554.5
903.933	8455.5
904.171	8315.5
904.409	8177.5
904.646	8119.5
904.884	7939.5
905.121	7976.5
905.359	7848.5
905.596	7787.5
905.833	7702.5
906.071	7666.5
906.308	7652.5
906.545	7627.5
906.783	7589.5
907.02	7582.5
907.257	7530.5
907.494	7550.5
907.731	7535.5
907.968	7525.5
908.205	7447.5
908.442	7354.5
908.679	7384.5
908.915	7309.5
909.152	7291.5
909.389	7131.5
909.626	7166.5
909.862	7049.5
910.099	7057.5
910.335	7024.5
910.572	6909.5
910.808	6987.5
911.045	6917.5
911.281	6875.5
911.518	6880.5
911.754	6868.5
911.99	6809.5
912.226	6765.5
912.463	6664.5
912.699	6641.5
912.935	6543.5
913.171	6523.5
913.407	6454.5
913.643	6491.5
913.879	6412.5
914.114	6346.5
914.35	6296.5
914.586	6180.5
914.822	6141.5
915.057	6155.5
915.293	6026.5
915.529	5983.5
915.764	6106.5
916	6100.5
916.235	6040.5
916.471	6034.5
916.706	5978.5
916.941	5927.5
917.177	5969.5
917.412	5969.5
917.647	5935.5
917.882	5861.5
918.117	5972.5
918.352	5913.5
918.588	5927.5
918.823	5820.5
919.057	5711.5
919.292	5643.5
919.527	5733.5
919.762	5563.5
919.997	5593.5
920.232	5478.5
920.466	5446.5
920.701	5349.5
920.935	5368.5
921.17	5277.5
921.405	5310.5
921.639	5371.5
921.873	5251.5
922.108	5260.5
922.342	5272.5
922.576	5183.5
922.811	5203.5
923.045	5172.5
923.279	5189.5
923.513	5062.5
923.747	5176.5
923.981	5110.5
924.215	5042.5
924.449	5003.5
924.683	4983.5
924.917	4972.5
925.151	4920.5
925.385	4968.5
925.618	4938.5
925.852	4875.5
926.086	4807.5
926.319	4888.5
926.553	4877.5
926.786	4852.5
927.02	4863.5
927.253	4879.5
927.486	4812.5
927.72	4780.5
927.953	4802.5
928.186	4760.5
928.42	4762.5
928.653	4718.5
928.886	4683.5
929.119	4713.5
929.352	4697.5
929.585	4684.5
929.818	4665.5
930.051	4575.5
930.284	4566.5
930.516	4421.5
930.749	4442.5
930.982	4464.5
931.215	4431.5
931.447	4388.5
931.68	4409.5
931.912	4381.5
932.145	4342.5
932.377	4414.5
932.61	4536.5
932.842	4335.5
933.074	4410.5
933.307	4338.5
933.539	4416.5
933.771	4417.5
934.003	4325.5
934.236	4416.5
934.468	4461.5
934.7	4306.5
934.932	4307.5
935.164	4282.5
935.395	4280.5
935.627	4290.5
935.859	4263.5
936.091	4187.5
936.323	4247.5
936.554	4227.5
936.786	4201.5
937.017	4129.5
937.249	4179.5
937.481	4090.5
937.712	4185.5
937.943	4162.5
938.175	4127.5
938.406	4079.5
938.637	4157.5
938.869	4098.5
939.1	4064.5
939.331	4079.5
939.562	4077.5
939.793	4087.5
940.024	4114.5
940.255	4064.5
940.486	4009.5
940.717	3982.5
940.948	3952.5
941.179	3928.5
941.409	3943.5
941.64	3908.5
941.871	3934.5
942.102	3908.5
942.332	3927.5
942.563	3944.5
942.793	3966.5
943.024	3874.5
943.254	3910.5
943.484	3976.5
943.715	3961.5
943.945	3880.5
944.175	3849.5
944.405	3889.5
944.636	3872.5
944.866	3847.5
945.096	3891.5
945.326	3798.5
945.556	3825.5
945.786	3829.5
946.016	3804.5
946.245	3741.5
946.475	3730.5
946.705	3718.5
946.935	3711.5
947.164	3691.5
947.394	3640.5
947.624	3622.5
947.853	3676.5
948.083	3634.5
948.312	3609.5
948.542	3543.5
948.771	3560.5
949	3585.5
949.23	3553.5
949.459	3556.5
949.688	3608.5
949.917	3563.5
950.146	3575.5
950.375	3613.5
950.604	3494.5
950.833	3584.5
951.062	3578.5
951.291	3531.5
951.52	3481.5
951.749	3488.5
951.978	3500.5
952.206	3451.5
952.435	3476.5
952.664	3478.5
952.892	3497.5
953.121	3467.5
953.349	3462.5
953.578	3409.5
953.806	3384.5
954.035	3324.5
954.263	3398.5
954.491	3291.5
954.719	3390.5
954.948	3263.5
955.176	3291.5
955.404	3208.5
955.632	3294.5
955.86	3310.5
956.088	3243.5
956.316	3285.5
956.544	3278.5
956.772	3199.5
956.999	3175.5
957.227	3258.5
957.455	3139.5
957.683	3190.5
957.91	3116.5
958.138	3105.5
958.365	3102.5
958.593	3084.5
958.82	3049.5
959.048	3116.5
959.275	3047.5
959.502	3030.5
959.73	3052.5
959.957	3074.5
960.184	3117.5
960.411	3013.5
960.638	3096.5
960.865	3024.5
961.092	2997.5
961.319	2949.5
961.546	3055.5
961.773	3035.5
962	2998.5
962.227	3058.5
962.454	2997.5
962.68	2972.5
962.907	2999.5
963.134	2932.5
963.36	2921.5
963.587	2902.5
963.813	2872.5
964.04	2862.5
964.266	2809.5
964.493	2899.5
964.719	2843.5
964.945	2885.5
965.171	2772.5
965.398	2841.5
965.624	2784.5
965.85	2733.5
966.076	2724.5
966.302	2751.5
966.528	2764.5
966.754	2782.5
966.98	2723.5
967.206	2767.5
967.431	2672.5
967.657	2747.5
967.883	2711.5
968.109	2701.5
968.334	2678.5
968.56	2645.5
968.785	2659.5
969.011	2627.5
969.236	2677.5
969.462	2598.5
969.687	2610.5
969.912	2647.5
970.138	2705.5
970.363	2580.5
970.588	2602.5
970.813	2571.5
971.038	2538.5
971.263	2580.5
971.488	2570.5
971.713	2569.5
971.938	2562.5
972.163	2500.5
972.388	2479.5
972.613	2457.5
972.838	2481.5
973.062	2512.5
973.287	2527.5
973.512	2416.5
973.736	2461.5
973.961	2438.5
974.185	2424.5
974.41	2469.5
974.634	2324.5
974.858	2335.5
975.083	2338.5
975.307	2389.5
975.531	2320.5
975.755	2256.5
975.98	2296.5
976.204	2258.5
976.428	2205.5
976.652	2244.5
976.876	2261.5
977.1	2252.5
977.324	2217.5
977.547	2245.5
977.771	2270.5
977.995	2228.5
978.219	2184.5
978.442	2293.5
978.666	2193.5
978.89	2223.5
979.113	2211.5
979.337	2181.5
979.56	2145.5
979.783	2242.5
980.007	2145.5
980.23	2186.5
980.453	2146.5
980.677	2166.5
980.9	2147.5
981.123	2057.5
981.346	2153.5
981.569	2107.5
981.792	2156.5
982.015	2096.5
982.238	2061.5
982.461	2094.5
982.684	2063.5
982.907	2022.5
983.129	1997.5
983.352	2081.5
983.575	2019.5
983.797	2024.5
984.02	1960.5
984.242	1963.5
984.465	1974.5
984.687	1993.5
984.91	2037.5
985.132	2010.5
985.354	1990.5
985.577	1985.5
985.799	1984.5
986.021	1873.5
986.243	1943.5
986.465	1943.5
986.687	1971.5
986.909	2012.5
987.131	1935.5
987.353	1894.5
987.575	1950.5
987.797	1894.5
988.019	1819.5
988.241	1910.5
988.462	1890.5
988.684	1930.5
988.906	1935.5
989.127	1973.5
989.349	1853.5
989.57	1878.5
989.792	1910.5
990.013	1904.5
990.234	1908.5
990.456	1930.5
990.677	1917.5
990.898	1856.5
991.119	1889.5
991.341	1886.5
991.562	1819.5
991.783	1824.5
992.004	1776.5
992.225	1739.5
992.446	1815.5
992.667	1726.5
992.887	1809.5
993.108	1685.5
993.329	1822.5
993.55	1760.5
993.77	1713.5
993.991	1682.5
994.212	1773.5
994.432	1747.5
994.653	1775.5
994.873	1738.5
995.093	1634.5
995.314	1670.5
995.534	1726.5
995.754	1719.5
995.975	1778.5
996.195	1631.5
996.415	1721.5
996.635	1678.5
996.855	1701.5
997.075	1706.5
997.295	1677.5
997.515	1651.5
997.735	1693.5
997.955	1682.5
998.174	1660.5
998.394	1665.5
998.614	1686.5
998.834	1628.5
999.053	1715.5
999.273	1701.5
999.492	1742.5
999.712	1638.5
999.931	1609.5
1000.151	1657.5
1000.37	1629.5
1000.589	1673.5
1000.809	1603.5
1001.028	1697.5
1001.247	1639.5
1001.466	1544.5
1001.685	1673.5
1001.904	1640.5
1002.123	1608.5
1002.342	1585.5
1002.561	1552.5
1002.78	1584.5
1002.999	1641.5
1003.218	1608.5
1003.436	1554.5
1003.655	1604.5
1003.874	1566.5
1004.092	1571.5
1004.311	1592.5
1004.53	1565.5
1004.748	1633.5
1004.966	1559.5
1005.185	1636.5
1005.403	1614.5
1005.622	1574.5
1005.84	1641.5
1006.058	1560.5
1006.276	1568.5
1006.494	1967.5
1006.712	1566.5
1006.931	1643.5
1007.149	1544.5
1007.367	1553.5
1007.584	1612.5
1007.802	1659.5
1008.02	1588.5
1008.238	1711.5
1008.456	1716.5
1008.673	1587.5
1008.891	1704.5
1009.109	1668.5
1009.326	1738.5
1009.544	1837.5
1009.761	1755.5
1009.979	1868.5
1010.196	1937.5
1010.413	2045.5
1010.631	2098.5
1010.848	2163.5
1011.065	2178.5
1011.282	2084.5
1011.5	2003.5
1011.717	2108.5
1011.934	2081.5
1012.151	2097.5
1012.368	2100.5
1012.585	2030.5
1012.801	2088.5
1013.018	2034.5
1013.235	2033.5
1013.452	2044.5
1013.669	2085.5
1013.885	2063.5
1014.102	2136.5
1014.318	2131.5
1014.535	2040.5
1014.751	2095.5
1014.968	2051.5
1015.184	2094.5
1015.401	1983.5
1015.617	2023.5
1015.833	1915.5
1016.049	1956.5
1016.266	1887.5
1016.482	1922.5
1016.698	1847.5
1016.914	1846.5
1017.13	1795.5
1017.346	1821.5
1017.562	1860.5
1017.778	1835.5
1017.993	1752.5
1018.209	1837.5
1018.425	1803.5
1018.641	1734.5
1018.856	1740.5
1019.072	1788.5
1019.288	1834.5
1019.503	1776.5
1019.719	1678.5
1019.934	1667.5
1020.149	1761.5
1020.365	1689.5
1020.58	1604.5
1020.795	1667.5
1021.011	1579.5
1021.226	1536.5
1021.441	1553.5
1021.656	1474.5
1021.871	1384.5
1022.086	1401.5
1022.301	1365.5
1022.516	1341.5
1022.731	1401.5
1022.946	1323.5
1023.16	1290.5
1023.375	1259.5
1023.59	1235.5
1023.804	1171.5
1024.019	1289.5
1024.234	1145.5
1024.448	1178.5
1024.663	1097.5
1024.877	1094.5
1025.092	1094.5
1025.306	1127.5
1025.52	1008.5
1025.734	1129.5
1025.949	1010.5
1026.163	983.5
1026.377	909.5
1026.591	961.5
1026.805	900.5
1027.019	913.5
1027.233	843.5
1027.447	817.5
1027.661	908.5
1027.875	839.5
1028.088	852.5
1028.302	791.5
1028.516	746.5
1028.73	746.5
1028.943	740.5
1029.157	687.5
1029.37	647.5
1029.584	-2.5
1029.797	-2.5
1030.011	-4.5
1030.224	1.5
