Data from QEP037381__178__11-19-05-919.txt Node

Date: Fri Apr 28 11:19:05 EDT 2023
User: dcclab
Spectrometer: QEP03738
Trigger mode: 4
Integration Time (sec): 1.000000E1
Scans to average: 1
Electric dark correction enabled: true
Nonlinearity correction enabled: false
Boxcar width: 0
XAxis mode: Wavelengths
Number of Pixels in Spectrum: 1044
>>>>>Begin Spectral Data<<<<<
784.041	15.88
784.3	-0.12
784.558	-5.12
784.817	-4.12
785.075	78178.88
785.334	15381.88
785.592	7940.88
785.851	5537.88
786.109	4219.88
786.368	3292.88
786.626	2676.88
786.884	2204.88
787.143	1872.88
787.401	1550.88
787.659	1400.88
787.917	1179.88
788.175	1083.88
788.433	954.88
788.691	854.88
788.949	794.88
789.207	747.88
789.465	642.88
789.723	653.88
789.98	594.88
790.238	607.88
790.496	584.88
790.753	555.88
791.011	597.88
791.268	529.88
791.526	510.88
791.783	537.88
792.041	504.88
792.298	420.88
792.556	499.88
792.813	464.88
793.07	452.88
793.327	444.88
793.584	504.88
793.841	446.88
794.099	453.88
794.356	509.88
794.613	416.88
794.869	474.88
795.126	417.88
795.383	408.88
795.64	425.88
795.897	383.88
796.153	436.88
796.41	430.88
796.667	406.88
796.923	411.88
797.18	413.88
797.436	438.88
797.693	406.88
797.949	447.88
798.206	480.88
798.462	371.88
798.718	449.88
798.974	418.88
799.231	464.88
799.487	456.88
799.743	461.88
799.999	478.88
800.255	491.88
800.511	470.88
800.767	507.88
801.023	503.88
801.279	531.88
801.534	557.88
801.79	605.88
802.046	634.88
802.302	785.88
802.557	885.88
802.813	1109.88
803.068	1381.88
803.324	1941.88
803.579	2652.88
803.835	3629.88
804.09	4859.88
804.345	6159.88
804.601	7448.88
804.856	8555.88
805.111	9517.88
805.366	10110.88
805.621	10578.88
805.876	10901.88
806.131	11152.88
806.386	11284.88
806.641	11497.88
806.896	11708.88
807.151	11938.88
807.406	11942.88
807.661	12210.88
807.915	12356.88
808.17	12548.88
808.425	12781.88
808.679	12814.88
808.934	13045.88
809.188	13085.88
809.443	13236.88
809.697	13409.88
809.951	13473.88
810.206	13547.88
810.46	13747.88
810.714	13770.88
810.968	13966.88
811.223	14128.88
811.477	14247.88
811.731	14287.88
811.985	14229.88
812.239	14313.88
812.493	14383.88
812.747	14434.88
813	14476.88
813.254	14501.88
813.508	14672.88
813.762	14718.88
814.015	14634.88
814.269	14783.88
814.522	14881.88
814.776	15079.88
815.03	15248.88
815.283	15421.88
815.536	15705.88
815.79	15802.88
816.043	16138.88
816.296	16302.88
816.55	16460.88
816.803	16678.88
817.056	16823.88
817.309	17013.88
817.562	17201.88
817.815	17413.88
818.068	17477.88
818.321	17706.88
818.574	17937.88
818.827	18121.88
819.079	18465.88
819.332	18834.88
819.585	19146.88
819.838	19257.88
820.09	19216.88
820.343	19362.88
820.595	19547.88
820.848	19764.88
821.1	19729.88
821.353	19685.88
821.605	19662.88
821.857	19648.88
822.11	19511.88
822.362	19398.88
822.614	19461.88
822.866	19542.88
823.118	19476.88
823.37	19606.88
823.622	19758.88
823.874	19775.88
824.126	19925.88
824.378	19821.88
824.63	19814.88
824.882	19917.88
825.134	19871.88
825.385	19773.88
825.637	19567.88
825.888	19646.88
826.14	19565.88
826.392	19492.88
826.643	19333.88
826.895	19307.88
827.146	19198.88
827.397	19116.88
827.649	19302.88
827.9	19146.88
828.151	19215.88
828.402	19256.88
828.653	19302.88
828.905	19320.88
829.156	19494.88
829.407	19399.88
829.658	19561.88
829.909	19682.88
830.159	19770.88
830.41	19670.88
830.661	19286.88
830.912	19233.88
831.162	19189.88
831.413	19319.88
831.664	19275.88
831.914	19160.88
832.165	19128.88
832.415	18978.88
832.666	19142.88
832.916	19128.88
833.167	19028.88
833.417	19104.88
833.667	18970.88
833.917	18821.88
834.168	18789.88
834.418	18826.88
834.668	18810.88
834.918	18649.88
835.168	18610.88
835.418	18484.88
835.668	18361.88
835.918	18398.88
836.167	18306.88
836.417	18190.88
836.667	18246.88
836.917	18278.88
837.166	18215.88
837.416	18341.88
837.666	18327.88
837.915	18239.88
838.165	18289.88
838.414	18135.88
838.663	18055.88
838.913	18118.88
839.162	18115.88
839.411	18180.88
839.661	18133.88
839.91	18120.88
840.159	18056.88
840.408	18079.88
840.657	18197.88
840.906	18018.88
841.155	18113.88
841.404	18028.88
841.653	18106.88
841.902	18078.88
842.15	18192.88
842.399	18199.88
842.648	18162.88
842.897	18161.88
843.145	18019.88
843.394	17955.88
843.642	17661.88
843.891	17615.88
844.139	17496.88
844.388	17350.88
844.636	17343.88
844.884	17203.88
845.133	17340.88
845.381	17190.88
845.629	17233.88
845.877	17249.88
846.125	17168.88
846.373	17223.88
846.621	17164.88
846.869	17088.88
847.117	16992.88
847.365	16894.88
847.613	16848.88
847.861	16847.88
848.108	16993.88
848.356	16864.88
848.604	16793.88
848.851	16861.88
849.099	16862.88
849.346	16923.88
849.594	16898.88
849.841	16997.88
850.089	17009.88
850.336	16988.88
850.583	17017.88
850.831	16857.88
851.078	16775.88
851.325	16802.88
851.572	16804.88
851.819	16739.88
852.066	16349.88
852.313	16025.88
852.56	15928.88
852.807	15998.88
853.054	15895.88
853.301	15881.88
853.548	15966.88
853.794	16044.88
854.041	16063.88
854.288	16189.88
854.534	16303.88
854.781	16277.88
855.028	16212.88
855.274	16334.88
855.52	16363.88
855.767	16383.88
856.013	16574.88
856.26	16717.88
856.506	16093.88
856.752	16038.88
856.998	15963.88
857.244	16029.88
857.49	16186.88
857.736	16259.88
857.982	16178.88
858.228	16237.88
858.474	15871.88
858.72	15734.88
858.966	15579.88
859.212	15425.88
859.458	15303.88
859.703	15127.88
859.949	14971.88
860.195	14945.88
860.44	14914.88
860.686	14878.88
860.931	14988.88
861.177	14819.88
861.422	14646.88
861.667	14457.88
861.913	14358.88
862.158	14427.88
862.403	14487.88
862.648	14371.88
862.893	14488.88
863.138	14449.88
863.384	14306.88
863.629	14316.88
863.873	14306.88
864.118	14339.88
864.363	14213.88
864.608	14198.88
864.853	14024.88
865.098	13899.88
865.342	13857.88
865.587	13797.88
865.832	13810.88
866.076	13794.88
866.321	13770.88
866.565	13771.88
866.81	13561.88
867.054	13658.88
867.298	13579.88
867.543	13520.88
867.787	13684.88
868.031	13630.88
868.275	13594.88
868.519	13584.88
868.764	13519.88
869.008	13526.88
869.252	13596.88
869.496	13577.88
869.739	13576.88
869.983	13619.88
870.227	13624.88
870.471	13673.88
870.715	13786.88
870.958	13820.88
871.202	13844.88
871.446	13916.88
871.689	13834.88
871.933	13799.88
872.176	13812.88
872.42	13668.88
872.663	13680.88
872.906	13800.88
873.15	14035.88
873.393	13952.88
873.636	14052.88
873.879	13793.88
874.122	13577.88
874.366	13262.88
874.609	13118.88
874.852	12944.88
875.095	12884.88
875.337	12798.88
875.58	12645.88
875.823	12602.88
876.066	12589.88
876.309	12635.88
876.551	12461.88
876.794	12365.88
877.037	12449.88
877.279	12280.88
877.522	12338.88
877.764	12328.88
878.007	12227.88
878.249	12136.88
878.491	12166.88
878.734	12207.88
878.976	12033.88
879.218	11988.88
879.46	11991.88
879.702	11806.88
879.945	11682.88
880.187	11524.88
880.429	11506.88
880.671	11455.88
880.912	11457.88
881.154	11383.88
881.396	11257.88
881.638	11396.88
881.88	11318.88
882.121	11310.88
882.363	11385.88
882.605	11310.88
882.846	11433.88
883.088	11356.88
883.329	11481.88
883.571	11580.88
883.812	12033.88
884.053	12492.88
884.295	12922.88
884.536	13174.88
884.777	12970.88
885.018	12769.88
885.259	12633.88
885.5	12428.88
885.742	12451.88
885.982	12318.88
886.223	12231.88
886.464	12064.88
886.705	11771.88
886.946	11634.88
887.187	11302.88
887.428	11066.88
887.668	10774.88
887.909	10589.88
888.15	10390.88
888.39	10359.88
888.631	10260.88
888.871	10099.88
889.111	10036.88
889.352	9991.88
889.592	9886.88
889.833	9745.88
890.073	9711.88
890.313	9676.88
890.553	9559.88
890.793	9539.88
891.033	9464.88
891.273	9432.88
891.513	9330.88
891.753	9470.88
891.993	9350.88
892.233	9381.88
892.473	9433.88
892.713	9425.88
892.952	9306.88
893.192	9403.88
893.432	9367.88
893.671	9370.88
893.911	9322.88
894.15	9258.88
894.39	9084.88
894.629	9072.88
894.869	9053.88
895.108	9025.88
895.347	8849.88
895.587	8918.88
895.826	8865.88
896.065	8789.88
896.304	8862.88
896.543	8907.88
896.782	8698.88
897.021	8874.88
897.26	8813.88
897.499	8834.88
897.738	8837.88
897.977	8707.88
898.216	8623.88
898.454	8602.88
898.693	8502.88
898.932	8583.88
899.17	8443.88
899.409	8491.88
899.647	8438.88
899.886	8400.88
900.124	8505.88
900.363	8482.88
900.601	8547.88
900.839	8592.88
901.078	8651.88
901.316	8689.88
901.554	8844.88
901.792	8851.88
902.03	8823.88
902.268	8852.88
902.506	8841.88
902.744	8782.88
902.982	8713.88
903.22	8473.88
903.458	8343.88
903.695	8193.88
903.933	8069.88
904.171	7841.88
904.409	7654.88
904.646	7640.88
904.884	7461.88
905.121	7502.88
905.359	7393.88
905.596	7297.88
905.833	7236.88
906.071	7220.88
906.308	7197.88
906.545	7171.88
906.783	7029.88
907.02	7128.88
907.257	7068.88
907.494	7048.88
907.731	7137.88
907.968	7054.88
908.205	6891.88
908.442	6937.88
908.679	6943.88
908.915	6839.88
909.152	6790.88
909.389	6721.88
909.626	6754.88
909.862	6620.88
910.099	6613.88
910.335	6613.88
910.572	6482.88
910.808	6538.88
911.045	6521.88
911.281	6479.88
911.518	6551.88
911.754	6427.88
911.99	6435.88
912.226	6314.88
912.463	6231.88
912.699	6251.88
912.935	6175.88
913.171	6180.88
913.407	6067.88
913.643	6098.88
913.879	6021.88
914.114	5958.88
914.35	5866.88
914.586	5821.88
914.822	5774.88
915.057	5837.88
915.293	5682.88
915.529	5700.88
915.764	5760.88
916	5688.88
916.235	5617.88
916.471	5625.88
916.706	5573.88
916.941	5612.88
917.177	5581.88
917.412	5623.88
917.647	5653.88
917.882	5538.88
918.117	5599.88
918.352	5540.88
918.588	5602.88
918.823	5498.88
919.057	5463.88
919.292	5335.88
919.527	5391.88
919.762	5246.88
919.997	5294.88
920.232	5205.88
920.466	5176.88
920.701	5009.88
920.935	5046.88
921.17	5014.88
921.405	4928.88
921.639	5058.88
921.873	4994.88
922.108	4968.88
922.342	4969.88
922.576	4851.88
922.811	4896.88
923.045	4918.88
923.279	4952.88
923.513	4747.88
923.747	4821.88
923.981	4823.88
924.215	4759.88
924.449	4769.88
924.683	4650.88
924.917	4649.88
925.151	4677.88
925.385	4673.88
925.618	4648.88
925.852	4636.88
926.086	4540.88
926.319	4571.88
926.553	4618.88
926.786	4637.88
927.02	4591.88
927.253	4556.88
927.486	4565.88
927.72	4540.88
927.953	4565.88
928.186	4540.88
928.42	4545.88
928.653	4447.88
928.886	4489.88
929.119	4427.88
929.352	4433.88
929.585	4390.88
929.818	4333.88
930.051	4337.88
930.284	4282.88
930.516	4223.88
930.749	4204.88
930.982	4257.88
931.215	4244.88
931.447	4142.88
931.68	4163.88
931.912	4133.88
932.145	4114.88
932.377	4171.88
932.61	4280.88
932.842	4101.88
933.074	4142.88
933.307	4079.88
933.539	4133.88
933.771	4195.88
934.003	4112.88
934.236	4193.88
934.468	4183.88
934.7	4093.88
934.932	4110.88
935.164	4060.88
935.395	4070.88
935.627	4059.88
935.859	4028.88
936.091	4021.88
936.323	4013.88
936.554	4045.88
936.786	3978.88
937.017	3921.88
937.249	3973.88
937.481	3873.88
937.712	3973.88
937.943	3911.88
938.175	3924.88
938.406	3911.88
938.637	3982.88
938.869	3853.88
939.1	3911.88
939.331	3881.88
939.562	3856.88
939.793	3895.88
940.024	3846.88
940.255	3873.88
940.486	3816.88
940.717	3788.88
940.948	3746.88
941.179	3709.88
941.409	3724.88
941.64	3732.88
941.871	3758.88
942.102	3744.88
942.332	3725.88
942.563	3761.88
942.793	3731.88
943.024	3728.88
943.254	3723.88
943.484	3759.88
943.715	3710.88
943.945	3724.88
944.175	3672.88
944.405	3623.88
944.636	3597.88
944.866	3657.88
945.096	3678.88
945.326	3606.88
945.556	3651.88
945.786	3689.88
946.016	3630.88
946.245	3544.88
946.475	3509.88
946.705	3550.88
946.935	3532.88
947.164	3518.88
947.394	3481.88
947.624	3496.88
947.853	3526.88
948.083	3494.88
948.312	3459.88
948.542	3372.88
948.771	3377.88
949	3363.88
949.23	3368.88
949.459	3369.88
949.688	3457.88
949.917	3376.88
950.146	3434.88
950.375	3426.88
950.604	3319.88
950.833	3409.88
951.062	3431.88
951.291	3357.88
951.52	3328.88
951.749	3285.88
951.978	3299.88
952.206	3275.88
952.435	3284.88
952.664	3277.88
952.892	3310.88
953.121	3281.88
953.349	3301.88
953.578	3277.88
953.806	3205.88
954.035	3153.88
954.263	3201.88
954.491	3147.88
954.719	3189.88
954.948	3110.88
955.176	3133.88
955.404	3041.88
955.632	3088.88
955.86	3108.88
956.088	3086.88
956.316	3099.88
956.544	3102.88
956.772	3086.88
956.999	3016.88
957.227	3096.88
957.455	2969.88
957.683	3013.88
957.91	2950.88
958.138	2958.88
958.365	2954.88
958.593	2937.88
958.82	2873.88
959.048	2940.88
959.275	2910.88
959.502	2916.88
959.73	2850.88
959.957	2932.88
960.184	2913.88
960.411	2811.88
960.638	2968.88
960.865	2892.88
961.092	2927.88
961.319	2784.88
961.546	2871.88
961.773	2911.88
962	2859.88
962.227	2889.88
962.454	2891.88
962.68	2825.88
962.907	2846.88
963.134	2786.88
963.36	2784.88
963.587	2820.88
963.813	2728.88
964.04	2820.88
964.266	2693.88
964.493	2782.88
964.719	2714.88
964.945	2711.88
965.171	2649.88
965.398	2692.88
965.624	2709.88
965.85	2623.88
966.076	2619.88
966.302	2651.88
966.528	2631.88
966.754	2652.88
966.98	2624.88
967.206	2610.88
967.431	2542.88
967.657	2610.88
967.883	2595.88
968.109	2609.88
968.334	2562.88
968.56	2511.88
968.785	2572.88
969.011	2487.88
969.236	2536.88
969.462	2526.88
969.687	2477.88
969.912	2519.88
970.138	2569.88
970.363	2446.88
970.588	2517.88
970.813	2483.88
971.038	2479.88
971.263	2496.88
971.488	2462.88
971.713	2491.88
971.938	2490.88
972.163	2399.88
972.388	2384.88
972.613	2354.88
972.838	2359.88
973.062	2393.88
973.287	2357.88
973.512	2322.88
973.736	2372.88
973.961	2336.88
974.185	2296.88
974.41	2322.88
974.634	2230.88
974.858	2259.88
975.083	2246.88
975.307	2276.88
975.531	2276.88
975.755	2200.88
975.98	2204.88
976.204	2157.88
976.428	2126.88
976.652	2158.88
976.876	2128.88
977.1	2153.88
977.324	2121.88
977.547	2171.88
977.771	2181.88
977.995	2165.88
978.219	2086.88
978.442	2186.88
978.666	2128.88
978.89	2128.88
979.113	2128.88
979.337	2134.88
979.56	2095.88
979.783	2130.88
980.007	2011.88
980.23	2082.88
980.453	2036.88
980.677	2107.88
980.9	2029.88
981.123	1954.88
981.346	2066.88
981.569	2040.88
981.792	2050.88
982.015	2027.88
982.238	1999.88
982.461	1997.88
982.684	2003.88
982.907	1952.88
983.129	1938.88
983.352	2014.88
983.575	1980.88
983.797	1959.88
984.02	1896.88
984.242	1927.88
984.465	1931.88
984.687	1923.88
984.91	1960.88
985.132	1963.88
985.354	1953.88
985.577	1923.88
985.799	1893.88
986.021	1817.88
986.243	1853.88
986.465	1845.88
986.687	1904.88
986.909	1947.88
987.131	1901.88
987.353	1845.88
987.575	1856.88
987.797	1853.88
988.019	1756.88
988.241	1850.88
988.462	1786.88
988.684	1903.88
988.906	1855.88
989.127	1917.88
989.349	1808.88
989.57	1818.88
989.792	1843.88
990.013	1849.88
990.234	1862.88
990.456	1879.88
990.677	1873.88
990.898	1805.88
991.119	1787.88
991.341	1804.88
991.562	1762.88
991.783	1808.88
992.004	1742.88
992.225	1710.88
992.446	1765.88
992.667	1653.88
992.887	1749.88
993.108	1649.88
993.329	1788.88
993.55	1737.88
993.77	1706.88
993.991	1679.88
994.212	1700.88
994.432	1685.88
994.653	1695.88
994.873	1705.88
995.093	1577.88
995.314	1629.88
995.534	1690.88
995.754	1730.88
995.975	1752.88
996.195	1606.88
996.415	1657.88
996.635	1659.88
996.855	1676.88
997.075	1628.88
997.295	1679.88
997.515	1622.88
997.735	1683.88
997.955	1683.88
998.174	1677.88
998.394	1632.88
998.614	1694.88
998.834	1646.88
999.053	1677.88
999.273	1693.88
999.492	1672.88
999.712	1623.88
999.931	1598.88
1000.151	1617.88
1000.37	1598.88
1000.589	1637.88
1000.809	1568.88
1001.028	1676.88
1001.247	1610.88
1001.466	1536.88
1001.685	1676.88
1001.904	1604.88
1002.123	1572.88
1002.342	1572.88
1002.561	1547.88
1002.78	1515.88
1002.999	1600.88
1003.218	1544.88
1003.436	1525.88
1003.655	1584.88
1003.874	1497.88
1004.092	1539.88
1004.311	1572.88
1004.53	1544.88
1004.748	1626.88
1004.966	1509.88
1005.185	1610.88
1005.403	1581.88
1005.622	1530.88
1005.84	1617.88
1006.058	1547.88
1006.276	1568.88
1006.494	1906.88
1006.712	1564.88
1006.931	1658.88
1007.149	1530.88
1007.367	1573.88
1007.584	1596.88
1007.802	1650.88
1008.02	1636.88
1008.238	1702.88
1008.456	1712.88
1008.673	1642.88
1008.891	1759.88
1009.109	1727.88
1009.326	1809.88
1009.544	1918.88
1009.761	1858.88
1009.979	1994.88
1010.196	2064.88
1010.413	2214.88
1010.631	2327.88
1010.848	2369.88
1011.065	2334.88
1011.282	2350.88
1011.5	2262.88
1011.717	2356.88
1011.934	2300.88
1012.151	2335.88
1012.368	2328.88
1012.585	2257.88
1012.801	2311.88
1013.018	2273.88
1013.235	2225.88
1013.452	2329.88
1013.669	2324.88
1013.885	2340.88
1014.102	2385.88
1014.318	2359.88
1014.535	2310.88
1014.751	2325.88
1014.968	2312.88
1015.184	2301.88
1015.401	2190.88
1015.617	2229.88
1015.833	2151.88
1016.049	2152.88
1016.266	2102.88
1016.482	2101.88
1016.698	2025.88
1016.914	2059.88
1017.13	1988.88
1017.346	1986.88
1017.562	2040.88
1017.778	2003.88
1017.993	1933.88
1018.209	1986.88
1018.425	1939.88
1018.641	1899.88
1018.856	1869.88
1019.072	1944.88
1019.288	1990.88
1019.503	1914.88
1019.719	1814.88
1019.934	1842.88
1020.149	1929.88
1020.365	1829.88
1020.58	1726.88
1020.795	1785.88
1021.011	1673.88
1021.226	1636.88
1021.441	1652.88
1021.656	1581.88
1021.871	1484.88
1022.086	1492.88
1022.301	1465.88
1022.516	1437.88
1022.731	1455.88
1022.946	1402.88
1023.16	1366.88
1023.375	1298.88
1023.59	1276.88
1023.804	1244.88
1024.019	1344.88
1024.234	1187.88
1024.448	1214.88
1024.663	1125.88
1024.877	1143.88
1025.092	1122.88
1025.306	1120.88
1025.52	1017.88
1025.734	1105.88
1025.949	1046.88
1026.163	1012.88
1026.377	926.88
1026.591	989.88
1026.805	911.88
1027.019	898.88
1027.233	869.88
1027.447	801.88
1027.661	909.88
1027.875	829.88
1028.088	848.88
1028.302	773.88
1028.516	758.88
1028.73	766.88
1028.943	736.88
1029.157	702.88
1029.37	642.88
1029.584	-1.12
1029.797	1.88
1030.011	-3.12
1030.224	-4.12
