Data from QEP037381__206__11-28-53-222.txt Node

Date: Fri Apr 28 11:28:53 EDT 2023
User: dcclab
Spectrometer: QEP03738
Trigger mode: 4
Integration Time (sec): 1.000000E1
Scans to average: 1
Electric dark correction enabled: true
Nonlinearity correction enabled: false
Boxcar width: 0
XAxis mode: Wavelengths
Number of Pixels in Spectrum: 1044
>>>>>Begin Spectral Data<<<<<
784.041	12.75
784.3	-0.25
784.558	-3.25
784.817	-7.25
785.075	64586.75
785.334	12864.75
785.592	6661.75
785.851	4719.75
786.109	3583.75
786.368	2812.75
786.626	2279.75
786.884	1919.75
787.143	1611.75
787.401	1341.75
787.659	1200.75
787.917	1051.75
788.175	968.75
788.433	857.75
788.691	769.75
788.949	722.75
789.207	687.75
789.465	592.75
789.723	569.75
789.98	532.75
790.238	569.75
790.496	528.75
790.753	518.75
791.011	556.75
791.268	504.75
791.526	488.75
791.783	508.75
792.041	491.75
792.298	407.75
792.556	469.75
792.813	455.75
793.07	442.75
793.327	409.75
793.584	507.75
793.841	430.75
794.099	447.75
794.356	495.75
794.613	405.75
794.869	445.75
795.126	391.75
795.383	394.75
795.64	398.75
795.897	368.75
796.153	410.75
796.41	398.75
796.667	393.75
796.923	418.75
797.18	400.75
797.436	425.75
797.693	393.75
797.949	446.75
798.206	461.75
798.462	381.75
798.718	450.75
798.974	439.75
799.231	453.75
799.487	440.75
799.743	464.75
799.999	468.75
800.255	479.75
800.511	461.75
800.767	493.75
801.023	494.75
801.279	515.75
801.534	541.75
801.79	604.75
802.046	630.75
802.302	763.75
802.557	881.75
802.813	1106.75
803.068	1403.75
803.324	1958.75
803.579	2702.75
803.835	3694.75
804.09	5035.75
804.345	6356.75
804.601	7679.75
804.856	8977.75
805.111	9984.75
805.366	10611.75
805.621	11094.75
805.876	11389.75
806.131	11594.75
806.386	11787.75
806.641	11966.75
806.896	12177.75
807.151	12411.75
807.406	12590.75
807.661	12786.75
807.915	12934.75
808.17	13189.75
808.425	13402.75
808.679	13371.75
808.934	13628.75
809.188	13666.75
809.443	13929.75
809.697	14086.75
809.951	14124.75
810.206	14225.75
810.46	14358.75
810.714	14456.75
810.968	14551.75
811.223	14718.75
811.477	14806.75
811.731	14964.75
811.985	14985.75
812.239	14990.75
812.493	15091.75
812.747	15203.75
813	15206.75
813.254	15309.75
813.508	15377.75
813.762	15444.75
814.015	15394.75
814.269	15571.75
814.522	15569.75
814.776	15815.75
815.03	15963.75
815.283	16141.75
815.536	16391.75
815.79	16683.75
816.043	16884.75
816.296	17088.75
816.55	17284.75
816.803	17471.75
817.056	17746.75
817.309	17851.75
817.562	18072.75
817.815	18384.75
818.068	18400.75
818.321	18627.75
818.574	18861.75
818.827	19171.75
819.079	19385.75
819.332	19807.75
819.585	19972.75
819.838	20236.75
820.09	20297.75
820.343	20535.75
820.595	20400.75
820.848	20710.75
821.1	20698.75
821.353	20771.75
821.605	20624.75
821.857	20600.75
822.11	20525.75
822.362	20459.75
822.614	20352.75
822.866	20564.75
823.118	20388.75
823.37	20631.75
823.622	20648.75
823.874	20717.75
824.126	20835.75
824.378	20699.75
824.63	20805.75
824.882	20856.75
825.134	20809.75
825.385	20705.75
825.637	20688.75
825.888	20532.75
826.14	20623.75
826.392	20425.75
826.643	20292.75
826.895	20332.75
827.146	20158.75
827.397	20191.75
827.649	20222.75
827.9	19959.75
828.151	20031.75
828.402	20089.75
828.653	20136.75
828.905	20217.75
829.156	20320.75
829.407	20285.75
829.658	20311.75
829.909	20406.75
830.159	20356.75
830.41	20325.75
830.661	20125.75
830.912	20020.75
831.162	19964.75
831.413	19845.75
831.664	19847.75
831.914	19743.75
832.165	19753.75
832.415	19864.75
832.666	19768.75
832.916	19798.75
833.167	19658.75
833.417	19696.75
833.667	19583.75
833.917	19540.75
834.168	19570.75
834.418	19473.75
834.668	19394.75
834.918	19196.75
835.168	19157.75
835.418	19051.75
835.668	19071.75
835.918	18970.75
836.167	19011.75
836.417	18831.75
836.667	18821.75
836.917	18878.75
837.166	18806.75
837.416	18800.75
837.666	18783.75
837.915	18739.75
838.165	18598.75
838.414	18539.75
838.663	18600.75
838.913	18543.75
839.162	18455.75
839.411	18585.75
839.661	18324.75
839.91	18460.75
840.159	18320.75
840.408	18370.75
840.657	18447.75
840.906	18369.75
841.155	18341.75
841.404	18314.75
841.653	18280.75
841.902	18292.75
842.15	18455.75
842.399	18467.75
842.648	18390.75
842.897	18292.75
843.145	18221.75
843.394	18138.75
843.642	17971.75
843.891	17877.75
844.139	17680.75
844.388	17584.75
844.636	17512.75
844.884	17510.75
845.133	17470.75
845.381	17391.75
845.629	17478.75
845.877	17498.75
846.125	17461.75
846.373	17453.75
846.621	17341.75
846.869	17247.75
847.117	17141.75
847.365	17065.75
847.613	17117.75
847.861	17044.75
848.108	17005.75
848.356	16967.75
848.604	16878.75
848.851	16922.75
849.099	16984.75
849.346	17021.75
849.594	17034.75
849.841	17069.75
850.089	17098.75
850.336	17122.75
850.583	17246.75
850.831	17033.75
851.078	16930.75
851.325	16941.75
851.572	16957.75
851.819	16796.75
852.066	16385.75
852.313	16186.75
852.56	16055.75
852.807	15966.75
853.054	16008.75
853.301	15880.75
853.548	15948.75
853.794	16053.75
854.041	16047.75
854.288	16186.75
854.534	16351.75
854.781	16255.75
855.028	16190.75
855.274	16255.75
855.52	16124.75
855.767	16124.75
856.013	16161.75
856.26	16427.75
856.506	15902.75
856.752	15924.75
856.998	15822.75
857.244	15891.75
857.49	15960.75
857.736	15975.75
857.982	15991.75
858.228	15870.75
858.474	15733.75
858.72	15572.75
858.966	15395.75
859.212	15321.75
859.458	15029.75
859.703	14999.75
859.949	14817.75
860.195	14781.75
860.44	14724.75
860.686	14727.75
860.931	14721.75
861.177	14572.75
861.422	14499.75
861.667	14420.75
861.913	14337.75
862.158	14305.75
862.403	14486.75
862.648	14411.75
862.893	14524.75
863.138	14415.75
863.384	14328.75
863.629	14355.75
863.873	14248.75
864.118	14226.75
864.363	14137.75
864.608	14071.75
864.853	14045.75
865.098	13936.75
865.342	13850.75
865.587	13744.75
865.832	13786.75
866.076	13742.75
866.321	13698.75
866.565	13657.75
866.81	13559.75
867.054	13591.75
867.298	13600.75
867.543	13543.75
867.787	13533.75
868.031	13476.75
868.275	13436.75
868.519	13483.75
868.764	13411.75
869.008	13477.75
869.252	13465.75
869.496	13425.75
869.739	13371.75
869.983	13484.75
870.227	13388.75
870.471	13361.75
870.715	13466.75
870.958	13551.75
871.202	13530.75
871.446	13516.75
871.689	13591.75
871.933	13492.75
872.176	13501.75
872.42	13500.75
872.663	13417.75
872.906	13373.75
873.15	13446.75
873.393	13451.75
873.636	13472.75
873.879	13154.75
874.122	13133.75
874.366	12848.75
874.609	12797.75
874.852	12681.75
875.095	12550.75
875.337	12479.75
875.58	12426.75
875.823	12409.75
876.066	12370.75
876.309	12397.75
876.551	12166.75
876.794	12183.75
877.037	12173.75
877.279	12211.75
877.522	12077.75
877.764	12100.75
878.007	12037.75
878.249	12032.75
878.491	11983.75
878.734	11988.75
878.976	12006.75
879.218	11817.75
879.46	11797.75
879.702	11654.75
879.945	11561.75
880.187	11413.75
880.429	11368.75
880.671	11330.75
880.912	11335.75
881.154	11157.75
881.396	11118.75
881.638	11251.75
881.88	11220.75
882.121	11104.75
882.363	11140.75
882.605	11170.75
882.846	11154.75
883.088	11209.75
883.329	11171.75
883.571	11256.75
883.812	11390.75
884.053	11677.75
884.295	12032.75
884.536	12160.75
884.777	12052.75
885.018	11915.75
885.259	11883.75
885.5	11765.75
885.742	11786.75
885.982	11681.75
886.223	11522.75
886.464	11411.75
886.705	11185.75
886.946	11066.75
887.187	10831.75
887.428	10721.75
887.668	10549.75
887.909	10400.75
888.15	10196.75
888.39	10164.75
888.631	10179.75
888.871	10038.75
889.111	9930.75
889.352	9885.75
889.592	9751.75
889.833	9740.75
890.073	9638.75
890.313	9619.75
890.553	9473.75
890.793	9412.75
891.033	9413.75
891.273	9349.75
891.513	9354.75
891.753	9354.75
891.993	9295.75
892.233	9271.75
892.473	9431.75
892.713	9267.75
892.952	9322.75
893.192	9419.75
893.432	9316.75
893.671	9275.75
893.911	9260.75
894.15	9176.75
894.39	9092.75
894.629	9026.75
894.869	9031.75
895.108	8975.75
895.347	8883.75
895.587	8864.75
895.826	8798.75
896.065	8779.75
896.304	8837.75
896.543	8763.75
896.782	8690.75
897.021	8755.75
897.26	8649.75
897.499	8717.75
897.738	8763.75
897.977	8624.75
898.216	8529.75
898.454	8471.75
898.693	8459.75
898.932	8453.75
899.17	8364.75
899.409	8352.75
899.647	8393.75
899.886	8333.75
900.124	8432.75
900.363	8332.75
900.601	8386.75
900.839	8414.75
901.078	8477.75
901.316	8530.75
901.554	8524.75
901.792	8587.75
902.03	8522.75
902.268	8544.75
902.506	8523.75
902.744	8484.75
902.982	8417.75
903.22	8200.75
903.458	8128.75
903.695	7928.75
903.933	7860.75
904.171	7708.75
904.409	7603.75
904.646	7561.75
904.884	7431.75
905.121	7402.75
905.359	7271.75
905.596	7251.75
905.833	7105.75
906.071	7031.75
906.308	7132.75
906.545	7132.75
906.783	6992.75
907.02	7011.75
907.257	6981.75
907.494	7027.75
907.731	7003.75
907.968	7040.75
908.205	6887.75
908.442	6860.75
908.679	6819.75
908.915	6754.75
909.152	6770.75
909.389	6667.75
909.626	6577.75
909.862	6504.75
910.099	6493.75
910.335	6526.75
910.572	6392.75
910.808	6453.75
911.045	6418.75
911.281	6318.75
911.518	6427.75
911.754	6310.75
911.99	6309.75
912.226	6238.75
912.463	6161.75
912.699	6142.75
912.935	6095.75
913.171	6070.75
913.407	5976.75
913.643	6070.75
913.879	5937.75
914.114	5842.75
914.35	5805.75
914.586	5784.75
914.822	5687.75
915.057	5733.75
915.293	5585.75
915.529	5604.75
915.764	5638.75
916	5589.75
916.235	5562.75
916.471	5578.75
916.706	5513.75
916.941	5523.75
917.177	5521.75
917.412	5568.75
917.647	5607.75
917.882	5514.75
918.117	5548.75
918.352	5506.75
918.588	5464.75
918.823	5418.75
919.057	5339.75
919.292	5254.75
919.527	5283.75
919.762	5147.75
919.997	5221.75
920.232	5056.75
920.466	5090.75
920.701	4922.75
920.935	5009.75
921.17	4934.75
921.405	4881.75
921.639	4967.75
921.873	4904.75
922.108	4919.75
922.342	4916.75
922.576	4822.75
922.811	4814.75
923.045	4812.75
923.279	4854.75
923.513	4698.75
923.747	4799.75
923.981	4745.75
924.215	4677.75
924.449	4600.75
924.683	4627.75
924.917	4590.75
925.151	4594.75
925.385	4596.75
925.618	4551.75
925.852	4592.75
926.086	4487.75
926.319	4515.75
926.553	4555.75
926.786	4496.75
927.02	4485.75
927.253	4554.75
927.486	4539.75
927.72	4471.75
927.953	4485.75
928.186	4449.75
928.42	4471.75
928.653	4415.75
928.886	4365.75
929.119	4421.75
929.352	4320.75
929.585	4362.75
929.818	4273.75
930.051	4275.75
930.284	4243.75
930.516	4123.75
930.749	4126.75
930.982	4170.75
931.215	4144.75
931.447	4091.75
931.68	4076.75
931.912	4040.75
932.145	4084.75
932.377	4134.75
932.61	4180.75
932.842	3994.75
933.074	4058.75
933.307	4061.75
933.539	4120.75
933.771	4130.75
934.003	4025.75
934.236	4138.75
934.468	4143.75
934.7	4038.75
934.932	4051.75
935.164	3995.75
935.395	3957.75
935.627	4018.75
935.859	3983.75
936.091	3882.75
936.323	3967.75
936.554	3965.75
936.786	3915.75
937.017	3868.75
937.249	3933.75
937.481	3813.75
937.712	3902.75
937.943	3871.75
938.175	3841.75
938.406	3814.75
938.637	3873.75
938.869	3774.75
939.1	3836.75
939.331	3783.75
939.562	3787.75
939.793	3780.75
940.024	3858.75
940.255	3777.75
940.486	3720.75
940.717	3719.75
940.948	3712.75
941.179	3637.75
941.409	3670.75
941.64	3671.75
941.871	3661.75
942.102	3635.75
942.332	3655.75
942.563	3674.75
942.793	3692.75
943.024	3637.75
943.254	3617.75
943.484	3672.75
943.715	3712.75
943.945	3677.75
944.175	3593.75
944.405	3578.75
944.636	3575.75
944.866	3638.75
945.096	3620.75
945.326	3527.75
945.556	3574.75
945.786	3593.75
946.016	3549.75
946.245	3441.75
946.475	3493.75
946.705	3466.75
946.935	3467.75
947.164	3489.75
947.394	3421.75
947.624	3438.75
947.853	3426.75
948.083	3437.75
948.312	3410.75
948.542	3360.75
948.771	3304.75
949	3296.75
949.23	3310.75
949.459	3327.75
949.688	3422.75
949.917	3340.75
950.146	3321.75
950.375	3364.75
950.604	3272.75
950.833	3356.75
951.062	3338.75
951.291	3306.75
951.52	3282.75
951.749	3257.75
951.978	3213.75
952.206	3248.75
952.435	3214.75
952.664	3227.75
952.892	3239.75
953.121	3201.75
953.349	3239.75
953.578	3221.75
953.806	3193.75
954.035	3139.75
954.263	3142.75
954.491	3081.75
954.719	3165.75
954.948	3094.75
955.176	3040.75
955.404	3006.75
955.632	3052.75
955.86	3046.75
956.088	3030.75
956.316	3030.75
956.544	3057.75
956.772	3007.75
956.999	2971.75
957.227	3038.75
957.455	2948.75
957.683	2938.75
957.91	2928.75
958.138	2923.75
958.365	2891.75
958.593	2879.75
958.82	2838.75
959.048	2898.75
959.275	2893.75
959.502	2871.75
959.73	2834.75
959.957	2879.75
960.184	2921.75
960.411	2802.75
960.638	2873.75
960.865	2803.75
961.092	2881.75
961.319	2754.75
961.546	2869.75
961.773	2865.75
962	2780.75
962.227	2871.75
962.454	2785.75
962.68	2802.75
962.907	2808.75
963.134	2730.75
963.36	2734.75
963.587	2731.75
963.813	2681.75
964.04	2699.75
964.266	2645.75
964.493	2740.75
964.719	2696.75
964.945	2705.75
965.171	2576.75
965.398	2672.75
965.624	2646.75
965.85	2589.75
966.076	2591.75
966.302	2619.75
966.528	2564.75
966.754	2575.75
966.98	2597.75
967.206	2578.75
967.431	2503.75
967.657	2586.75
967.883	2571.75
968.109	2531.75
968.334	2512.75
968.56	2475.75
968.785	2525.75
969.011	2447.75
969.236	2519.75
969.462	2449.75
969.687	2447.75
969.912	2491.75
970.138	2524.75
970.363	2436.75
970.588	2486.75
970.813	2406.75
971.038	2389.75
971.263	2415.75
971.488	2424.75
971.713	2476.75
971.938	2443.75
972.163	2344.75
972.388	2380.75
972.613	2312.75
972.838	2355.75
973.062	2350.75
973.287	2331.75
973.512	2272.75
973.736	2293.75
973.961	2287.75
974.185	2232.75
974.41	2288.75
974.634	2202.75
974.858	2239.75
975.083	2258.75
975.307	2240.75
975.531	2196.75
975.755	2142.75
975.98	2147.75
976.204	2103.75
976.428	2083.75
976.652	2123.75
976.876	2089.75
977.1	2092.75
977.324	2093.75
977.547	2130.75
977.771	2108.75
977.995	2122.75
978.219	2049.75
978.442	2170.75
978.666	2065.75
978.89	2090.75
979.113	2074.75
979.337	2044.75
979.56	1988.75
979.783	2139.75
980.007	2008.75
980.23	2045.75
980.453	2009.75
980.677	2030.75
980.9	2029.75
981.123	1906.75
981.346	2040.75
981.569	1987.75
981.792	2058.75
982.015	1968.75
982.238	1940.75
982.461	1964.75
982.684	1935.75
982.907	1894.75
983.129	1875.75
983.352	1937.75
983.575	1924.75
983.797	1930.75
984.02	1891.75
984.242	1903.75
984.465	1891.75
984.687	1921.75
984.91	1939.75
985.132	1882.75
985.354	1883.75
985.577	1897.75
985.799	1841.75
986.021	1808.75
986.243	1805.75
986.465	1832.75
986.687	1856.75
986.909	1897.75
987.131	1861.75
987.353	1820.75
987.575	1860.75
987.797	1776.75
988.019	1724.75
988.241	1788.75
988.462	1784.75
988.684	1839.75
988.906	1844.75
989.127	1882.75
989.349	1732.75
989.57	1782.75
989.792	1796.75
990.013	1841.75
990.234	1812.75
990.456	1854.75
990.677	1809.75
990.898	1788.75
991.119	1776.75
991.341	1785.75
991.562	1687.75
991.783	1746.75
992.004	1689.75
992.225	1661.75
992.446	1736.75
992.667	1621.75
992.887	1712.75
993.108	1618.75
993.329	1735.75
993.55	1660.75
993.77	1637.75
993.991	1641.75
994.212	1653.75
994.432	1656.75
994.653	1681.75
994.873	1654.75
995.093	1547.75
995.314	1608.75
995.534	1648.75
995.754	1681.75
995.975	1706.75
996.195	1569.75
996.415	1633.75
996.635	1630.75
996.855	1649.75
997.075	1608.75
997.295	1582.75
997.515	1589.75
997.735	1636.75
997.955	1612.75
998.174	1601.75
998.394	1598.75
998.614	1583.75
998.834	1563.75
999.053	1643.75
999.273	1612.75
999.492	1660.75
999.712	1568.75
999.931	1529.75
1000.151	1584.75
1000.37	1564.75
1000.589	1613.75
1000.809	1513.75
1001.028	1659.75
1001.247	1602.75
1001.466	1487.75
1001.685	1617.75
1001.904	1530.75
1002.123	1571.75
1002.342	1542.75
1002.561	1495.75
1002.78	1515.75
1002.999	1584.75
1003.218	1545.75
1003.436	1503.75
1003.655	1538.75
1003.874	1464.75
1004.092	1531.75
1004.311	1519.75
1004.53	1502.75
1004.748	1554.75
1004.966	1504.75
1005.185	1570.75
1005.403	1542.75
1005.622	1524.75
1005.84	1615.75
1006.058	1500.75
1006.276	1502.75
1006.494	1887.75
1006.712	1502.75
1006.931	1613.75
1007.149	1492.75
1007.367	1515.75
1007.584	1561.75
1007.802	1576.75
1008.02	1532.75
1008.238	1625.75
1008.456	1632.75
1008.673	1513.75
1008.891	1623.75
1009.109	1575.75
1009.326	1655.75
1009.544	1769.75
1009.761	1665.75
1009.979	1803.75
1010.196	1843.75
1010.413	1949.75
1010.631	2014.75
1010.848	2063.75
1011.065	2057.75
1011.282	1996.75
1011.5	1940.75
1011.717	2042.75
1011.934	1996.75
1012.151	2028.75
1012.368	1990.75
1012.585	1927.75
1012.801	2004.75
1013.018	1964.75
1013.235	1907.75
1013.452	1946.75
1013.669	1981.75
1013.885	1991.75
1014.102	2015.75
1014.318	1977.75
1014.535	1904.75
1014.751	1982.75
1014.968	1976.75
1015.184	1955.75
1015.401	1859.75
1015.617	1867.75
1015.833	1821.75
1016.049	1841.75
1016.266	1813.75
1016.482	1813.75
1016.698	1750.75
1016.914	1792.75
1017.13	1721.75
1017.346	1703.75
1017.562	1806.75
1017.778	1706.75
1017.993	1683.75
1018.209	1746.75
1018.425	1702.75
1018.641	1666.75
1018.856	1679.75
1019.072	1668.75
1019.288	1723.75
1019.503	1681.75
1019.719	1575.75
1019.934	1617.75
1020.149	1645.75
1020.365	1604.75
1020.58	1534.75
1020.795	1556.75
1021.011	1496.75
1021.226	1466.75
1021.441	1479.75
1021.656	1400.75
1021.871	1299.75
1022.086	1339.75
1022.301	1311.75
1022.516	1301.75
1022.731	1312.75
1022.946	1259.75
1023.16	1247.75
1023.375	1191.75
1023.59	1178.75
1023.804	1100.75
1024.019	1217.75
1024.234	1094.75
1024.448	1126.75
1024.663	1042.75
1024.877	1056.75
1025.092	1060.75
1025.306	1081.75
1025.52	975.75
1025.734	1048.75
1025.949	980.75
1026.163	940.75
1026.377	895.75
1026.591	918.75
1026.805	844.75
1027.019	837.75
1027.233	811.75
1027.447	784.75
1027.661	873.75
1027.875	814.75
1028.088	819.75
1028.302	741.75
1028.516	746.75
1028.73	738.75
1028.943	692.75
1029.157	671.75
1029.37	612.75
1029.584	-1.25
1029.797	-3.25
1030.011	-1.25
1030.224	3.75
