Data from QEP037381__184__11-25-13-221.txt Node

Date: Fri Apr 28 11:25:13 EDT 2023
User: dcclab
Spectrometer: QEP03738
Trigger mode: 4
Integration Time (sec): 1.000000E1
Scans to average: 1
Electric dark correction enabled: true
Nonlinearity correction enabled: false
Boxcar width: 0
XAxis mode: Wavelengths
Number of Pixels in Spectrum: 1044
>>>>>Begin Spectral Data<<<<<
784.041	15.12
784.3	1.12
784.558	-1.88
784.817	-5.88
785.075	69889.12
785.334	13547.12
785.592	6968.12
785.851	4969.12
786.109	3746.12
786.368	2941.12
786.626	2427.12
786.884	2004.12
787.143	1690.12
787.401	1375.12
787.659	1271.12
787.917	1082.12
788.175	1009.12
788.433	866.12
788.691	787.12
788.949	748.12
789.207	680.12
789.465	604.12
789.723	585.12
789.98	543.12
790.238	582.12
790.496	556.12
790.753	530.12
791.011	577.12
791.268	504.12
791.526	485.12
791.783	509.12
792.041	482.12
792.298	405.12
792.556	477.12
792.813	458.12
793.07	448.12
793.327	417.12
793.584	513.12
793.841	427.12
794.099	430.12
794.356	510.12
794.613	391.12
794.869	455.12
795.126	409.12
795.383	402.12
795.64	423.12
795.897	374.12
796.153	431.12
796.41	413.12
796.667	393.12
796.923	400.12
797.18	405.12
797.436	436.12
797.693	398.12
797.949	450.12
798.206	482.12
798.462	402.12
798.718	445.12
798.974	427.12
799.231	464.12
799.487	475.12
799.743	439.12
799.999	472.12
800.255	478.12
800.511	472.12
800.767	493.12
801.023	475.12
801.279	521.12
801.534	570.12
801.79	623.12
802.046	630.12
802.302	806.12
802.557	890.12
802.813	1141.12
803.068	1417.12
803.324	1994.12
803.579	2752.12
803.835	3806.12
804.09	5189.12
804.345	6548.12
804.601	7970.12
804.856	9246.12
805.111	10268.12
805.366	10890.12
805.621	11222.12
805.876	11634.12
806.131	11780.12
806.386	12039.12
806.641	12180.12
806.896	12356.12
807.151	12542.12
807.406	12677.12
807.661	12879.12
807.915	13079.12
808.17	13288.12
808.425	13408.12
808.679	13479.12
808.934	13673.12
809.188	13890.12
809.443	13922.12
809.697	14119.12
809.951	14103.12
810.206	14271.12
810.46	14353.12
810.714	14516.12
810.968	14704.12
811.223	14720.12
811.477	14839.12
811.731	14965.12
811.985	14990.12
812.239	15002.12
812.493	15110.12
812.747	15192.12
813	15149.12
813.254	15218.12
813.508	15297.12
813.762	15370.12
814.015	15469.12
814.269	15506.12
814.522	15591.12
814.776	15804.12
815.03	15930.12
815.283	16083.12
815.536	16400.12
815.79	16615.12
816.043	16737.12
816.296	17044.12
816.55	17172.12
816.803	17338.12
817.056	17661.12
817.309	17754.12
817.562	17929.12
817.815	18134.12
818.068	18218.12
818.321	18433.12
818.574	18634.12
818.827	18861.12
819.079	19155.12
819.332	19524.12
819.585	19769.12
819.838	19928.12
820.09	19984.12
820.343	20218.12
820.595	20300.12
820.848	20314.12
821.1	20464.12
821.353	20375.12
821.605	20288.12
821.857	20358.12
822.11	20248.12
822.362	20200.12
822.614	20078.12
822.866	20192.12
823.118	20144.12
823.37	20334.12
823.622	20336.12
823.874	20399.12
824.126	20490.12
824.378	20456.12
824.63	20480.12
824.882	20533.12
825.134	20471.12
825.385	20512.12
825.637	20372.12
825.888	20381.12
826.14	20296.12
826.392	20133.12
826.643	19988.12
826.895	20038.12
827.146	19862.12
827.397	19809.12
827.649	19804.12
827.9	19784.12
828.151	19800.12
828.402	19943.12
828.653	19787.12
828.905	19881.12
829.156	20044.12
829.407	19888.12
829.658	19966.12
829.909	20007.12
830.159	20032.12
830.41	19900.12
830.661	19765.12
830.912	19566.12
831.162	19488.12
831.413	19526.12
831.664	19569.12
831.914	19464.12
832.165	19447.12
832.415	19368.12
832.666	19374.12
832.916	19353.12
833.167	19273.12
833.417	19379.12
833.667	19224.12
833.917	19151.12
834.168	19167.12
834.418	19062.12
834.668	18959.12
834.918	18847.12
835.168	18787.12
835.418	18720.12
835.668	18677.12
835.918	18522.12
836.167	18539.12
836.417	18452.12
836.667	18518.12
836.917	18389.12
837.166	18383.12
837.416	18511.12
837.666	18283.12
837.915	18318.12
838.165	18268.12
838.414	18251.12
838.663	18164.12
838.913	18112.12
839.162	18021.12
839.411	18149.12
839.661	17953.12
839.91	18015.12
840.159	18005.12
840.408	18005.12
840.657	18051.12
840.906	17980.12
841.155	17928.12
841.404	18000.12
841.653	17906.12
841.902	17877.12
842.15	17988.12
842.399	17974.12
842.648	17955.12
842.897	17850.12
843.145	17744.12
843.394	17610.12
843.642	17600.12
843.891	17478.12
844.139	17304.12
844.388	17221.12
844.636	17078.12
844.884	17078.12
845.133	16977.12
845.381	16985.12
845.629	17069.12
845.877	16994.12
846.125	17061.12
846.373	16990.12
846.621	16901.12
846.869	16799.12
847.117	16750.12
847.365	16703.12
847.613	16611.12
847.861	16547.12
848.108	16565.12
848.356	16582.12
848.604	16429.12
848.851	16510.12
849.099	16533.12
849.346	16519.12
849.594	16582.12
849.841	16641.12
850.089	16670.12
850.336	16731.12
850.583	16710.12
850.831	16605.12
851.078	16482.12
851.325	16373.12
851.572	16416.12
851.819	16231.12
852.066	15917.12
852.313	15751.12
852.56	15619.12
852.807	15537.12
853.054	15508.12
853.301	15471.12
853.548	15556.12
853.794	15691.12
854.041	15640.12
854.288	15685.12
854.534	15859.12
854.781	15809.12
855.028	15712.12
855.274	15757.12
855.52	15685.12
855.767	15733.12
856.013	15706.12
856.26	15907.12
856.506	15515.12
856.752	15494.12
856.998	15402.12
857.244	15431.12
857.49	15510.12
857.736	15521.12
857.982	15508.12
858.228	15410.12
858.474	15329.12
858.72	15232.12
858.966	15070.12
859.212	14974.12
859.458	14730.12
859.703	14606.12
859.949	14480.12
860.195	14348.12
860.44	14363.12
860.686	14378.12
860.931	14350.12
861.177	14151.12
861.422	14118.12
861.667	13918.12
861.913	13950.12
862.158	13901.12
862.403	14120.12
862.648	14033.12
862.893	14076.12
863.138	14034.12
863.384	14003.12
863.629	13954.12
863.873	13989.12
864.118	13909.12
864.363	13785.12
864.608	13710.12
864.853	13656.12
865.098	13555.12
865.342	13496.12
865.587	13424.12
865.832	13466.12
866.076	13432.12
866.321	13288.12
866.565	13420.12
866.81	13139.12
867.054	13290.12
867.298	13185.12
867.543	13206.12
867.787	13248.12
868.031	13204.12
868.275	13148.12
868.519	13185.12
868.764	13068.12
869.008	13062.12
869.252	13103.12
869.496	13062.12
869.739	13008.12
869.983	13020.12
870.227	13088.12
870.471	13073.12
870.715	13155.12
870.958	13120.12
871.202	13041.12
871.446	13119.12
871.689	13124.12
871.933	12988.12
872.176	13133.12
872.42	13049.12
872.663	13042.12
872.906	13049.12
873.15	13024.12
873.393	12941.12
873.636	12962.12
873.879	12829.12
874.122	12716.12
874.366	12454.12
874.609	12311.12
874.852	12206.12
875.095	12217.12
875.337	12084.12
875.58	12040.12
875.823	12027.12
876.066	11996.12
876.309	12027.12
876.551	11848.12
876.794	11776.12
877.037	11903.12
877.279	11754.12
877.522	11735.12
877.764	11806.12
878.007	11709.12
878.249	11772.12
878.491	11668.12
878.734	11654.12
878.976	11701.12
879.218	11508.12
879.46	11457.12
879.702	11408.12
879.945	11321.12
880.187	11079.12
880.429	11139.12
880.671	10987.12
880.912	10987.12
881.154	11025.12
881.396	10886.12
881.638	10975.12
881.88	10931.12
882.121	10829.12
882.363	10921.12
882.605	10872.12
882.846	10896.12
883.088	10868.12
883.329	10912.12
883.571	10901.12
883.812	11074.12
884.053	11297.12
884.295	11488.12
884.536	11807.12
884.777	11650.12
885.018	11570.12
885.259	11420.12
885.5	11291.12
885.742	11343.12
885.982	11259.12
886.223	11191.12
886.464	10997.12
886.705	10884.12
886.946	10732.12
887.187	10510.12
887.428	10405.12
887.668	10289.12
887.909	10098.12
888.15	10018.12
888.39	9895.12
888.631	9946.12
888.871	9770.12
889.111	9751.12
889.352	9639.12
889.592	9551.12
889.833	9462.12
890.073	9381.12
890.313	9426.12
890.553	9289.12
890.793	9228.12
891.033	9141.12
891.273	9106.12
891.513	9087.12
891.753	9162.12
891.993	9109.12
892.233	9144.12
892.473	9147.12
892.713	9073.12
892.952	9095.12
893.192	9125.12
893.432	9043.12
893.671	9089.12
893.911	8995.12
894.15	8923.12
894.39	8855.12
894.629	8896.12
894.869	8795.12
895.108	8642.12
895.347	8680.12
895.587	8673.12
895.826	8571.12
896.065	8551.12
896.304	8580.12
896.543	8646.12
896.782	8399.12
897.021	8477.12
897.26	8442.12
897.499	8511.12
897.738	8511.12
897.977	8371.12
898.216	8288.12
898.454	8318.12
898.693	8164.12
898.932	8264.12
899.17	8128.12
899.409	8170.12
899.647	8153.12
899.886	8054.12
900.124	8104.12
900.363	8074.12
900.601	8067.12
900.839	8186.12
901.078	8172.12
901.316	8187.12
901.554	8269.12
901.792	8235.12
902.03	8229.12
902.268	8264.12
902.506	8236.12
902.744	8167.12
902.982	8083.12
903.22	7971.12
903.458	7819.12
903.695	7736.12
903.933	7685.12
904.171	7476.12
904.409	7361.12
904.646	7314.12
904.884	7251.12
905.121	7233.12
905.359	7099.12
905.596	7065.12
905.833	6986.12
906.071	6904.12
906.308	7024.12
906.545	6929.12
906.783	6861.12
907.02	6904.12
907.257	6821.12
907.494	6833.12
907.731	6816.12
907.968	6848.12
908.205	6689.12
908.442	6744.12
908.679	6695.12
908.915	6594.12
909.152	6582.12
909.389	6443.12
909.626	6447.12
909.862	6432.12
910.099	6333.12
910.335	6397.12
910.572	6272.12
910.808	6315.12
911.045	6273.12
911.281	6236.12
911.518	6251.12
911.754	6237.12
911.99	6121.12
912.226	6115.12
912.463	6039.12
912.699	6006.12
912.935	5971.12
913.171	5949.12
913.407	5859.12
913.643	5889.12
913.879	5830.12
914.114	5734.12
914.35	5707.12
914.586	5674.12
914.822	5584.12
915.057	5631.12
915.293	5461.12
915.529	5462.12
915.764	5531.12
916	5542.12
916.235	5543.12
916.471	5476.12
916.706	5435.12
916.941	5385.12
917.177	5394.12
917.412	5465.12
917.647	5417.12
917.882	5379.12
918.117	5410.12
918.352	5401.12
918.588	5394.12
918.823	5261.12
919.057	5209.12
919.292	5126.12
919.527	5180.12
919.762	5080.12
919.997	5093.12
920.232	5025.12
920.466	4948.12
920.701	4810.12
920.935	4878.12
921.17	4818.12
921.405	4761.12
921.639	4805.12
921.873	4797.12
922.108	4824.12
922.342	4810.12
922.576	4751.12
922.811	4698.12
923.045	4731.12
923.279	4709.12
923.513	4614.12
923.747	4705.12
923.981	4645.12
924.215	4544.12
924.449	4507.12
924.683	4469.12
924.917	4476.12
925.151	4490.12
925.385	4527.12
925.618	4483.12
925.852	4448.12
926.086	4382.12
926.319	4418.12
926.553	4391.12
926.786	4444.12
927.02	4398.12
927.253	4471.12
927.486	4422.12
927.72	4338.12
927.953	4372.12
928.186	4344.12
928.42	4362.12
928.653	4294.12
928.886	4225.12
929.119	4306.12
929.352	4291.12
929.585	4227.12
929.818	4144.12
930.051	4161.12
930.284	4156.12
930.516	4040.12
930.749	4043.12
930.982	4099.12
931.215	4063.12
931.447	3975.12
931.68	3946.12
931.912	3964.12
932.145	3957.12
932.377	4002.12
932.61	4086.12
932.842	3907.12
933.074	4010.12
933.307	3911.12
933.539	4032.12
933.771	4019.12
934.003	3960.12
934.236	4025.12
934.468	3977.12
934.7	3924.12
934.932	3986.12
935.164	3848.12
935.395	3883.12
935.627	3874.12
935.859	3866.12
936.091	3831.12
936.323	3899.12
936.554	3888.12
936.786	3808.12
937.017	3768.12
937.249	3818.12
937.481	3735.12
937.712	3796.12
937.943	3724.12
938.175	3705.12
938.406	3725.12
938.637	3799.12
938.869	3686.12
939.1	3765.12
939.331	3673.12
939.562	3718.12
939.793	3706.12
940.024	3697.12
940.255	3707.12
940.486	3681.12
940.717	3655.12
940.948	3592.12
941.179	3599.12
941.409	3608.12
941.64	3596.12
941.871	3565.12
942.102	3548.12
942.332	3537.12
942.563	3608.12
942.793	3576.12
943.024	3499.12
943.254	3522.12
943.484	3617.12
943.715	3617.12
943.945	3537.12
944.175	3484.12
944.405	3494.12
944.636	3513.12
944.866	3513.12
945.096	3557.12
945.326	3442.12
945.556	3517.12
945.786	3529.12
946.016	3444.12
946.245	3367.12
946.475	3373.12
946.705	3372.12
946.935	3376.12
947.164	3382.12
947.394	3286.12
947.624	3340.12
947.853	3322.12
948.083	3359.12
948.312	3272.12
948.542	3234.12
948.771	3169.12
949	3203.12
949.23	3199.12
949.459	3251.12
949.688	3278.12
949.917	3256.12
950.146	3223.12
950.375	3283.12
950.604	3180.12
950.833	3280.12
951.062	3250.12
951.291	3193.12
951.52	3152.12
951.749	3201.12
951.978	3100.12
952.206	3129.12
952.435	3106.12
952.664	3172.12
952.892	3206.12
953.121	3126.12
953.349	3175.12
953.578	3119.12
953.806	3098.12
954.035	3031.12
954.263	3050.12
954.491	2988.12
954.719	3028.12
954.948	3018.12
955.176	2988.12
955.404	2911.12
955.632	3007.12
955.86	2978.12
956.088	2950.12
956.316	2967.12
956.544	2995.12
956.772	2962.12
956.999	2873.12
957.227	2978.12
957.455	2842.12
957.683	2861.12
957.91	2833.12
958.138	2782.12
958.365	2826.12
958.593	2807.12
958.82	2750.12
959.048	2823.12
959.275	2802.12
959.502	2759.12
959.73	2749.12
959.957	2783.12
960.184	2828.12
960.411	2723.12
960.638	2806.12
960.865	2773.12
961.092	2797.12
961.319	2672.12
961.546	2784.12
961.773	2767.12
962	2711.12
962.227	2782.12
962.454	2703.12
962.68	2690.12
962.907	2741.12
963.134	2653.12
963.36	2665.12
963.587	2653.12
963.813	2623.12
964.04	2642.12
964.266	2573.12
964.493	2654.12
964.719	2647.12
964.945	2600.12
965.171	2478.12
965.398	2564.12
965.624	2556.12
965.85	2496.12
966.076	2540.12
966.302	2589.12
966.528	2516.12
966.754	2526.12
966.98	2488.12
967.206	2488.12
967.431	2406.12
967.657	2553.12
967.883	2471.12
968.109	2446.12
968.334	2434.12
968.56	2424.12
968.785	2393.12
969.011	2422.12
969.236	2456.12
969.462	2383.12
969.687	2374.12
969.912	2434.12
970.138	2438.12
970.363	2334.12
970.588	2384.12
970.813	2358.12
971.038	2338.12
971.263	2371.12
971.488	2343.12
971.713	2369.12
971.938	2375.12
972.163	2276.12
972.388	2285.12
972.613	2279.12
972.838	2292.12
973.062	2282.12
973.287	2242.12
973.512	2191.12
973.736	2268.12
973.961	2227.12
974.185	2207.12
974.41	2245.12
974.634	2111.12
974.858	2160.12
975.083	2200.12
975.307	2177.12
975.531	2122.12
975.755	2080.12
975.98	2100.12
976.204	2042.12
976.428	2045.12
976.652	2051.12
976.876	2053.12
977.1	2066.12
977.324	2005.12
977.547	2101.12
977.771	2046.12
977.995	2052.12
978.219	1982.12
978.442	2092.12
978.666	2023.12
978.89	2054.12
979.113	2021.12
979.337	2014.12
979.56	1975.12
979.783	2081.12
980.007	1936.12
980.23	1988.12
980.453	1938.12
980.677	1984.12
980.9	1978.12
981.123	1885.12
981.346	1944.12
981.569	1981.12
981.792	1991.12
982.015	1931.12
982.238	1876.12
982.461	1904.12
982.684	1856.12
982.907	1815.12
983.129	1829.12
983.352	1857.12
983.575	1864.12
983.797	1875.12
984.02	1808.12
984.242	1839.12
984.465	1834.12
984.687	1858.12
984.91	1840.12
985.132	1845.12
985.354	1848.12
985.577	1806.12
985.799	1823.12
986.021	1741.12
986.243	1771.12
986.465	1776.12
986.687	1821.12
986.909	1865.12
987.131	1787.12
987.353	1769.12
987.575	1767.12
987.797	1731.12
988.019	1717.12
988.241	1801.12
988.462	1714.12
988.684	1774.12
988.906	1783.12
989.127	1773.12
989.349	1693.12
989.57	1736.12
989.792	1776.12
990.013	1759.12
990.234	1756.12
990.456	1759.12
990.677	1785.12
990.898	1705.12
991.119	1675.12
991.341	1754.12
991.562	1667.12
991.783	1684.12
992.004	1639.12
992.225	1629.12
992.446	1663.12
992.667	1578.12
992.887	1666.12
993.108	1562.12
993.329	1722.12
993.55	1657.12
993.77	1602.12
993.991	1591.12
994.212	1602.12
994.432	1619.12
994.653	1639.12
994.873	1608.12
995.093	1507.12
995.314	1526.12
995.534	1622.12
995.754	1645.12
995.975	1625.12
996.195	1531.12
996.415	1602.12
996.635	1598.12
996.855	1606.12
997.075	1567.12
997.295	1571.12
997.515	1542.12
997.735	1582.12
997.955	1571.12
998.174	1544.12
998.394	1532.12
998.614	1567.12
998.834	1519.12
999.053	1559.12
999.273	1543.12
999.492	1604.12
999.712	1544.12
999.931	1512.12
1000.151	1557.12
1000.37	1517.12
1000.589	1570.12
1000.809	1500.12
1001.028	1598.12
1001.247	1528.12
1001.466	1433.12
1001.685	1592.12
1001.904	1516.12
1002.123	1495.12
1002.342	1492.12
1002.561	1445.12
1002.78	1476.12
1002.999	1553.12
1003.218	1473.12
1003.436	1475.12
1003.655	1522.12
1003.874	1429.12
1004.092	1455.12
1004.311	1493.12
1004.53	1452.12
1004.748	1533.12
1004.966	1469.12
1005.185	1494.12
1005.403	1506.12
1005.622	1489.12
1005.84	1543.12
1006.058	1441.12
1006.276	1468.12
1006.494	1864.12
1006.712	1465.12
1006.931	1562.12
1007.149	1420.12
1007.367	1476.12
1007.584	1495.12
1007.802	1565.12
1008.02	1462.12
1008.238	1573.12
1008.456	1574.12
1008.673	1446.12
1008.891	1595.12
1009.109	1549.12
1009.326	1611.12
1009.544	1695.12
1009.761	1608.12
1009.979	1687.12
1010.196	1744.12
1010.413	1854.12
1010.631	1909.12
1010.848	1977.12
1011.065	1977.12
1011.282	1913.12
1011.5	1845.12
1011.717	1967.12
1011.934	1877.12
1012.151	1904.12
1012.368	1894.12
1012.585	1836.12
1012.801	1885.12
1013.018	1869.12
1013.235	1834.12
1013.452	1870.12
1013.669	1876.12
1013.885	1860.12
1014.102	1908.12
1014.318	1880.12
1014.535	1838.12
1014.751	1839.12
1014.968	1833.12
1015.184	1824.12
1015.401	1761.12
1015.617	1792.12
1015.833	1726.12
1016.049	1720.12
1016.266	1707.12
1016.482	1687.12
1016.698	1610.12
1016.914	1708.12
1017.13	1633.12
1017.346	1628.12
1017.562	1723.12
1017.778	1597.12
1017.993	1576.12
1018.209	1624.12
1018.425	1616.12
1018.641	1575.12
1018.856	1557.12
1019.072	1610.12
1019.288	1645.12
1019.503	1565.12
1019.719	1507.12
1019.934	1507.12
1020.149	1566.12
1020.365	1500.12
1020.58	1428.12
1020.795	1496.12
1021.011	1419.12
1021.226	1386.12
1021.441	1392.12
1021.656	1309.12
1021.871	1248.12
1022.086	1245.12
1022.301	1259.12
1022.516	1222.12
1022.731	1260.12
1022.946	1182.12
1023.16	1167.12
1023.375	1147.12
1023.59	1100.12
1023.804	1095.12
1024.019	1171.12
1024.234	1029.12
1024.448	1070.12
1024.663	997.12
1024.877	1030.12
1025.092	1028.12
1025.306	1022.12
1025.52	930.12
1025.734	1007.12
1025.949	922.12
1026.163	908.12
1026.377	848.12
1026.591	900.12
1026.805	823.12
1027.019	831.12
1027.233	783.12
1027.447	742.12
1027.661	832.12
1027.875	773.12
1028.088	799.12
1028.302	713.12
1028.516	695.12
1028.73	702.12
1028.943	709.12
1029.157	631.12
1029.37	588.12
1029.584	-0.88
1029.797	-1.88
1030.011	-0.88
1030.224	-4.88
