Data from QEP037381__205__11-28-43-222.txt Node

Date: Fri Apr 28 11:28:43 EDT 2023
User: dcclab
Spectrometer: QEP03738
Trigger mode: 4
Integration Time (sec): 1.000000E1
Scans to average: 1
Electric dark correction enabled: true
Nonlinearity correction enabled: false
Boxcar width: 0
XAxis mode: Wavelengths
Number of Pixels in Spectrum: 1044
>>>>>Begin Spectral Data<<<<<
784.041	10.25
784.3	-0.75
784.558	1.25
784.817	-2.75
785.075	63510.25
785.334	12953.25
785.592	6822.25
785.851	4783.25
786.109	3615.25
786.368	2855.25
786.626	2329.25
786.884	1948.25
787.143	1666.25
787.401	1352.25
787.659	1235.25
787.917	1045.25
788.175	977.25
788.433	876.25
788.691	779.25
788.949	711.25
789.207	686.25
789.465	585.25
789.723	573.25
789.98	545.25
790.238	563.25
790.496	537.25
790.753	515.25
791.011	561.25
791.268	499.25
791.526	480.25
791.783	519.25
792.041	496.25
792.298	415.25
792.556	472.25
792.813	450.25
793.07	428.25
793.327	434.25
793.584	490.25
793.841	422.25
794.099	439.25
794.356	522.25
794.613	393.25
794.869	434.25
795.126	408.25
795.383	395.25
795.64	394.25
795.897	363.25
796.153	413.25
796.41	411.25
796.667	388.25
796.923	403.25
797.18	398.25
797.436	428.25
797.693	391.25
797.949	432.25
798.206	471.25
798.462	395.25
798.718	444.25
798.974	415.25
799.231	453.25
799.487	444.25
799.743	464.25
799.999	475.25
800.255	483.25
800.511	468.25
800.767	514.25
801.023	489.25
801.279	523.25
801.534	555.25
801.79	599.25
802.046	644.25
802.302	801.25
802.557	881.25
802.813	1123.25
803.068	1401.25
803.324	1965.25
803.579	2724.25
803.835	3729.25
804.09	5087.25
804.345	6541.25
804.601	7920.25
804.856	9260.25
805.111	10294.25
805.366	11042.25
805.621	11415.25
805.876	11795.25
806.131	12040.25
806.386	12293.25
806.641	12506.25
806.896	12623.25
807.151	12954.25
807.406	13004.25
807.661	13238.25
807.915	13458.25
808.17	13692.25
808.425	13913.25
808.679	13847.25
808.934	14143.25
809.188	14239.25
809.443	14407.25
809.697	14644.25
809.951	14661.25
810.206	14776.25
810.46	14947.25
810.714	15081.25
810.968	15142.25
811.223	15355.25
811.477	15496.25
811.731	15492.25
811.985	15497.25
812.239	15573.25
812.493	15605.25
812.747	15713.25
813	15712.25
813.254	15856.25
813.508	15884.25
813.762	16050.25
814.015	16047.25
814.269	16113.25
814.522	16261.25
814.776	16377.25
815.03	16658.25
815.283	16806.25
815.536	17091.25
815.79	17385.25
816.043	17500.25
816.296	17694.25
816.55	17953.25
816.803	18202.25
817.056	18517.25
817.309	18712.25
817.562	18784.25
817.815	18957.25
818.068	19137.25
818.321	19302.25
818.574	19618.25
818.827	19958.25
819.079	20218.25
819.332	20647.25
819.585	20737.25
819.838	21131.25
820.09	21126.25
820.343	21321.25
820.595	21258.25
820.848	21567.25
821.1	21579.25
821.353	21517.25
821.605	21386.25
821.857	21436.25
822.11	21268.25
822.362	21363.25
822.614	21307.25
822.866	21267.25
823.118	21240.25
823.37	21358.25
823.622	21512.25
823.874	21650.25
824.126	21612.25
824.378	21515.25
824.63	21641.25
824.882	21587.25
825.134	21587.25
825.385	21555.25
825.637	21486.25
825.888	21368.25
826.14	21299.25
826.392	21192.25
826.643	21140.25
826.895	21115.25
827.146	21025.25
827.397	20896.25
827.649	20953.25
827.9	20862.25
828.151	20753.25
828.402	20923.25
828.653	20959.25
828.905	21021.25
829.156	21131.25
829.407	21032.25
829.658	21068.25
829.909	21185.25
830.159	21029.25
830.41	21086.25
830.661	20872.25
830.912	20646.25
831.162	20669.25
831.413	20533.25
831.664	20539.25
831.914	20570.25
832.165	20590.25
832.415	20543.25
832.666	20464.25
832.916	20662.25
833.167	20481.25
833.417	20410.25
833.667	20400.25
833.917	20236.25
834.168	20327.25
834.418	20246.25
834.668	20050.25
834.918	19837.25
835.168	19902.25
835.418	19662.25
835.668	19721.25
835.918	19716.25
836.167	19573.25
836.417	19504.25
836.667	19603.25
836.917	19521.25
837.166	19475.25
837.416	19493.25
837.666	19451.25
837.915	19311.25
838.165	19283.25
838.414	19209.25
838.663	19236.25
838.913	19246.25
839.162	19153.25
839.411	19262.25
839.661	19075.25
839.91	19042.25
840.159	19105.25
840.408	19112.25
840.657	19048.25
840.906	18981.25
841.155	19067.25
841.404	19022.25
841.653	19030.25
841.902	19038.25
842.15	18995.25
842.399	19032.25
842.648	18931.25
842.897	19115.25
843.145	18793.25
843.394	18706.25
843.642	18460.25
843.891	18478.25
844.139	18431.25
844.388	18190.25
844.636	18027.25
844.884	18042.25
845.133	18039.25
845.381	18033.25
845.629	18049.25
845.877	18120.25
846.125	17936.25
846.373	18051.25
846.621	17820.25
846.869	17876.25
847.117	17744.25
847.365	17655.25
847.613	17586.25
847.861	17568.25
848.108	17493.25
848.356	17535.25
848.604	17418.25
848.851	17503.25
849.099	17504.25
849.346	17568.25
849.594	17613.25
849.841	17647.25
850.089	17716.25
850.336	17652.25
850.583	17696.25
850.831	17642.25
851.078	17539.25
851.325	17511.25
851.572	17485.25
851.819	17245.25
852.066	16921.25
852.313	16624.25
852.56	16511.25
852.807	16526.25
853.054	16444.25
853.301	16428.25
853.548	16369.25
853.794	16578.25
854.041	16532.25
854.288	16602.25
854.534	16733.25
854.781	16744.25
855.028	16707.25
855.274	16703.25
855.52	16574.25
855.767	16550.25
856.013	16584.25
856.26	16905.25
856.506	16374.25
856.752	16246.25
856.998	16243.25
857.244	16228.25
857.49	16411.25
857.736	16521.25
857.982	16339.25
858.228	16324.25
858.474	16239.25
858.72	16059.25
858.966	15925.25
859.212	15722.25
859.458	15655.25
859.703	15349.25
859.949	15296.25
860.195	15099.25
860.44	15122.25
860.686	15107.25
860.931	15160.25
861.177	14963.25
861.422	14850.25
861.667	14739.25
861.913	14629.25
862.158	14798.25
862.403	14834.25
862.648	14735.25
862.893	14857.25
863.138	14767.25
863.384	14702.25
863.629	14736.25
863.873	14709.25
864.118	14547.25
864.363	14482.25
864.608	14472.25
864.853	14378.25
865.098	14293.25
865.342	14304.25
865.587	14215.25
865.832	14115.25
866.076	14084.25
866.321	14059.25
866.565	13964.25
866.81	13988.25
867.054	13904.25
867.298	13946.25
867.543	13761.25
867.787	13973.25
868.031	13850.25
868.275	13837.25
868.519	13788.25
868.764	13789.25
869.008	13812.25
869.252	13785.25
869.496	13726.25
869.739	13786.25
869.983	13829.25
870.227	13817.25
870.471	13749.25
870.715	13833.25
870.958	13823.25
871.202	13843.25
871.446	13884.25
871.689	13757.25
871.933	13817.25
872.176	13762.25
872.42	13774.25
872.663	13722.25
872.906	13726.25
873.15	13671.25
873.393	13771.25
873.636	13736.25
873.879	13501.25
874.122	13339.25
874.366	13145.25
874.609	13077.25
874.852	12858.25
875.095	12907.25
875.337	12702.25
875.58	12650.25
875.823	12665.25
876.066	12660.25
876.309	12641.25
876.551	12488.25
876.794	12379.25
877.037	12489.25
877.279	12360.25
877.522	12311.25
877.764	12382.25
878.007	12253.25
878.249	12268.25
878.491	12219.25
878.734	12265.25
878.976	12160.25
879.218	12118.25
879.46	11963.25
879.702	11976.25
879.945	11873.25
880.187	11698.25
880.429	11675.25
880.671	11586.25
880.912	11554.25
881.154	11523.25
881.396	11424.25
881.638	11386.25
881.88	11456.25
882.121	11360.25
882.363	11347.25
882.605	11386.25
882.846	11375.25
883.088	11401.25
883.329	11425.25
883.571	11407.25
883.812	11638.25
884.053	11950.25
884.295	12298.25
884.536	12419.25
884.777	12263.25
885.018	12151.25
885.259	12017.25
885.5	11974.25
885.742	12059.25
885.982	11834.25
886.223	11711.25
886.464	11564.25
886.705	11466.25
886.946	11327.25
887.187	11063.25
887.428	10897.25
887.668	10698.25
887.909	10503.25
888.15	10436.25
888.39	10324.25
888.631	10354.25
888.871	10209.25
889.111	10188.25
889.352	9997.25
889.592	9951.25
889.833	9813.25
890.073	9761.25
890.313	9807.25
890.553	9616.25
890.793	9597.25
891.033	9552.25
891.273	9533.25
891.513	9519.25
891.753	9589.25
891.993	9445.25
892.233	9488.25
892.473	9585.25
892.713	9484.25
892.952	9474.25
893.192	9472.25
893.432	9416.25
893.671	9461.25
893.911	9329.25
894.15	9352.25
894.39	9195.25
894.629	9158.25
894.869	9119.25
895.108	9064.25
895.347	9044.25
895.587	9041.25
895.826	8918.25
896.065	8934.25
896.304	8910.25
896.543	8897.25
896.782	8846.25
897.021	8871.25
897.26	8856.25
897.499	8902.25
897.738	8871.25
897.977	8712.25
898.216	8721.25
898.454	8578.25
898.693	8577.25
898.932	8573.25
899.17	8463.25
899.409	8492.25
899.647	8510.25
899.886	8487.25
900.124	8473.25
900.363	8412.25
900.601	8426.25
900.839	8510.25
901.078	8495.25
901.316	8601.25
901.554	8632.25
901.792	8658.25
902.03	8653.25
902.268	8628.25
902.506	8670.25
902.744	8519.25
902.982	8484.25
903.22	8368.25
903.458	8203.25
903.695	8119.25
903.933	7988.25
904.171	7807.25
904.409	7702.25
904.646	7616.25
904.884	7498.25
905.121	7511.25
905.359	7354.25
905.596	7232.25
905.833	7194.25
906.071	7194.25
906.308	7175.25
906.545	7190.25
906.783	7149.25
907.02	7123.25
907.257	7083.25
907.494	7072.25
907.731	7055.25
907.968	7027.25
908.205	6965.25
908.442	6915.25
908.679	6915.25
908.915	6890.25
909.152	6824.25
909.389	6666.25
909.626	6682.25
909.862	6624.25
910.099	6589.25
910.335	6634.25
910.572	6507.25
910.808	6505.25
911.045	6450.25
911.281	6400.25
911.518	6458.25
911.754	6391.25
911.99	6381.25
912.226	6290.25
912.463	6234.25
912.699	6218.25
912.935	6149.25
913.171	6112.25
913.407	6108.25
913.643	6066.25
913.879	6023.25
914.114	5958.25
914.35	5882.25
914.586	5843.25
914.822	5724.25
915.057	5831.25
915.293	5632.25
915.529	5658.25
915.764	5696.25
916	5709.25
916.235	5663.25
916.471	5675.25
916.706	5555.25
916.941	5571.25
917.177	5597.25
917.412	5600.25
917.647	5626.25
917.882	5602.25
918.117	5603.25
918.352	5505.25
918.588	5581.25
918.823	5432.25
919.057	5388.25
919.292	5287.25
919.527	5368.25
919.762	5226.25
919.997	5254.25
920.232	5158.25
920.466	5127.25
920.701	4953.25
920.935	4980.25
921.17	4950.25
921.405	4966.25
921.639	4995.25
921.873	4956.25
922.108	4927.25
922.342	4930.25
922.576	4857.25
922.811	4888.25
923.045	4874.25
923.279	4844.25
923.513	4753.25
923.747	4842.25
923.981	4782.25
924.215	4659.25
924.449	4723.25
924.683	4611.25
924.917	4617.25
925.151	4612.25
925.385	4655.25
925.618	4587.25
925.852	4616.25
926.086	4507.25
926.319	4549.25
926.553	4544.25
926.786	4532.25
927.02	4509.25
927.253	4576.25
927.486	4517.25
927.72	4479.25
927.953	4525.25
928.186	4463.25
928.42	4519.25
928.653	4402.25
928.886	4389.25
929.119	4435.25
929.352	4424.25
929.585	4388.25
929.818	4305.25
930.051	4284.25
930.284	4265.25
930.516	4153.25
930.749	4156.25
930.982	4242.25
931.215	4179.25
931.447	4081.25
931.68	4116.25
931.912	4064.25
932.145	4119.25
932.377	4108.25
932.61	4187.25
932.842	4001.25
933.074	4110.25
933.307	4061.25
933.539	4136.25
933.771	4134.25
934.003	4059.25
934.236	4159.25
934.468	4147.25
934.7	4005.25
934.932	4071.25
935.164	4014.25
935.395	4035.25
935.627	3977.25
935.859	4026.25
936.091	3945.25
936.323	3986.25
936.554	3973.25
936.786	3896.25
937.017	3844.25
937.249	3885.25
937.481	3841.25
937.712	3913.25
937.943	3889.25
938.175	3832.25
938.406	3836.25
938.637	3889.25
938.869	3810.25
939.1	3854.25
939.331	3813.25
939.562	3836.25
939.793	3835.25
940.024	3845.25
940.255	3814.25
940.486	3739.25
940.717	3736.25
940.948	3689.25
941.179	3685.25
941.409	3725.25
941.64	3698.25
941.871	3723.25
942.102	3627.25
942.332	3663.25
942.563	3698.25
942.793	3665.25
943.024	3603.25
943.254	3645.25
943.484	3721.25
943.715	3734.25
943.945	3679.25
944.175	3644.25
944.405	3559.25
944.636	3607.25
944.866	3615.25
945.096	3673.25
945.326	3524.25
945.556	3617.25
945.786	3637.25
946.016	3571.25
946.245	3503.25
946.475	3518.25
946.705	3488.25
946.935	3497.25
947.164	3438.25
947.394	3408.25
947.624	3436.25
947.853	3450.25
948.083	3409.25
948.312	3368.25
948.542	3289.25
948.771	3282.25
949	3316.25
949.23	3305.25
949.459	3357.25
949.688	3387.25
949.917	3331.25
950.146	3311.25
950.375	3398.25
950.604	3295.25
950.833	3365.25
951.062	3374.25
951.291	3306.25
951.52	3265.25
951.749	3301.25
951.978	3221.25
952.206	3231.25
952.435	3238.25
952.664	3239.25
952.892	3256.25
953.121	3249.25
953.349	3245.25
953.578	3263.25
953.806	3174.25
954.035	3136.25
954.263	3168.25
954.491	3084.25
954.719	3144.25
954.948	3091.25
955.176	3086.25
955.404	2986.25
955.632	3102.25
955.86	3067.25
956.088	3066.25
956.316	3061.25
956.544	3072.25
956.772	3020.25
956.999	3017.25
957.227	3061.25
957.455	2938.25
957.683	2974.25
957.91	2917.25
958.138	2908.25
958.365	2894.25
958.593	2918.25
958.82	2852.25
959.048	2904.25
959.275	2864.25
959.502	2878.25
959.73	2816.25
959.957	2860.25
960.184	2863.25
960.411	2818.25
960.638	2902.25
960.865	2829.25
961.092	2843.25
961.319	2768.25
961.546	2824.25
961.773	2836.25
962	2781.25
962.227	2857.25
962.454	2770.25
962.68	2775.25
962.907	2837.25
963.134	2731.25
963.36	2746.25
963.587	2781.25
963.813	2685.25
964.04	2746.25
964.266	2677.25
964.493	2720.25
964.719	2686.25
964.945	2694.25
965.171	2581.25
965.398	2663.25
965.624	2677.25
965.85	2568.25
966.076	2562.25
966.302	2589.25
966.528	2584.25
966.754	2602.25
966.98	2594.25
967.206	2596.25
967.431	2517.25
967.657	2582.25
967.883	2551.25
968.109	2545.25
968.334	2503.25
968.56	2478.25
968.785	2485.25
969.011	2484.25
969.236	2522.25
969.462	2447.25
969.687	2465.25
969.912	2490.25
970.138	2504.25
970.363	2431.25
970.588	2451.25
970.813	2437.25
971.038	2397.25
971.263	2424.25
971.488	2426.25
971.713	2474.25
971.938	2400.25
972.163	2325.25
972.388	2400.25
972.613	2292.25
972.838	2363.25
973.062	2345.25
973.287	2328.25
973.512	2292.25
973.736	2305.25
973.961	2326.25
974.185	2268.25
974.41	2309.25
974.634	2198.25
974.858	2199.25
975.083	2270.25
975.307	2267.25
975.531	2191.25
975.755	2155.25
975.98	2193.25
976.204	2110.25
976.428	2093.25
976.652	2120.25
976.876	2078.25
977.1	2141.25
977.324	2095.25
977.547	2155.25
977.771	2159.25
977.995	2123.25
978.219	2043.25
978.442	2184.25
978.666	2107.25
978.89	2078.25
979.113	2055.25
979.337	2051.25
979.56	2028.25
979.783	2132.25
980.007	1990.25
980.23	2045.25
980.453	2004.25
980.677	2039.25
980.9	1994.25
981.123	1955.25
981.346	2043.25
981.569	2001.25
981.792	2029.25
982.015	1978.25
982.238	1938.25
982.461	2010.25
982.684	1930.25
982.907	1913.25
983.129	1931.25
983.352	1945.25
983.575	1947.25
983.797	1934.25
984.02	1876.25
984.242	1900.25
984.465	1880.25
984.687	1914.25
984.91	1926.25
985.132	1892.25
985.354	1919.25
985.577	1850.25
985.799	1864.25
986.021	1795.25
986.243	1803.25
986.465	1833.25
986.687	1869.25
986.909	1922.25
987.131	1848.25
987.353	1803.25
987.575	1850.25
987.797	1794.25
988.019	1788.25
988.241	1781.25
988.462	1755.25
988.684	1824.25
988.906	1825.25
989.127	1858.25
989.349	1743.25
989.57	1769.25
989.792	1791.25
990.013	1806.25
990.234	1801.25
990.456	1837.25
990.677	1812.25
990.898	1751.25
991.119	1759.25
991.341	1784.25
991.562	1698.25
991.783	1756.25
992.004	1708.25
992.225	1641.25
992.446	1728.25
992.667	1658.25
992.887	1712.25
993.108	1601.25
993.329	1751.25
993.55	1693.25
993.77	1622.25
993.991	1624.25
994.212	1680.25
994.432	1641.25
994.653	1642.25
994.873	1650.25
995.093	1551.25
995.314	1578.25
995.534	1656.25
995.754	1671.25
995.975	1694.25
996.195	1564.25
996.415	1663.25
996.635	1590.25
996.855	1595.25
997.075	1615.25
997.295	1609.25
997.515	1564.25
997.735	1633.25
997.955	1609.25
998.174	1598.25
998.394	1548.25
998.614	1611.25
998.834	1587.25
999.053	1636.25
999.273	1608.25
999.492	1647.25
999.712	1590.25
999.931	1558.25
1000.151	1582.25
1000.37	1555.25
1000.589	1616.25
1000.809	1533.25
1001.028	1638.25
1001.247	1560.25
1001.466	1507.25
1001.685	1614.25
1001.904	1554.25
1002.123	1519.25
1002.342	1562.25
1002.561	1484.25
1002.78	1523.25
1002.999	1556.25
1003.218	1509.25
1003.436	1514.25
1003.655	1536.25
1003.874	1487.25
1004.092	1509.25
1004.311	1533.25
1004.53	1492.25
1004.748	1594.25
1004.966	1479.25
1005.185	1558.25
1005.403	1549.25
1005.622	1519.25
1005.84	1597.25
1006.058	1500.25
1006.276	1528.25
1006.494	1887.25
1006.712	1511.25
1006.931	1564.25
1007.149	1510.25
1007.367	1494.25
1007.584	1566.25
1007.802	1567.25
1008.02	1524.25
1008.238	1640.25
1008.456	1652.25
1008.673	1509.25
1008.891	1639.25
1009.109	1602.25
1009.326	1650.25
1009.544	1751.25
1009.761	1696.25
1009.979	1783.25
1010.196	1797.25
1010.413	1958.25
1010.631	1992.25
1010.848	2055.25
1011.065	2057.25
1011.282	1988.25
1011.5	1952.25
1011.717	2035.25
1011.934	1990.25
1012.151	1996.25
1012.368	1992.25
1012.585	1929.25
1012.801	1982.25
1013.018	1933.25
1013.235	1920.25
1013.452	1968.25
1013.669	1972.25
1013.885	1979.25
1014.102	2017.25
1014.318	1982.25
1014.535	1940.25
1014.751	1965.25
1014.968	1946.25
1015.184	1957.25
1015.401	1870.25
1015.617	1897.25
1015.833	1829.25
1016.049	1834.25
1016.266	1830.25
1016.482	1816.25
1016.698	1751.25
1016.914	1786.25
1017.13	1727.25
1017.346	1707.25
1017.562	1788.25
1017.778	1704.25
1017.993	1687.25
1018.209	1729.25
1018.425	1688.25
1018.641	1668.25
1018.856	1660.25
1019.072	1687.25
1019.288	1715.25
1019.503	1685.25
1019.719	1614.25
1019.934	1599.25
1020.149	1668.25
1020.365	1598.25
1020.58	1566.25
1020.795	1587.25
1021.011	1504.25
1021.226	1453.25
1021.441	1480.25
1021.656	1393.25
1021.871	1331.25
1022.086	1325.25
1022.301	1314.25
1022.516	1272.25
1022.731	1315.25
1022.946	1251.25
1023.16	1248.25
1023.375	1194.25
1023.59	1164.25
1023.804	1108.25
1024.019	1207.25
1024.234	1095.25
1024.448	1127.25
1024.663	1051.25
1024.877	1056.25
1025.092	1075.25
1025.306	1050.25
1025.52	980.25
1025.734	1084.25
1025.949	963.25
1026.163	952.25
1026.377	886.25
1026.591	941.25
1026.805	859.25
1027.019	868.25
1027.233	816.25
1027.447	775.25
1027.661	892.25
1027.875	800.25
1028.088	832.25
1028.302	730.25
1028.516	738.25
1028.73	723.25
1028.943	704.25
1029.157	680.25
1029.37	635.25
1029.584	-3.75
1029.797	-1.75
1030.011	-0.75
1030.224	-1.75
