Data from QEP037381__191__11-26-23-220.txt Node

Date: Fri Apr 28 11:26:23 EDT 2023
User: dcclab
Spectrometer: QEP03738
Trigger mode: 4
Integration Time (sec): 1.000000E1
Scans to average: 1
Electric dark correction enabled: true
Nonlinearity correction enabled: false
Boxcar width: 0
XAxis mode: Wavelengths
Number of Pixels in Spectrum: 1044
>>>>>Begin Spectral Data<<<<<
784.041	11.75
784.3	-2.25
784.558	-1.25
784.817	0.75
785.075	66229.75
785.334	13808.75
785.592	7450.75
785.851	5270.75
786.109	4027.75
786.368	3141.75
786.626	2539.75
786.884	2141.75
787.143	1779.75
787.401	1469.75
787.659	1335.75
787.917	1119.75
788.175	1050.75
788.433	923.75
788.691	812.75
788.949	742.75
789.207	717.75
789.465	629.75
789.723	604.75
789.98	563.75
790.238	585.75
790.496	550.75
790.753	524.75
791.011	563.75
791.268	508.75
791.526	486.75
791.783	510.75
792.041	490.75
792.298	405.75
792.556	477.75
792.813	461.75
793.07	443.75
793.327	431.75
793.584	496.75
793.841	434.75
794.099	461.75
794.356	519.75
794.613	403.75
794.869	443.75
795.126	416.75
795.383	391.75
795.64	405.75
795.897	365.75
796.153	416.75
796.41	409.75
796.667	390.75
796.923	390.75
797.18	403.75
797.436	433.75
797.693	389.75
797.949	458.75
798.206	475.75
798.462	376.75
798.718	450.75
798.974	415.75
799.231	445.75
799.487	447.75
799.743	464.75
799.999	476.75
800.255	478.75
800.511	449.75
800.767	497.75
801.023	489.75
801.279	503.75
801.534	557.75
801.79	595.75
802.046	627.75
802.302	780.75
802.557	864.75
802.813	1092.75
803.068	1334.75
803.324	1875.75
803.579	2585.75
803.835	3601.75
804.09	4897.75
804.345	6126.75
804.601	7499.75
804.856	8624.75
805.111	9612.75
805.366	10210.75
805.621	10613.75
805.876	10946.75
806.131	11136.75
806.386	11316.75
806.641	11458.75
806.896	11670.75
807.151	11877.75
807.406	11961.75
807.661	12108.75
807.915	12395.75
808.17	12575.75
808.425	12737.75
808.679	12805.75
808.934	12982.75
809.188	13077.75
809.443	13250.75
809.697	13348.75
809.951	13456.75
810.206	13564.75
810.46	13632.75
810.714	13800.75
810.968	13910.75
811.223	13952.75
811.477	14024.75
811.731	14186.75
811.985	14227.75
812.239	14185.75
812.493	14287.75
812.747	14393.75
813	14312.75
813.254	14466.75
813.508	14604.75
813.762	14580.75
814.015	14618.75
814.269	14657.75
814.522	14774.75
814.776	14919.75
815.03	15146.75
815.283	15340.75
815.536	15455.75
815.79	15779.75
816.043	15943.75
816.296	16214.75
816.55	16254.75
816.803	16395.75
817.056	16756.75
817.309	16784.75
817.562	17013.75
817.815	17096.75
818.068	17267.75
818.321	17504.75
818.574	17740.75
818.827	17960.75
819.079	18203.75
819.332	18536.75
819.585	18720.75
819.838	19051.75
820.09	19108.75
820.343	19074.75
820.595	19162.75
820.848	19417.75
821.1	19418.75
821.353	19421.75
821.605	19348.75
821.857	19423.75
822.11	19160.75
822.362	19294.75
822.614	19131.75
822.866	19170.75
823.118	19178.75
823.37	19323.75
823.622	19351.75
823.874	19331.75
824.126	19525.75
824.378	19416.75
824.63	19433.75
824.882	19521.75
825.134	19494.75
825.385	19395.75
825.637	19380.75
825.888	19267.75
826.14	19169.75
826.392	19102.75
826.643	19019.75
826.895	18992.75
827.146	18915.75
827.397	18813.75
827.649	18922.75
827.9	18775.75
828.151	18870.75
828.402	18802.75
828.653	18856.75
828.905	18953.75
829.156	19036.75
829.407	18874.75
829.658	18883.75
829.909	19064.75
830.159	19106.75
830.41	18858.75
830.661	18751.75
830.912	18593.75
831.162	18433.75
831.413	18494.75
831.664	18557.75
831.914	18501.75
832.165	18545.75
832.415	18497.75
832.666	18420.75
832.916	18348.75
833.167	18380.75
833.417	18390.75
833.667	18331.75
833.917	18245.75
834.168	18169.75
834.418	18173.75
834.668	18089.75
834.918	17959.75
835.168	17930.75
835.418	17748.75
835.668	17757.75
835.918	17781.75
836.167	17627.75
836.417	17517.75
836.667	17591.75
836.917	17531.75
837.166	17555.75
837.416	17552.75
837.666	17444.75
837.915	17491.75
838.165	17493.75
838.414	17303.75
838.663	17267.75
838.913	17275.75
839.162	17267.75
839.411	17268.75
839.661	17145.75
839.91	17138.75
840.159	17074.75
840.408	17150.75
840.657	17076.75
840.906	17114.75
841.155	17090.75
841.404	17123.75
841.653	17138.75
841.902	17060.75
842.15	17158.75
842.399	17080.75
842.648	17064.75
842.897	17115.75
843.145	16886.75
843.394	16740.75
843.642	16757.75
843.891	16628.75
844.139	16512.75
844.388	16356.75
844.636	16352.75
844.884	16279.75
845.133	16219.75
845.381	16144.75
845.629	16252.75
845.877	16290.75
846.125	16158.75
846.373	16160.75
846.621	16091.75
846.869	16061.75
847.117	15956.75
847.365	15920.75
847.613	15888.75
847.861	15783.75
848.108	15815.75
848.356	15719.75
848.604	15628.75
848.851	15767.75
849.099	15782.75
849.346	15743.75
849.594	15873.75
849.841	15919.75
850.089	15805.75
850.336	15969.75
850.583	15970.75
850.831	15858.75
851.078	15727.75
851.325	15686.75
851.572	15701.75
851.819	15551.75
852.066	15162.75
852.313	15016.75
852.56	14855.75
852.807	14701.75
853.054	14695.75
853.301	14761.75
853.548	14744.75
853.794	14899.75
854.041	14917.75
854.288	14921.75
854.534	15130.75
854.781	15051.75
855.028	14985.75
855.274	15081.75
855.52	14956.75
855.767	14962.75
856.013	14971.75
856.26	15299.75
856.506	14648.75
856.752	14784.75
856.998	14709.75
857.244	14715.75
857.49	14881.75
857.736	14882.75
857.982	14781.75
858.228	14699.75
858.474	14637.75
858.72	14402.75
858.966	14321.75
859.212	14214.75
859.458	14002.75
859.703	13956.75
859.949	13757.75
860.195	13691.75
860.44	13637.75
860.686	13530.75
860.931	13649.75
861.177	13530.75
861.422	13436.75
861.667	13330.75
861.913	13250.75
862.158	13347.75
862.403	13422.75
862.648	13418.75
862.893	13434.75
863.138	13426.75
863.384	13307.75
863.629	13251.75
863.873	13233.75
864.118	13199.75
864.363	13128.75
864.608	13116.75
864.853	12963.75
865.098	12924.75
865.342	12848.75
865.587	12844.75
865.832	12888.75
866.076	12773.75
866.321	12722.75
866.565	12630.75
866.81	12530.75
867.054	12655.75
867.298	12615.75
867.543	12488.75
867.787	12575.75
868.031	12477.75
868.275	12545.75
868.519	12448.75
868.764	12523.75
869.008	12449.75
869.252	12399.75
869.496	12529.75
869.739	12457.75
869.983	12469.75
870.227	12412.75
870.471	12402.75
870.715	12470.75
870.958	12550.75
871.202	12477.75
871.446	12505.75
871.689	12533.75
871.933	12478.75
872.176	12462.75
872.42	12541.75
872.663	12424.75
872.906	12439.75
873.15	12469.75
873.393	12482.75
873.636	12479.75
873.879	12313.75
874.122	12110.75
874.366	11979.75
874.609	11864.75
874.852	11654.75
875.095	11635.75
875.337	11533.75
875.58	11491.75
875.823	11457.75
876.066	11425.75
876.309	11473.75
876.551	11279.75
876.794	11217.75
877.037	11254.75
877.279	11166.75
877.522	11226.75
877.764	11213.75
878.007	11169.75
878.249	11152.75
878.491	11070.75
878.734	11124.75
878.976	11056.75
879.218	10954.75
879.46	10891.75
879.702	10834.75
879.945	10779.75
880.187	10649.75
880.429	10571.75
880.671	10538.75
880.912	10535.75
881.154	10416.75
881.396	10392.75
881.638	10380.75
881.88	10434.75
882.121	10329.75
882.363	10375.75
882.605	10348.75
882.846	10291.75
883.088	10308.75
883.329	10360.75
883.571	10433.75
883.812	10579.75
884.053	10819.75
884.295	11039.75
884.536	11319.75
884.777	11148.75
885.018	10973.75
885.259	10940.75
885.5	10819.75
885.742	10895.75
885.982	10819.75
886.223	10610.75
886.464	10491.75
886.705	10395.75
886.946	10228.75
887.187	10019.75
887.428	10049.75
887.668	9736.75
887.909	9618.75
888.15	9483.75
888.39	9466.75
888.631	9424.75
888.871	9362.75
889.111	9216.75
889.352	9171.75
889.592	9080.75
889.833	8950.75
890.073	8973.75
890.313	8911.75
890.553	8808.75
890.793	8739.75
891.033	8670.75
891.273	8682.75
891.513	8638.75
891.753	8695.75
891.993	8652.75
892.233	8569.75
892.473	8684.75
892.713	8644.75
892.952	8643.75
893.192	8644.75
893.432	8650.75
893.671	8586.75
893.911	8536.75
894.15	8508.75
894.39	8354.75
894.629	8349.75
894.869	8350.75
895.108	8265.75
895.347	8193.75
895.587	8190.75
895.826	8155.75
896.065	8093.75
896.304	8130.75
896.543	8177.75
896.782	8101.75
897.021	8163.75
897.26	8102.75
897.499	8108.75
897.738	8139.75
897.977	8011.75
898.216	7916.75
898.454	7851.75
898.693	7784.75
898.932	7773.75
899.17	7785.75
899.409	7705.75
899.647	7746.75
899.886	7716.75
900.124	7769.75
900.363	7710.75
900.601	7757.75
900.839	7823.75
901.078	7797.75
901.316	7850.75
901.554	7924.75
901.792	7976.75
902.03	7867.75
902.268	7894.75
902.506	7934.75
902.744	7827.75
902.982	7778.75
903.22	7598.75
903.458	7459.75
903.695	7408.75
903.933	7305.75
904.171	7106.75
904.409	7048.75
904.646	6986.75
904.884	6884.75
905.121	6866.75
905.359	6725.75
905.596	6749.75
905.833	6601.75
906.071	6583.75
906.308	6640.75
906.545	6575.75
906.783	6479.75
907.02	6525.75
907.257	6488.75
907.494	6484.75
907.731	6446.75
907.968	6472.75
908.205	6407.75
908.442	6313.75
908.679	6336.75
908.915	6349.75
909.152	6237.75
909.389	6113.75
909.626	6081.75
909.862	6030.75
910.099	6078.75
910.335	6054.75
910.572	5958.75
910.808	6031.75
911.045	5970.75
911.281	5932.75
911.518	5974.75
911.754	5849.75
911.99	5865.75
912.226	5784.75
912.463	5750.75
912.699	5613.75
912.935	5720.75
913.171	5623.75
913.407	5603.75
913.643	5600.75
913.879	5482.75
914.114	5460.75
914.35	5380.75
914.586	5347.75
914.822	5294.75
915.057	5322.75
915.293	5174.75
915.529	5179.75
915.764	5205.75
916	5217.75
916.235	5210.75
916.471	5220.75
916.706	5082.75
916.941	5127.75
917.177	5107.75
917.412	5157.75
917.647	5142.75
917.882	5115.75
918.117	5159.75
918.352	5098.75
918.588	5121.75
918.823	5033.75
919.057	5000.75
919.292	4906.75
919.527	4940.75
919.762	4790.75
919.997	4821.75
920.232	4762.75
920.466	4726.75
920.701	4632.75
920.935	4680.75
921.17	4629.75
921.405	4574.75
921.639	4579.75
921.873	4556.75
922.108	4526.75
922.342	4550.75
922.576	4459.75
922.811	4425.75
923.045	4521.75
923.279	4526.75
923.513	4370.75
923.747	4439.75
923.981	4367.75
924.215	4329.75
924.449	4330.75
924.683	4285.75
924.917	4230.75
925.151	4212.75
925.385	4292.75
925.618	4211.75
925.852	4184.75
926.086	4199.75
926.319	4222.75
926.553	4196.75
926.786	4286.75
927.02	4195.75
927.253	4235.75
927.486	4178.75
927.72	4132.75
927.953	4185.75
928.186	4102.75
928.42	4155.75
928.653	4074.75
928.886	4076.75
929.119	4092.75
929.352	4087.75
929.585	4032.75
929.818	3951.75
930.051	3956.75
930.284	3966.75
930.516	3827.75
930.749	3823.75
930.982	3858.75
931.215	3882.75
931.447	3739.75
931.68	3789.75
931.912	3703.75
932.145	3765.75
932.377	3848.75
932.61	3983.75
932.842	3752.75
933.074	3805.75
933.307	3740.75
933.539	3852.75
933.771	3834.75
934.003	3768.75
934.236	3861.75
934.468	3802.75
934.7	3755.75
934.932	3765.75
935.164	3729.75
935.395	3684.75
935.627	3713.75
935.859	3725.75
936.091	3627.75
936.323	3684.75
936.554	3692.75
936.786	3648.75
937.017	3583.75
937.249	3598.75
937.481	3537.75
937.712	3614.75
937.943	3555.75
938.175	3550.75
938.406	3540.75
938.637	3620.75
938.869	3500.75
939.1	3551.75
939.331	3564.75
939.562	3578.75
939.793	3500.75
940.024	3518.75
940.255	3554.75
940.486	3499.75
940.717	3428.75
940.948	3460.75
941.179	3384.75
941.409	3418.75
941.64	3410.75
941.871	3397.75
942.102	3369.75
942.332	3372.75
942.563	3438.75
942.793	3446.75
943.024	3360.75
943.254	3389.75
943.484	3459.75
943.715	3425.75
943.945	3411.75
944.175	3330.75
944.405	3318.75
944.636	3314.75
944.866	3348.75
945.096	3382.75
945.326	3284.75
945.556	3372.75
945.786	3364.75
946.016	3289.75
946.245	3201.75
946.475	3213.75
946.705	3254.75
946.935	3225.75
947.164	3226.75
947.394	3117.75
947.624	3154.75
947.853	3197.75
948.083	3165.75
948.312	3186.75
948.542	3060.75
948.771	3032.75
949	3100.75
949.23	3122.75
949.459	3084.75
949.688	3144.75
949.917	3074.75
950.146	3105.75
950.375	3147.75
950.604	3031.75
950.833	3127.75
951.062	3112.75
951.291	3076.75
951.52	3046.75
951.749	3021.75
951.978	2984.75
952.206	3013.75
952.435	2984.75
952.664	3057.75
952.892	3024.75
953.121	2984.75
953.349	3004.75
953.578	2989.75
953.806	2955.75
954.035	2918.75
954.263	2969.75
954.491	2880.75
954.719	2902.75
954.948	2905.75
955.176	2823.75
955.404	2801.75
955.632	2885.75
955.86	2830.75
956.088	2814.75
956.316	2847.75
956.544	2875.75
956.772	2816.75
956.999	2796.75
957.227	2846.75
957.455	2722.75
957.683	2769.75
957.91	2713.75
958.138	2714.75
958.365	2721.75
958.593	2692.75
958.82	2640.75
959.048	2703.75
959.275	2670.75
959.502	2700.75
959.73	2610.75
959.957	2677.75
960.184	2702.75
960.411	2607.75
960.638	2672.75
960.865	2627.75
961.092	2677.75
961.319	2558.75
961.546	2681.75
961.773	2653.75
962	2612.75
962.227	2644.75
962.454	2627.75
962.68	2590.75
962.907	2605.75
963.134	2553.75
963.36	2520.75
963.587	2568.75
963.813	2476.75
964.04	2562.75
964.266	2478.75
964.493	2551.75
964.719	2519.75
964.945	2537.75
965.171	2401.75
965.398	2472.75
965.624	2465.75
965.85	2443.75
966.076	2404.75
966.302	2420.75
966.528	2410.75
966.754	2419.75
966.98	2420.75
967.206	2422.75
967.431	2355.75
967.657	2441.75
967.883	2383.75
968.109	2394.75
968.334	2346.75
968.56	2328.75
968.785	2332.75
969.011	2298.75
969.236	2328.75
969.462	2291.75
969.687	2289.75
969.912	2370.75
970.138	2361.75
970.363	2264.75
970.588	2344.75
970.813	2258.75
971.038	2247.75
971.263	2301.75
971.488	2268.75
971.713	2265.75
971.938	2266.75
972.163	2167.75
972.388	2230.75
972.613	2213.75
972.838	2191.75
973.062	2153.75
973.287	2193.75
973.512	2085.75
973.736	2160.75
973.961	2134.75
974.185	2121.75
974.41	2151.75
974.634	2074.75
974.858	2077.75
975.083	2091.75
975.307	2137.75
975.531	2065.75
975.755	1978.75
975.98	2028.75
976.204	1985.75
976.428	1975.75
976.652	1982.75
976.876	1954.75
977.1	1956.75
977.324	1960.75
977.547	2024.75
977.771	1983.75
977.995	1984.75
978.219	1903.75
978.442	2025.75
978.666	1964.75
978.89	1956.75
979.113	1929.75
979.337	1934.75
979.56	1925.75
979.783	1999.75
980.007	1876.75
980.23	1922.75
980.453	1875.75
980.677	1932.75
980.9	1905.75
981.123	1826.75
981.346	1927.75
981.569	1869.75
981.792	1908.75
982.015	1835.75
982.238	1808.75
982.461	1848.75
982.684	1797.75
982.907	1794.75
983.129	1783.75
983.352	1806.75
983.575	1801.75
983.797	1782.75
984.02	1768.75
984.242	1767.75
984.465	1769.75
984.687	1794.75
984.91	1850.75
985.132	1773.75
985.354	1802.75
985.577	1746.75
985.799	1746.75
986.021	1671.75
986.243	1741.75
986.465	1739.75
986.687	1755.75
986.909	1799.75
987.131	1744.75
987.353	1700.75
987.575	1729.75
987.797	1690.75
988.019	1653.75
988.241	1706.75
988.462	1667.75
988.684	1718.75
988.906	1735.75
989.127	1746.75
989.349	1653.75
989.57	1667.75
989.792	1713.75
990.013	1693.75
990.234	1690.75
990.456	1723.75
990.677	1708.75
990.898	1673.75
991.119	1638.75
991.341	1685.75
991.562	1625.75
991.783	1647.75
992.004	1599.75
992.225	1575.75
992.446	1631.75
992.667	1557.75
992.887	1640.75
993.108	1532.75
993.329	1653.75
993.55	1613.75
993.77	1544.75
993.991	1528.75
994.212	1555.75
994.432	1550.75
994.653	1603.75
994.873	1570.75
995.093	1439.75
995.314	1502.75
995.534	1566.75
995.754	1571.75
995.975	1597.75
996.195	1479.75
996.415	1537.75
996.635	1525.75
996.855	1538.75
997.075	1508.75
997.295	1504.75
997.515	1496.75
997.735	1542.75
997.955	1527.75
998.174	1545.75
998.394	1504.75
998.614	1537.75
998.834	1504.75
999.053	1541.75
999.273	1498.75
999.492	1578.75
999.712	1500.75
999.931	1467.75
1000.151	1503.75
1000.37	1476.75
1000.589	1527.75
1000.809	1441.75
1001.028	1555.75
1001.247	1508.75
1001.466	1392.75
1001.685	1537.75
1001.904	1454.75
1002.123	1476.75
1002.342	1485.75
1002.561	1408.75
1002.78	1453.75
1002.999	1514.75
1003.218	1433.75
1003.436	1426.75
1003.655	1456.75
1003.874	1423.75
1004.092	1409.75
1004.311	1479.75
1004.53	1439.75
1004.748	1535.75
1004.966	1421.75
1005.185	1478.75
1005.403	1472.75
1005.622	1444.75
1005.84	1527.75
1006.058	1430.75
1006.276	1444.75
1006.494	1828.75
1006.712	1465.75
1006.931	1545.75
1007.149	1421.75
1007.367	1454.75
1007.584	1468.75
1007.802	1509.75
1008.02	1441.75
1008.238	1572.75
1008.456	1550.75
1008.673	1440.75
1008.891	1546.75
1009.109	1490.75
1009.326	1573.75
1009.544	1670.75
1009.761	1598.75
1009.979	1684.75
1010.196	1711.75
1010.413	1826.75
1010.631	1882.75
1010.848	1917.75
1011.065	1912.75
1011.282	1885.75
1011.5	1849.75
1011.717	1908.75
1011.934	1888.75
1012.151	1887.75
1012.368	1881.75
1012.585	1818.75
1012.801	1851.75
1013.018	1830.75
1013.235	1798.75
1013.452	1843.75
1013.669	1828.75
1013.885	1820.75
1014.102	1892.75
1014.318	1833.75
1014.535	1810.75
1014.751	1847.75
1014.968	1800.75
1015.184	1844.75
1015.401	1757.75
1015.617	1776.75
1015.833	1711.75
1016.049	1729.75
1016.266	1710.75
1016.482	1713.75
1016.698	1643.75
1016.914	1672.75
1017.13	1619.75
1017.346	1587.75
1017.562	1653.75
1017.778	1581.75
1017.993	1562.75
1018.209	1625.75
1018.425	1611.75
1018.641	1560.75
1018.856	1546.75
1019.072	1552.75
1019.288	1598.75
1019.503	1568.75
1019.719	1483.75
1019.934	1477.75
1020.149	1561.75
1020.365	1486.75
1020.58	1442.75
1020.795	1489.75
1021.011	1402.75
1021.226	1378.75
1021.441	1386.75
1021.656	1326.75
1021.871	1237.75
1022.086	1242.75
1022.301	1256.75
1022.516	1219.75
1022.731	1258.75
1022.946	1192.75
1023.16	1151.75
1023.375	1090.75
1023.59	1122.75
1023.804	1083.75
1024.019	1175.75
1024.234	1019.75
1024.448	1063.75
1024.663	987.75
1024.877	987.75
1025.092	1026.75
1025.306	1019.75
1025.52	908.75
1025.734	1026.75
1025.949	930.75
1026.163	901.75
1026.377	842.75
1026.591	883.75
1026.805	807.75
1027.019	831.75
1027.233	789.75
1027.447	720.75
1027.661	845.75
1027.875	788.75
1028.088	763.75
1028.302	694.75
1028.516	699.75
1028.73	685.75
1028.943	688.75
1029.157	642.75
1029.37	587.75
1029.584	0.75
1029.797	-2.25
1030.011	-5.25
1030.224	-2.25
