Data from QEP037381__187__11-25-43-223.txt Node

Date: Fri Apr 28 11:25:43 EDT 2023
User: dcclab
Spectrometer: QEP03738
Trigger mode: 4
Integration Time (sec): 1.000000E1
Scans to average: 1
Electric dark correction enabled: true
Nonlinearity correction enabled: false
Boxcar width: 0
XAxis mode: Wavelengths
Number of Pixels in Spectrum: 1044
>>>>>Begin Spectral Data<<<<<
784.041	13.5
784.3	2.5
784.558	-5.5
784.817	-5.5
785.075	67315.5
785.334	13464.5
785.592	6915.5
785.851	4845.5
786.109	3670.5
786.368	2892.5
786.626	2353.5
786.884	1968.5
787.143	1667.5
787.401	1363.5
787.659	1243.5
787.917	1089.5
788.175	986.5
788.433	876.5
788.691	770.5
788.949	735.5
789.207	697.5
789.465	597.5
789.723	595.5
789.98	537.5
790.238	582.5
790.496	534.5
790.753	519.5
791.011	565.5
791.268	509.5
791.526	495.5
791.783	521.5
792.041	496.5
792.298	422.5
792.556	478.5
792.813	463.5
793.07	437.5
793.327	429.5
793.584	498.5
793.841	423.5
794.099	433.5
794.356	511.5
794.613	398.5
794.869	434.5
795.126	402.5
795.383	388.5
795.64	419.5
795.897	365.5
796.153	423.5
796.41	402.5
796.667	392.5
796.923	400.5
797.18	412.5
797.436	440.5
797.693	376.5
797.949	439.5
798.206	470.5
798.462	375.5
798.718	451.5
798.974	427.5
799.231	451.5
799.487	455.5
799.743	459.5
799.999	469.5
800.255	471.5
800.511	444.5
800.767	483.5
801.023	487.5
801.279	513.5
801.534	557.5
801.79	594.5
802.046	596.5
802.302	738.5
802.557	854.5
802.813	1036.5
803.068	1290.5
803.324	1802.5
803.579	2465.5
803.835	3409.5
804.09	4609.5
804.345	5802.5
804.601	7086.5
804.856	8206.5
805.111	9058.5
805.366	9694.5
805.621	10130.5
805.876	10326.5
806.131	10551.5
806.386	10702.5
806.641	10888.5
806.896	11039.5
807.151	11270.5
807.406	11345.5
807.661	11518.5
807.915	11711.5
808.17	11862.5
808.425	11993.5
808.679	12098.5
808.934	12305.5
809.188	12314.5
809.443	12548.5
809.697	12633.5
809.951	12693.5
810.206	12797.5
810.46	12884.5
810.714	13075.5
810.968	13152.5
811.223	13150.5
811.477	13275.5
811.731	13434.5
811.985	13362.5
812.239	13373.5
812.493	13499.5
812.747	13542.5
813	13598.5
813.254	13538.5
813.508	13673.5
813.762	13699.5
814.015	13736.5
814.269	13911.5
814.522	14015.5
814.776	14069.5
815.03	14252.5
815.283	14335.5
815.536	14580.5
815.79	14849.5
816.043	15012.5
816.296	15271.5
816.55	15410.5
816.803	15504.5
817.056	15859.5
817.309	15854.5
817.562	15981.5
817.815	16222.5
818.068	16340.5
818.321	16480.5
818.574	16765.5
818.827	16935.5
819.079	17096.5
819.332	17467.5
819.585	17669.5
819.838	17835.5
820.09	17926.5
820.343	17942.5
820.595	18096.5
820.848	18177.5
821.1	18340.5
821.353	18220.5
821.605	18137.5
821.857	18239.5
822.11	18103.5
822.362	18028.5
822.614	18016.5
822.866	18107.5
823.118	18086.5
823.37	18126.5
823.622	18212.5
823.874	18341.5
824.126	18404.5
824.378	18236.5
824.63	18313.5
824.882	18421.5
825.134	18399.5
825.385	18340.5
825.637	18263.5
825.888	18089.5
826.14	18057.5
826.392	18021.5
826.643	17808.5
826.895	17918.5
827.146	17762.5
827.397	17787.5
827.649	17796.5
827.9	17712.5
828.151	17680.5
828.402	17747.5
828.653	17846.5
828.905	17900.5
829.156	18025.5
829.407	17843.5
829.658	17903.5
829.909	17976.5
830.159	17901.5
830.41	17745.5
830.661	17685.5
830.912	17597.5
831.162	17520.5
831.413	17444.5
831.664	17488.5
831.914	17389.5
832.165	17374.5
832.415	17408.5
832.666	17445.5
832.916	17400.5
833.167	17309.5
833.417	17389.5
833.667	17307.5
833.917	17195.5
834.168	17198.5
834.418	17131.5
834.668	17069.5
834.918	17049.5
835.168	16917.5
835.418	16788.5
835.668	16758.5
835.918	16732.5
836.167	16668.5
836.417	16573.5
836.667	16618.5
836.917	16678.5
837.166	16558.5
837.416	16690.5
837.666	16587.5
837.915	16503.5
838.165	16549.5
838.414	16405.5
838.663	16327.5
838.913	16340.5
839.162	16246.5
839.411	16327.5
839.661	16128.5
839.91	16128.5
840.159	16171.5
840.408	16247.5
840.657	16277.5
840.906	16188.5
841.155	16239.5
841.404	16127.5
841.653	16221.5
841.902	16084.5
842.15	16269.5
842.399	16255.5
842.648	16206.5
842.897	16184.5
843.145	15999.5
843.394	15887.5
843.642	15895.5
843.891	15714.5
844.139	15561.5
844.388	15420.5
844.636	15474.5
844.884	15386.5
845.133	15317.5
845.381	15429.5
845.629	15366.5
845.877	15297.5
846.125	15360.5
846.373	15313.5
846.621	15189.5
846.869	15202.5
847.117	15215.5
847.365	15041.5
847.613	14904.5
847.861	15033.5
848.108	15070.5
848.356	14890.5
848.604	14919.5
848.851	14865.5
849.099	14941.5
849.346	14933.5
849.594	14967.5
849.841	15021.5
850.089	15002.5
850.336	15077.5
850.583	15141.5
850.831	14971.5
851.078	14972.5
851.325	14884.5
851.572	14889.5
851.819	14759.5
852.066	14468.5
852.313	14254.5
852.56	14086.5
852.807	14060.5
853.054	14021.5
853.301	14004.5
853.548	14082.5
853.794	14193.5
854.041	14223.5
854.288	14171.5
854.534	14437.5
854.781	14428.5
855.028	14282.5
855.274	14298.5
855.52	14224.5
855.767	14224.5
856.013	14253.5
856.26	14530.5
856.506	14014.5
856.752	14008.5
856.998	13986.5
857.244	13987.5
857.49	14108.5
857.736	14135.5
857.982	14057.5
858.228	14097.5
858.474	13893.5
858.72	13842.5
858.966	13727.5
859.212	13479.5
859.458	13303.5
859.703	13249.5
859.949	13082.5
860.195	13116.5
860.44	13045.5
860.686	13023.5
860.931	12994.5
861.177	12848.5
861.422	12869.5
861.667	12636.5
861.913	12760.5
862.158	12681.5
862.403	12737.5
862.648	12722.5
862.893	12751.5
863.138	12664.5
863.384	12608.5
863.629	12651.5
863.873	12651.5
864.118	12596.5
864.363	12498.5
864.608	12497.5
864.853	12405.5
865.098	12331.5
865.342	12251.5
865.587	12207.5
865.832	12182.5
866.076	12176.5
866.321	12130.5
866.565	12186.5
866.81	11984.5
867.054	12070.5
867.298	11966.5
867.543	11974.5
867.787	12035.5
868.031	11940.5
868.275	11867.5
868.519	11950.5
868.764	11902.5
869.008	11901.5
869.252	11976.5
869.496	11814.5
869.739	11907.5
869.983	11928.5
870.227	11911.5
870.471	11875.5
870.715	11974.5
870.958	12037.5
871.202	11961.5
871.446	11933.5
871.689	11922.5
871.933	11932.5
872.176	11911.5
872.42	11850.5
872.663	11903.5
872.906	11939.5
873.15	11802.5
873.393	11868.5
873.636	11852.5
873.879	11709.5
874.122	11648.5
874.366	11321.5
874.609	11322.5
874.852	11221.5
875.095	11119.5
875.337	11013.5
875.58	10934.5
875.823	10977.5
876.066	10969.5
876.309	10903.5
876.551	10864.5
876.794	10711.5
877.037	10773.5
877.279	10702.5
877.522	10725.5
877.764	10778.5
878.007	10692.5
878.249	10666.5
878.491	10638.5
878.734	10660.5
878.976	10562.5
879.218	10495.5
879.46	10445.5
879.702	10350.5
879.945	10218.5
880.187	10140.5
880.429	10054.5
880.671	10027.5
880.912	9989.5
881.154	9991.5
881.396	9922.5
881.638	9932.5
881.88	9955.5
882.121	9848.5
882.363	9938.5
882.605	9907.5
882.846	9949.5
883.088	9979.5
883.329	9894.5
883.571	9956.5
883.812	10077.5
884.053	10360.5
884.295	10772.5
884.536	10913.5
884.777	10748.5
885.018	10639.5
885.259	10563.5
885.5	10392.5
885.742	10473.5
885.982	10325.5
886.223	10233.5
886.464	10132.5
886.705	9960.5
886.946	9814.5
887.187	9615.5
887.428	9558.5
887.668	9357.5
887.909	9211.5
888.15	9005.5
888.39	9057.5
888.631	8998.5
888.871	8955.5
889.111	8880.5
889.352	8779.5
889.592	8657.5
889.833	8615.5
890.073	8523.5
890.313	8581.5
890.553	8440.5
890.793	8434.5
891.033	8288.5
891.273	8250.5
891.513	8291.5
891.753	8287.5
891.993	8292.5
892.233	8304.5
892.473	8353.5
892.713	8271.5
892.952	8226.5
893.192	8326.5
893.432	8298.5
893.671	8233.5
893.911	8144.5
894.15	8131.5
894.39	7977.5
894.629	7967.5
894.869	8023.5
895.108	7960.5
895.347	7883.5
895.587	7869.5
895.826	7802.5
896.065	7764.5
896.304	7800.5
896.543	7798.5
896.782	7690.5
897.021	7739.5
897.26	7752.5
897.499	7765.5
897.738	7787.5
897.977	7687.5
898.216	7529.5
898.454	7512.5
898.693	7438.5
898.932	7505.5
899.17	7425.5
899.409	7450.5
899.647	7377.5
899.886	7377.5
900.124	7449.5
900.363	7426.5
900.601	7446.5
900.839	7472.5
901.078	7511.5
901.316	7521.5
901.554	7594.5
901.792	7609.5
902.03	7575.5
902.268	7529.5
902.506	7566.5
902.744	7421.5
902.982	7494.5
903.22	7356.5
903.458	7223.5
903.695	7123.5
903.933	6987.5
904.171	6863.5
904.409	6709.5
904.646	6733.5
904.884	6591.5
905.121	6596.5
905.359	6523.5
905.596	6419.5
905.833	6351.5
906.071	6357.5
906.308	6365.5
906.545	6254.5
906.783	6204.5
907.02	6264.5
907.257	6263.5
907.494	6257.5
907.731	6219.5
907.968	6277.5
908.205	6118.5
908.442	6050.5
908.679	6068.5
908.915	6023.5
909.152	5976.5
909.389	5886.5
909.626	5890.5
909.862	5842.5
910.099	5800.5
910.335	5837.5
910.572	5758.5
910.808	5723.5
911.045	5730.5
911.281	5705.5
911.518	5719.5
911.754	5605.5
911.99	5642.5
912.226	5558.5
912.463	5511.5
912.699	5504.5
912.935	5435.5
913.171	5421.5
913.407	5334.5
913.643	5384.5
913.879	5279.5
914.114	5243.5
914.35	5175.5
914.586	5167.5
914.822	5061.5
915.057	5118.5
915.293	4984.5
915.529	5014.5
915.764	5040.5
916	5007.5
916.235	4966.5
916.471	4980.5
916.706	4941.5
916.941	4961.5
917.177	4956.5
917.412	4939.5
917.647	4928.5
917.882	4889.5
918.117	4914.5
918.352	4932.5
918.588	4942.5
918.823	4813.5
919.057	4828.5
919.292	4654.5
919.527	4718.5
919.762	4617.5
919.997	4657.5
920.232	4554.5
920.466	4582.5
920.701	4444.5
920.935	4462.5
921.17	4438.5
921.405	4370.5
921.639	4438.5
921.873	4365.5
922.108	4361.5
922.342	4375.5
922.576	4300.5
922.811	4285.5
923.045	4367.5
923.279	4326.5
923.513	4212.5
923.747	4261.5
923.981	4263.5
924.215	4193.5
924.449	4164.5
924.683	4116.5
924.917	4149.5
925.151	4134.5
925.385	4150.5
925.618	4079.5
925.852	4060.5
926.086	4013.5
926.319	4023.5
926.553	3998.5
926.786	4019.5
927.02	4046.5
927.253	4065.5
927.486	4052.5
927.72	3954.5
927.953	4008.5
928.186	3981.5
928.42	3952.5
928.653	3871.5
928.886	3930.5
929.119	3957.5
929.352	3907.5
929.585	3875.5
929.818	3813.5
930.051	3805.5
930.284	3817.5
930.516	3730.5
930.749	3687.5
930.982	3736.5
931.215	3760.5
931.447	3683.5
931.68	3660.5
931.912	3637.5
932.145	3628.5
932.377	3674.5
932.61	3795.5
932.842	3607.5
933.074	3657.5
933.307	3613.5
933.539	3659.5
933.771	3679.5
934.003	3649.5
934.236	3716.5
934.468	3699.5
934.7	3597.5
934.932	3660.5
935.164	3574.5
935.395	3554.5
935.627	3599.5
935.859	3569.5
936.091	3501.5
936.323	3529.5
936.554	3574.5
936.786	3508.5
937.017	3453.5
937.249	3530.5
937.481	3404.5
937.712	3474.5
937.943	3519.5
938.175	3460.5
938.406	3425.5
938.637	3506.5
938.869	3372.5
939.1	3485.5
939.331	3410.5
939.562	3381.5
939.793	3403.5
940.024	3417.5
940.255	3424.5
940.486	3317.5
940.717	3330.5
940.948	3313.5
941.179	3275.5
941.409	3324.5
941.64	3250.5
941.871	3303.5
942.102	3294.5
942.332	3270.5
942.563	3277.5
942.793	3327.5
943.024	3187.5
943.254	3306.5
943.484	3299.5
943.715	3300.5
943.945	3283.5
944.175	3217.5
944.405	3209.5
944.636	3208.5
944.866	3254.5
945.096	3231.5
945.326	3157.5
945.556	3258.5
945.786	3249.5
946.016	3163.5
946.245	3143.5
946.475	3095.5
946.705	3085.5
946.935	3139.5
947.164	3111.5
947.394	3029.5
947.624	3085.5
947.853	3088.5
948.083	3070.5
948.312	3016.5
948.542	2999.5
948.771	2946.5
949	2968.5
949.23	2975.5
949.459	3001.5
949.688	3016.5
949.917	2946.5
950.146	2989.5
950.375	3045.5
950.604	2939.5
950.833	3044.5
951.062	2986.5
951.291	2943.5
951.52	2950.5
951.749	2960.5
951.978	2906.5
952.206	2891.5
952.435	2860.5
952.664	2918.5
952.892	2906.5
953.121	2880.5
953.349	2926.5
953.578	2893.5
953.806	2879.5
954.035	2806.5
954.263	2832.5
954.491	2758.5
954.719	2812.5
954.948	2785.5
955.176	2754.5
955.404	2698.5
955.632	2768.5
955.86	2736.5
956.088	2743.5
956.316	2741.5
956.544	2759.5
956.772	2700.5
956.999	2663.5
957.227	2768.5
957.455	2632.5
957.683	2646.5
957.91	2618.5
958.138	2606.5
958.365	2585.5
958.593	2613.5
958.82	2547.5
959.048	2644.5
959.275	2555.5
959.502	2577.5
959.73	2534.5
959.957	2576.5
960.184	2591.5
960.411	2521.5
960.638	2605.5
960.865	2563.5
961.092	2556.5
961.319	2453.5
961.546	2603.5
961.773	2568.5
962	2551.5
962.227	2574.5
962.454	2504.5
962.68	2509.5
962.907	2516.5
963.134	2445.5
963.36	2449.5
963.587	2530.5
963.813	2417.5
964.04	2456.5
964.266	2378.5
964.493	2498.5
964.719	2459.5
964.945	2436.5
965.171	2314.5
965.398	2403.5
965.624	2399.5
965.85	2333.5
966.076	2329.5
966.302	2343.5
966.528	2321.5
966.754	2340.5
966.98	2346.5
967.206	2317.5
967.431	2310.5
967.657	2327.5
967.883	2328.5
968.109	2301.5
968.334	2288.5
968.56	2261.5
968.785	2278.5
969.011	2223.5
969.236	2268.5
969.462	2239.5
969.687	2233.5
969.912	2265.5
970.138	2264.5
970.363	2208.5
970.588	2271.5
970.813	2198.5
971.038	2171.5
971.263	2178.5
971.488	2203.5
971.713	2230.5
971.938	2214.5
972.163	2107.5
972.388	2130.5
972.613	2126.5
972.838	2105.5
973.062	2098.5
973.287	2116.5
973.512	2052.5
973.736	2060.5
973.961	2074.5
974.185	2062.5
974.41	2112.5
974.634	1993.5
974.858	2027.5
975.083	2052.5
975.307	2052.5
975.531	1995.5
975.755	1921.5
975.98	1966.5
976.204	1894.5
976.428	1915.5
976.652	1883.5
976.876	1883.5
977.1	1925.5
977.324	1847.5
977.547	1953.5
977.771	1935.5
977.995	1906.5
978.219	1856.5
978.442	1960.5
978.666	1863.5
978.89	1904.5
979.113	1926.5
979.337	1901.5
979.56	1843.5
979.783	1923.5
980.007	1829.5
980.23	1865.5
980.453	1813.5
980.677	1859.5
980.9	1851.5
981.123	1756.5
981.346	1868.5
981.569	1815.5
981.792	1838.5
982.015	1791.5
982.238	1774.5
982.461	1804.5
982.684	1731.5
982.907	1749.5
983.129	1709.5
983.352	1799.5
983.575	1750.5
983.797	1743.5
984.02	1702.5
984.242	1702.5
984.465	1732.5
984.687	1752.5
984.91	1759.5
985.132	1735.5
985.354	1740.5
985.577	1714.5
985.799	1700.5
986.021	1644.5
986.243	1655.5
986.465	1657.5
986.687	1710.5
986.909	1750.5
987.131	1684.5
987.353	1664.5
987.575	1695.5
987.797	1655.5
988.019	1607.5
988.241	1649.5
988.462	1578.5
988.684	1671.5
988.906	1713.5
989.127	1726.5
989.349	1573.5
989.57	1600.5
989.792	1640.5
990.013	1685.5
990.234	1659.5
990.456	1672.5
990.677	1677.5
990.898	1638.5
991.119	1610.5
991.341	1649.5
991.562	1597.5
991.783	1590.5
992.004	1557.5
992.225	1517.5
992.446	1582.5
992.667	1510.5
992.887	1595.5
993.108	1486.5
993.329	1585.5
993.55	1555.5
993.77	1531.5
993.991	1506.5
994.212	1551.5
994.432	1536.5
994.653	1547.5
994.873	1511.5
995.093	1416.5
995.314	1485.5
995.534	1553.5
995.754	1528.5
995.975	1552.5
996.195	1466.5
996.415	1523.5
996.635	1498.5
996.855	1514.5
997.075	1467.5
997.295	1506.5
997.515	1492.5
997.735	1510.5
997.955	1491.5
998.174	1492.5
998.394	1436.5
998.614	1521.5
998.834	1461.5
999.053	1514.5
999.273	1511.5
999.492	1508.5
999.712	1444.5
999.931	1446.5
1000.151	1485.5
1000.37	1471.5
1000.589	1518.5
1000.809	1428.5
1001.028	1543.5
1001.247	1494.5
1001.466	1382.5
1001.685	1454.5
1001.904	1434.5
1002.123	1430.5
1002.342	1431.5
1002.561	1397.5
1002.78	1439.5
1002.999	1468.5
1003.218	1418.5
1003.436	1424.5
1003.655	1465.5
1003.874	1380.5
1004.092	1416.5
1004.311	1442.5
1004.53	1421.5
1004.748	1488.5
1004.966	1400.5
1005.185	1483.5
1005.403	1444.5
1005.622	1420.5
1005.84	1510.5
1006.058	1417.5
1006.276	1419.5
1006.494	1781.5
1006.712	1405.5
1006.931	1492.5
1007.149	1396.5
1007.367	1441.5
1007.584	1458.5
1007.802	1494.5
1008.02	1438.5
1008.238	1546.5
1008.456	1527.5
1008.673	1408.5
1008.891	1528.5
1009.109	1487.5
1009.326	1549.5
1009.544	1649.5
1009.761	1558.5
1009.979	1655.5
1010.196	1709.5
1010.413	1828.5
1010.631	1868.5
1010.848	1948.5
1011.065	1916.5
1011.282	1866.5
1011.5	1835.5
1011.717	1899.5
1011.934	1847.5
1012.151	1878.5
1012.368	1873.5
1012.585	1821.5
1012.801	1875.5
1013.018	1853.5
1013.235	1807.5
1013.452	1846.5
1013.669	1842.5
1013.885	1814.5
1014.102	1891.5
1014.318	1840.5
1014.535	1781.5
1014.751	1861.5
1014.968	1828.5
1015.184	1827.5
1015.401	1744.5
1015.617	1761.5
1015.833	1738.5
1016.049	1716.5
1016.266	1690.5
1016.482	1677.5
1016.698	1613.5
1016.914	1654.5
1017.13	1637.5
1017.346	1587.5
1017.562	1648.5
1017.778	1589.5
1017.993	1556.5
1018.209	1607.5
1018.425	1590.5
1018.641	1560.5
1018.856	1523.5
1019.072	1572.5
1019.288	1593.5
1019.503	1571.5
1019.719	1453.5
1019.934	1493.5
1020.149	1542.5
1020.365	1471.5
1020.58	1430.5
1020.795	1467.5
1021.011	1388.5
1021.226	1365.5
1021.441	1386.5
1021.656	1290.5
1021.871	1221.5
1022.086	1237.5
1022.301	1228.5
1022.516	1208.5
1022.731	1230.5
1022.946	1156.5
1023.16	1159.5
1023.375	1105.5
1023.59	1091.5
1023.804	1078.5
1024.019	1131.5
1024.234	999.5
1024.448	1050.5
1024.663	977.5
1024.877	982.5
1025.092	986.5
1025.306	994.5
1025.52	896.5
1025.734	1000.5
1025.949	908.5
1026.163	880.5
1026.377	827.5
1026.591	866.5
1026.805	799.5
1027.019	814.5
1027.233	758.5
1027.447	726.5
1027.661	814.5
1027.875	765.5
1028.088	765.5
1028.302	694.5
1028.516	695.5
1028.73	688.5
1028.943	685.5
1029.157	634.5
1029.37	587.5
1029.584	-0.5
1029.797	-0.5
1030.011	-2.5
1030.224	-1.5
