Data from QEP037381__210__11-29-33-222.txt Node

Date: Fri Apr 28 11:29:33 EDT 2023
User: dcclab
Spectrometer: QEP03738
Trigger mode: 4
Integration Time (sec): 1.000000E1
Scans to average: 1
Electric dark correction enabled: true
Nonlinearity correction enabled: false
Boxcar width: 0
XAxis mode: Wavelengths
Number of Pixels in Spectrum: 1044
>>>>>Begin Spectral Data<<<<<
784.041	10.5
784.3	-3.5
784.558	-1.5
784.817	-3.5
785.075	64059.5
785.334	12867.5
785.592	6707.5
785.851	4777.5
786.109	3663.5
786.368	2866.5
786.626	2329.5
786.884	1907.5
787.143	1628.5
787.401	1353.5
787.659	1239.5
787.917	1042.5
788.175	956.5
788.433	846.5
788.691	789.5
788.949	737.5
789.207	688.5
789.465	604.5
789.723	583.5
789.98	537.5
790.238	566.5
790.496	547.5
790.753	513.5
791.011	552.5
791.268	502.5
791.526	490.5
791.783	504.5
792.041	476.5
792.298	388.5
792.556	488.5
792.813	442.5
793.07	438.5
793.327	428.5
793.584	491.5
793.841	417.5
794.099	448.5
794.356	500.5
794.613	409.5
794.869	449.5
795.126	418.5
795.383	386.5
795.64	418.5
795.897	363.5
796.153	432.5
796.41	421.5
796.667	394.5
796.923	406.5
797.18	391.5
797.436	433.5
797.693	379.5
797.949	450.5
798.206	484.5
798.462	393.5
798.718	449.5
798.974	421.5
799.231	465.5
799.487	466.5
799.743	461.5
799.999	501.5
800.255	480.5
800.511	450.5
800.767	515.5
801.023	507.5
801.279	545.5
801.534	573.5
801.79	644.5
802.046	669.5
802.302	809.5
802.557	953.5
802.813	1229.5
803.068	1528.5
803.324	2171.5
803.579	2969.5
803.835	4121.5
804.09	5632.5
804.345	7118.5
804.601	8634.5
804.856	10037.5
805.111	11091.5
805.366	11775.5
805.621	12337.5
805.876	12697.5
806.131	12976.5
806.386	13188.5
806.641	13362.5
806.896	13609.5
807.151	13788.5
807.406	13968.5
807.661	14228.5
807.915	14417.5
808.17	14765.5
808.425	14914.5
808.679	14973.5
808.934	15272.5
809.188	15352.5
809.443	15475.5
809.697	15725.5
809.951	15784.5
810.206	15980.5
810.46	16101.5
810.714	16252.5
810.968	16372.5
811.223	16484.5
811.477	16543.5
811.731	16712.5
811.985	16738.5
812.239	16731.5
812.493	16886.5
812.747	16893.5
813	16927.5
813.254	17077.5
813.508	17107.5
813.762	17165.5
814.015	17257.5
814.269	17359.5
814.522	17489.5
814.776	17580.5
815.03	17889.5
815.283	18068.5
815.536	18381.5
815.79	18645.5
816.043	18955.5
816.296	19193.5
816.55	19335.5
816.803	19557.5
817.056	19871.5
817.309	20080.5
817.562	20332.5
817.815	20446.5
818.068	20699.5
818.321	20825.5
818.574	21213.5
818.827	21488.5
819.079	21787.5
819.332	22193.5
819.585	22416.5
819.838	22565.5
820.09	22876.5
820.343	22940.5
820.595	22994.5
820.848	23104.5
821.1	23302.5
821.353	23202.5
821.605	23180.5
821.857	23190.5
822.11	22966.5
822.362	22982.5
822.614	22875.5
822.866	23081.5
823.118	23041.5
823.37	23070.5
823.622	23246.5
823.874	23306.5
824.126	23250.5
824.378	23271.5
824.63	23379.5
824.882	23463.5
825.134	23428.5
825.385	23382.5
825.637	23218.5
825.888	23209.5
826.14	23104.5
826.392	22952.5
826.643	22817.5
826.895	22771.5
827.146	22679.5
827.397	22535.5
827.649	22646.5
827.9	22465.5
828.151	22703.5
828.402	22556.5
828.653	22755.5
828.905	22800.5
829.156	22891.5
829.407	22871.5
829.658	22896.5
829.909	23040.5
830.159	23139.5
830.41	22929.5
830.661	22677.5
830.912	22583.5
831.162	22420.5
831.413	22334.5
831.664	22466.5
831.914	22356.5
832.165	22291.5
832.415	22379.5
832.666	22314.5
832.916	22329.5
833.167	22372.5
833.417	22264.5
833.667	22198.5
833.917	22060.5
834.168	22033.5
834.418	22004.5
834.668	21749.5
834.918	21869.5
835.168	21683.5
835.418	21526.5
835.668	21481.5
835.918	21500.5
836.167	21322.5
836.417	21292.5
836.667	21247.5
836.917	21227.5
837.166	21334.5
837.416	21303.5
837.666	21274.5
837.915	21311.5
838.165	21192.5
838.414	21042.5
838.663	20992.5
838.913	21103.5
839.162	20937.5
839.411	21014.5
839.661	20875.5
839.91	20983.5
840.159	20781.5
840.408	20865.5
840.657	20898.5
840.906	20946.5
841.155	20942.5
841.404	20688.5
841.653	20914.5
841.902	20881.5
842.15	20958.5
842.399	20963.5
842.648	20920.5
842.897	20886.5
843.145	20781.5
843.394	20557.5
843.642	20350.5
843.891	20302.5
844.139	20156.5
844.388	20027.5
844.636	19925.5
844.884	19874.5
845.133	19884.5
845.381	19843.5
845.629	19859.5
845.877	19882.5
846.125	19768.5
846.373	19798.5
846.621	19646.5
846.869	19693.5
847.117	19490.5
847.365	19396.5
847.613	19354.5
847.861	19291.5
848.108	19326.5
848.356	19280.5
848.604	19195.5
848.851	19307.5
849.099	19242.5
849.346	19350.5
849.594	19356.5
849.841	19500.5
850.089	19415.5
850.336	19548.5
850.583	19529.5
850.831	19388.5
851.078	19182.5
851.325	19198.5
851.572	19211.5
851.819	19127.5
852.066	18575.5
852.313	18332.5
852.56	18100.5
852.807	18154.5
853.054	18111.5
853.301	18109.5
853.548	18031.5
853.794	18214.5
854.041	18239.5
854.288	18331.5
854.534	18500.5
854.781	18466.5
855.028	18307.5
855.274	18473.5
855.52	18466.5
855.767	18405.5
856.013	18548.5
856.26	18718.5
856.506	18087.5
856.752	18131.5
856.998	18181.5
857.244	18031.5
857.49	18203.5
857.736	18196.5
857.982	18224.5
858.228	18095.5
858.474	17949.5
858.72	17757.5
858.966	17636.5
859.212	17338.5
859.458	17190.5
859.703	16962.5
859.949	16821.5
860.195	16768.5
860.44	16673.5
860.686	16640.5
860.931	16790.5
861.177	16445.5
861.422	16381.5
861.667	16210.5
861.913	16117.5
862.158	16177.5
862.403	16284.5
862.648	16361.5
862.893	16391.5
863.138	16261.5
863.384	16247.5
863.629	16184.5
863.873	16169.5
864.118	16102.5
864.363	16111.5
864.608	15939.5
864.853	15801.5
865.098	15713.5
865.342	15637.5
865.587	15516.5
865.832	15583.5
866.076	15565.5
866.321	15479.5
866.565	15511.5
866.81	15377.5
867.054	15467.5
867.298	15329.5
867.543	15254.5
867.787	15341.5
868.031	15215.5
868.275	15231.5
868.519	15262.5
868.764	15218.5
869.008	15188.5
869.252	15286.5
869.496	15212.5
869.739	15138.5
869.983	15237.5
870.227	15278.5
870.471	15234.5
870.715	15234.5
870.958	15346.5
871.202	15304.5
871.446	15368.5
871.689	15409.5
871.933	15288.5
872.176	15353.5
872.42	15214.5
872.663	15245.5
872.906	15293.5
873.15	15258.5
873.393	15293.5
873.636	15338.5
873.879	15088.5
874.122	14876.5
874.366	14614.5
874.609	14342.5
874.852	14353.5
875.095	14125.5
875.337	14119.5
875.58	14003.5
875.823	13972.5
876.066	13970.5
876.309	13963.5
876.551	13778.5
876.794	13742.5
877.037	13711.5
877.279	13574.5
877.522	13653.5
877.764	13646.5
878.007	13485.5
878.249	13531.5
878.491	13565.5
878.734	13420.5
878.976	13433.5
879.218	13309.5
879.46	13238.5
879.702	13170.5
879.945	12947.5
880.187	12845.5
880.429	12687.5
880.671	12713.5
880.912	12702.5
881.154	12623.5
881.396	12451.5
881.638	12598.5
881.88	12527.5
882.121	12527.5
882.363	12488.5
882.605	12548.5
882.846	12505.5
883.088	12636.5
883.329	12585.5
883.571	12781.5
883.812	12998.5
884.053	13451.5
884.295	13822.5
884.536	14032.5
884.777	13930.5
885.018	13658.5
885.259	13637.5
885.5	13467.5
885.742	13451.5
885.982	13337.5
886.223	13178.5
886.464	12998.5
886.705	12744.5
886.946	12589.5
887.187	12306.5
887.428	12123.5
887.668	11848.5
887.909	11583.5
888.15	11488.5
888.39	11378.5
888.631	11279.5
888.871	11191.5
889.111	11116.5
889.352	11000.5
889.592	10919.5
889.833	10747.5
890.073	10748.5
890.313	10650.5
890.553	10613.5
890.793	10510.5
891.033	10461.5
891.273	10423.5
891.513	10389.5
891.753	10346.5
891.993	10446.5
892.233	10385.5
892.473	10441.5
892.713	10397.5
892.952	10308.5
893.192	10350.5
893.432	10301.5
893.671	10353.5
893.911	10238.5
894.15	10209.5
894.39	10025.5
894.629	10077.5
894.869	9984.5
895.108	9954.5
895.347	9723.5
895.587	9853.5
895.826	9761.5
896.065	9735.5
896.304	9746.5
896.543	9771.5
896.782	9626.5
897.021	9658.5
897.26	9667.5
897.499	9755.5
897.738	9721.5
897.977	9537.5
898.216	9537.5
898.454	9455.5
898.693	9406.5
898.932	9367.5
899.17	9315.5
899.409	9322.5
899.647	9324.5
899.886	9259.5
900.124	9282.5
900.363	9241.5
900.601	9348.5
900.839	9362.5
901.078	9412.5
901.316	9481.5
901.554	9502.5
901.792	9665.5
902.03	9597.5
902.268	9589.5
902.506	9631.5
902.744	9479.5
902.982	9383.5
903.22	9182.5
903.458	9031.5
903.695	8947.5
903.933	8752.5
904.171	8573.5
904.409	8425.5
904.646	8311.5
904.884	8183.5
905.121	8127.5
905.359	8032.5
905.596	7972.5
905.833	7847.5
906.071	7761.5
906.308	7871.5
906.545	7810.5
906.783	7794.5
907.02	7760.5
907.257	7692.5
907.494	7761.5
907.731	7739.5
907.968	7731.5
908.205	7651.5
908.442	7556.5
908.679	7556.5
908.915	7475.5
909.152	7431.5
909.389	7336.5
909.626	7321.5
909.862	7219.5
910.099	7222.5
910.335	7209.5
910.572	7153.5
910.808	7095.5
911.045	7029.5
911.281	7027.5
911.518	7053.5
911.754	6935.5
911.99	6988.5
912.226	6844.5
912.463	6781.5
912.699	6838.5
912.935	6749.5
913.171	6695.5
913.407	6564.5
913.643	6664.5
913.879	6549.5
914.114	6479.5
914.35	6378.5
914.586	6359.5
914.822	6262.5
915.057	6331.5
915.293	6124.5
915.529	6241.5
915.764	6215.5
916	6184.5
916.235	6112.5
916.471	6182.5
916.706	6092.5
916.941	6092.5
917.177	6128.5
917.412	6069.5
917.647	6122.5
917.882	6075.5
918.117	6099.5
918.352	6000.5
918.588	6028.5
918.823	5920.5
919.057	5884.5
919.292	5814.5
919.527	5791.5
919.762	5729.5
919.997	5701.5
920.232	5580.5
920.466	5560.5
920.701	5468.5
920.935	5487.5
921.17	5467.5
921.405	5402.5
921.639	5366.5
921.873	5379.5
922.108	5368.5
922.342	5335.5
922.576	5286.5
922.811	5285.5
923.045	5326.5
923.279	5325.5
923.513	5203.5
923.747	5250.5
923.981	5186.5
924.215	5098.5
924.449	5099.5
924.683	5005.5
924.917	5015.5
925.151	5044.5
925.385	5025.5
925.618	4988.5
925.852	4984.5
926.086	4907.5
926.319	5011.5
926.553	4943.5
926.786	4943.5
927.02	4923.5
927.253	5047.5
927.486	4988.5
927.72	4837.5
927.953	4963.5
928.186	4875.5
928.42	4939.5
928.653	4768.5
928.886	4778.5
929.119	4802.5
929.352	4773.5
929.585	4757.5
929.818	4697.5
930.051	4697.5
930.284	4636.5
930.516	4546.5
930.749	4567.5
930.982	4596.5
931.215	4481.5
931.447	4454.5
931.68	4477.5
931.912	4400.5
932.145	4463.5
932.377	4465.5
932.61	4598.5
932.842	4384.5
933.074	4423.5
933.307	4413.5
933.539	4496.5
933.771	4456.5
934.003	4420.5
934.236	4501.5
934.468	4478.5
934.7	4365.5
934.932	4490.5
935.164	4421.5
935.395	4333.5
935.627	4292.5
935.859	4346.5
936.091	4287.5
936.323	4314.5
936.554	4307.5
936.786	4288.5
937.017	4199.5
937.249	4269.5
937.481	4180.5
937.712	4205.5
937.943	4212.5
938.175	4224.5
938.406	4231.5
938.637	4197.5
938.869	4154.5
939.1	4207.5
939.331	4176.5
939.562	4181.5
939.793	4144.5
940.024	4117.5
940.255	4160.5
940.486	4044.5
940.717	4073.5
940.948	4056.5
941.179	3967.5
941.409	4019.5
941.64	3999.5
941.871	4011.5
942.102	3995.5
942.332	4015.5
942.563	4011.5
942.793	4006.5
943.024	3990.5
943.254	3974.5
943.484	3990.5
943.715	4007.5
943.945	3997.5
944.175	3960.5
944.405	3892.5
944.636	3917.5
944.866	3966.5
945.096	3946.5
945.326	3873.5
945.556	3894.5
945.786	3911.5
946.016	3870.5
946.245	3784.5
946.475	3794.5
946.705	3827.5
946.935	3785.5
947.164	3773.5
947.394	3753.5
947.624	3717.5
947.853	3756.5
948.083	3703.5
948.312	3655.5
948.542	3623.5
948.771	3608.5
949	3553.5
949.23	3600.5
949.459	3646.5
949.688	3664.5
949.917	3610.5
950.146	3654.5
950.375	3687.5
950.604	3585.5
950.833	3645.5
951.062	3649.5
951.291	3601.5
951.52	3562.5
951.749	3568.5
951.978	3518.5
952.206	3528.5
952.435	3514.5
952.664	3544.5
952.892	3539.5
953.121	3499.5
953.349	3537.5
953.578	3512.5
953.806	3469.5
954.035	3405.5
954.263	3450.5
954.491	3380.5
954.719	3427.5
954.948	3389.5
955.176	3323.5
955.404	3270.5
955.632	3352.5
955.86	3377.5
956.088	3289.5
956.316	3358.5
956.544	3299.5
956.772	3281.5
956.999	3231.5
957.227	3306.5
957.455	3202.5
957.683	3247.5
957.91	3182.5
958.138	3150.5
958.365	3142.5
958.593	3137.5
958.82	3096.5
959.048	3150.5
959.275	3141.5
959.502	3104.5
959.73	3073.5
959.957	3130.5
960.184	3115.5
960.411	3061.5
960.638	3181.5
960.865	3047.5
961.092	3111.5
961.319	3011.5
961.546	3102.5
961.773	3095.5
962	3072.5
962.227	3097.5
962.454	3048.5
962.68	2991.5
962.907	3024.5
963.134	2958.5
963.36	2963.5
963.587	2994.5
963.813	2945.5
964.04	2951.5
964.266	2881.5
964.493	2976.5
964.719	2948.5
964.945	2914.5
965.171	2835.5
965.398	2845.5
965.624	2869.5
965.85	2802.5
966.076	2786.5
966.302	2870.5
966.528	2802.5
966.754	2836.5
966.98	2808.5
967.206	2823.5
967.431	2703.5
967.657	2808.5
967.883	2767.5
968.109	2761.5
968.334	2692.5
968.56	2708.5
968.785	2713.5
969.011	2636.5
969.236	2714.5
969.462	2658.5
969.687	2679.5
969.912	2724.5
970.138	2703.5
970.363	2634.5
970.588	2670.5
970.813	2633.5
971.038	2612.5
971.263	2670.5
971.488	2619.5
971.713	2617.5
971.938	2605.5
972.163	2545.5
972.388	2569.5
972.613	2509.5
972.838	2533.5
973.062	2541.5
973.287	2506.5
973.512	2461.5
973.736	2509.5
973.961	2455.5
974.185	2458.5
974.41	2481.5
974.634	2408.5
974.858	2386.5
975.083	2443.5
975.307	2481.5
975.531	2408.5
975.755	2312.5
975.98	2348.5
976.204	2276.5
976.428	2264.5
976.652	2293.5
976.876	2266.5
977.1	2304.5
977.324	2272.5
977.547	2317.5
977.771	2286.5
977.995	2302.5
978.219	2216.5
978.442	2366.5
978.666	2244.5
978.89	2246.5
979.113	2246.5
979.337	2229.5
979.56	2210.5
979.783	2308.5
980.007	2167.5
980.23	2204.5
980.453	2197.5
980.677	2200.5
980.9	2174.5
981.123	2093.5
981.346	2211.5
981.569	2185.5
981.792	2160.5
982.015	2125.5
982.238	2099.5
982.461	2111.5
982.684	2076.5
982.907	2056.5
983.129	2079.5
983.352	2096.5
983.575	2074.5
983.797	2075.5
984.02	2048.5
984.242	2021.5
984.465	2013.5
984.687	2052.5
984.91	2072.5
985.132	2039.5
985.354	2080.5
985.577	2028.5
985.799	2026.5
986.021	1937.5
986.243	1945.5
986.465	1967.5
986.687	2007.5
986.909	2061.5
987.131	1965.5
987.353	1966.5
987.575	1989.5
987.797	1958.5
988.019	1908.5
988.241	1968.5
988.462	1905.5
988.684	1966.5
988.906	1989.5
989.127	2017.5
989.349	1854.5
989.57	1951.5
989.792	1942.5
990.013	1955.5
990.234	1964.5
990.456	1992.5
990.677	1946.5
990.898	1898.5
991.119	1902.5
991.341	1911.5
991.562	1848.5
991.783	1903.5
992.004	1799.5
992.225	1796.5
992.446	1867.5
992.667	1757.5
992.887	1853.5
993.108	1714.5
993.329	1861.5
993.55	1792.5
993.77	1742.5
993.991	1742.5
994.212	1804.5
994.432	1793.5
994.653	1788.5
994.873	1768.5
995.093	1667.5
995.314	1723.5
995.534	1789.5
995.754	1791.5
995.975	1796.5
996.195	1702.5
996.415	1786.5
996.635	1750.5
996.855	1756.5
997.075	1755.5
997.295	1741.5
997.515	1720.5
997.735	1764.5
997.955	1729.5
998.174	1737.5
998.394	1695.5
998.614	1769.5
998.834	1689.5
999.053	1759.5
999.273	1723.5
999.492	1782.5
999.712	1715.5
999.931	1639.5
1000.151	1704.5
1000.37	1651.5
1000.589	1736.5
1000.809	1654.5
1001.028	1766.5
1001.247	1698.5
1001.466	1580.5
1001.685	1745.5
1001.904	1678.5
1002.123	1632.5
1002.342	1645.5
1002.561	1569.5
1002.78	1633.5
1002.999	1656.5
1003.218	1629.5
1003.436	1610.5
1003.655	1649.5
1003.874	1565.5
1004.092	1616.5
1004.311	1669.5
1004.53	1584.5
1004.748	1658.5
1004.966	1595.5
1005.185	1634.5
1005.403	1636.5
1005.622	1634.5
1005.84	1703.5
1006.058	1623.5
1006.276	1637.5
1006.494	2016.5
1006.712	1634.5
1006.931	1690.5
1007.149	1595.5
1007.367	1624.5
1007.584	1646.5
1007.802	1695.5
1008.02	1648.5
1008.238	1743.5
1008.456	1774.5
1008.673	1639.5
1008.891	1776.5
1009.109	1751.5
1009.326	1833.5
1009.544	1958.5
1009.761	1851.5
1009.979	1984.5
1010.196	2042.5
1010.413	2183.5
1010.631	2309.5
1010.848	2324.5
1011.065	2344.5
1011.282	2302.5
1011.5	2225.5
1011.717	2370.5
1011.934	2272.5
1012.151	2276.5
1012.368	2281.5
1012.585	2214.5
1012.801	2267.5
1013.018	2231.5
1013.235	2224.5
1013.452	2240.5
1013.669	2281.5
1013.885	2293.5
1014.102	2318.5
1014.318	2328.5
1014.535	2257.5
1014.751	2281.5
1014.968	2287.5
1015.184	2276.5
1015.401	2147.5
1015.617	2165.5
1015.833	2107.5
1016.049	2105.5
1016.266	2070.5
1016.482	2056.5
1016.698	1973.5
1016.914	2057.5
1017.13	1967.5
1017.346	1967.5
1017.562	2032.5
1017.778	1932.5
1017.993	1910.5
1018.209	1965.5
1018.425	1918.5
1018.641	1928.5
1018.856	1865.5
1019.072	1914.5
1019.288	1957.5
1019.503	1905.5
1019.719	1804.5
1019.934	1831.5
1020.149	1889.5
1020.365	1814.5
1020.58	1730.5
1020.795	1783.5
1021.011	1669.5
1021.226	1666.5
1021.441	1657.5
1021.656	1580.5
1021.871	1489.5
1022.086	1474.5
1022.301	1454.5
1022.516	1437.5
1022.731	1473.5
1022.946	1389.5
1023.16	1347.5
1023.375	1289.5
1023.59	1298.5
1023.804	1252.5
1024.019	1353.5
1024.234	1199.5
1024.448	1219.5
1024.663	1150.5
1024.877	1154.5
1025.092	1140.5
1025.306	1157.5
1025.52	1063.5
1025.734	1123.5
1025.949	1050.5
1026.163	1014.5
1026.377	954.5
1026.591	998.5
1026.805	934.5
1027.019	923.5
1027.233	893.5
1027.447	834.5
1027.661	934.5
1027.875	896.5
1028.088	874.5
1028.302	810.5
1028.516	794.5
1028.73	776.5
1028.943	772.5
1029.157	722.5
1029.37	663.5
1029.584	-1.5
1029.797	-0.5
1030.011	-0.5
1030.224	0.5
