Data from QEP037381__211__11-29-43-222.txt Node

Date: Fri Apr 28 11:29:43 EDT 2023
User: dcclab
Spectrometer: QEP03738
Trigger mode: 4
Integration Time (sec): 1.000000E1
Scans to average: 1
Electric dark correction enabled: true
Nonlinearity correction enabled: false
Boxcar width: 0
XAxis mode: Wavelengths
Number of Pixels in Spectrum: 1044
>>>>>Begin Spectral Data<<<<<
784.041	14.88
784.3	1.88
784.558	-4.12
784.817	-3.12
785.075	62382.88
785.334	12666.88
785.592	6697.88
785.851	4706.88
786.109	3611.88
786.368	2829.88
786.626	2293.88
786.884	1951.88
787.143	1626.88
787.401	1345.88
787.659	1229.88
787.917	1070.88
788.175	976.88
788.433	873.88
788.691	786.88
788.949	720.88
789.207	697.88
789.465	603.88
789.723	589.88
789.98	540.88
790.238	568.88
790.496	539.88
790.753	522.88
791.011	551.88
791.268	507.88
791.526	485.88
791.783	505.88
792.041	496.88
792.298	423.88
792.556	468.88
792.813	452.88
793.07	439.88
793.327	417.88
793.584	505.88
793.841	426.88
794.099	444.88
794.356	479.88
794.613	401.88
794.869	440.88
795.126	407.88
795.383	394.88
795.64	412.88
795.897	350.88
796.153	432.88
796.41	413.88
796.667	407.88
796.923	402.88
797.18	406.88
797.436	439.88
797.693	395.88
797.949	439.88
798.206	489.88
798.462	394.88
798.718	464.88
798.974	429.88
799.231	458.88
799.487	467.88
799.743	465.88
799.999	490.88
800.255	484.88
800.511	476.88
800.767	519.88
801.023	527.88
801.279	547.88
801.534	590.88
801.79	656.88
802.046	684.88
802.302	844.88
802.557	1002.88
802.813	1237.88
803.068	1595.88
803.324	2266.88
803.579	3145.88
803.835	4425.88
804.09	5960.88
804.345	7672.88
804.601	9450.88
804.856	11037.88
805.111	12231.88
805.366	13127.88
805.621	13708.88
805.876	14141.88
806.131	14439.88
806.386	14714.88
806.641	14968.88
806.896	15233.88
807.151	15513.88
807.406	15598.88
807.661	15901.88
807.915	16148.88
808.17	16434.88
808.425	16576.88
808.679	16683.88
808.934	16939.88
809.188	17024.88
809.443	17340.88
809.697	17491.88
809.951	17643.88
810.206	17737.88
810.46	17984.88
810.714	18082.88
810.968	18260.88
811.223	18264.88
811.477	18496.88
811.731	18557.88
811.985	18586.88
812.239	18757.88
812.493	18826.88
812.747	18834.88
813	18820.88
813.254	18990.88
813.508	19080.88
813.762	19120.88
814.015	19150.88
814.269	19352.88
814.522	19447.88
814.776	19668.88
815.03	19884.88
815.283	20104.88
815.536	20424.88
815.79	20715.88
816.043	21025.88
816.296	21287.88
816.55	21512.88
816.803	21810.88
817.056	22159.88
817.309	22239.88
817.562	22572.88
817.815	22700.88
818.068	22865.88
818.321	23175.88
818.574	23465.88
818.827	23837.88
819.079	24119.88
819.332	24589.88
819.585	24844.88
819.838	25111.88
820.09	25186.88
820.343	25449.88
820.595	25538.88
820.848	25631.88
821.1	25748.88
821.353	25738.88
821.605	25726.88
821.857	25660.88
822.11	25402.88
822.362	25363.88
822.614	25351.88
822.866	25353.88
823.118	25405.88
823.37	25561.88
823.622	25532.88
823.874	25725.88
824.126	25741.88
824.378	25758.88
824.63	25747.88
824.882	25753.88
825.134	25727.88
825.385	25725.88
825.637	25574.88
825.888	25527.88
826.14	25347.88
826.392	25342.88
826.643	25192.88
826.895	25158.88
827.146	25049.88
827.397	25008.88
827.649	24975.88
827.9	24901.88
828.151	24903.88
828.402	24991.88
828.653	24991.88
828.905	25061.88
829.156	25225.88
829.407	25106.88
829.658	25323.88
829.909	25299.88
830.159	25317.88
830.41	25119.88
830.661	24872.88
830.912	24759.88
831.162	24602.88
831.413	24659.88
831.664	24718.88
831.914	24542.88
832.165	24419.88
832.415	24527.88
832.666	24468.88
832.916	24619.88
833.167	24434.88
833.417	24404.88
833.667	24194.88
833.917	24069.88
834.168	24170.88
834.418	24060.88
834.668	23888.88
834.918	23732.88
835.168	23786.88
835.418	23526.88
835.668	23565.88
835.918	23485.88
836.167	23371.88
836.417	23285.88
836.667	23335.88
836.917	23289.88
837.166	23163.88
837.416	23212.88
837.666	23169.88
837.915	23140.88
838.165	23171.88
838.414	22941.88
838.663	23006.88
838.913	22983.88
839.162	22963.88
839.411	22890.88
839.661	22750.88
839.91	22735.88
840.159	22783.88
840.408	22785.88
840.657	22838.88
840.906	22752.88
841.155	22767.88
841.404	22651.88
841.653	22781.88
841.902	22619.88
842.15	22808.88
842.399	22774.88
842.648	22708.88
842.897	22713.88
843.145	22503.88
843.394	22350.88
843.642	22333.88
843.891	22037.88
844.139	21922.88
844.388	21794.88
844.636	21738.88
844.884	21744.88
845.133	21713.88
845.381	21708.88
845.629	21591.88
845.877	21548.88
846.125	21592.88
846.373	21414.88
846.621	21294.88
846.869	21348.88
847.117	21119.88
847.365	21122.88
847.613	21065.88
847.861	21010.88
848.108	21059.88
848.356	20884.88
848.604	20874.88
848.851	20887.88
849.099	20881.88
849.346	20929.88
849.594	20960.88
849.841	21005.88
850.089	21060.88
850.336	21132.88
850.583	21032.88
850.831	20997.88
851.078	20855.88
851.325	20851.88
851.572	20944.88
851.819	20649.88
852.066	20031.88
852.313	19816.88
852.56	19702.88
852.807	19565.88
853.054	19561.88
853.301	19621.88
853.548	19616.88
853.794	19756.88
854.041	19843.88
854.288	19799.88
854.534	19963.88
854.781	19976.88
855.028	19929.88
855.274	19810.88
855.52	19896.88
855.767	19929.88
856.013	19857.88
856.26	20233.88
856.506	19571.88
856.752	19611.88
856.998	19493.88
857.244	19576.88
857.49	19582.88
857.736	19660.88
857.982	19689.88
858.228	19520.88
858.474	19291.88
858.72	19245.88
858.966	19034.88
859.212	18750.88
859.458	18618.88
859.703	18396.88
859.949	18166.88
860.195	18029.88
860.44	18054.88
860.686	18081.88
860.931	18054.88
861.177	17762.88
861.422	17744.88
861.667	17477.88
861.913	17506.88
862.158	17630.88
862.403	17674.88
862.648	17663.88
862.893	17753.88
863.138	17717.88
863.384	17624.88
863.629	17564.88
863.873	17483.88
864.118	17548.88
864.363	17262.88
864.608	17205.88
864.853	17096.88
865.098	17045.88
865.342	16875.88
865.587	16792.88
865.832	16880.88
866.076	16788.88
866.321	16714.88
866.565	16611.88
866.81	16624.88
867.054	16629.88
867.298	16546.88
867.543	16485.88
867.787	16591.88
868.031	16468.88
868.275	16506.88
868.519	16430.88
868.764	16518.88
869.008	16316.88
869.252	16518.88
869.496	16393.88
869.739	16267.88
869.983	16248.88
870.227	16353.88
870.471	16346.88
870.715	16510.88
870.958	16501.88
871.202	16453.88
871.446	16574.88
871.689	16541.88
871.933	16540.88
872.176	16458.88
872.42	16413.88
872.663	16298.88
872.906	16353.88
873.15	16404.88
873.393	16398.88
873.636	16376.88
873.879	16205.88
874.122	16036.88
874.366	15701.88
874.609	15485.88
874.852	15349.88
875.095	15300.88
875.337	15236.88
875.58	15070.88
875.823	15102.88
876.066	15139.88
876.309	15042.88
876.551	14888.88
876.794	14795.88
877.037	14789.88
877.279	14644.88
877.522	14715.88
877.764	14755.88
878.007	14687.88
878.249	14617.88
878.491	14448.88
878.734	14542.88
878.976	14508.88
879.218	14326.88
879.46	14287.88
879.702	14158.88
879.945	14052.88
880.187	13860.88
880.429	13755.88
880.671	13703.88
880.912	13681.88
881.154	13572.88
881.396	13460.88
881.638	13491.88
881.88	13589.88
882.121	13482.88
882.363	13489.88
882.605	13637.88
882.846	13574.88
883.088	13492.88
883.329	13571.88
883.571	13770.88
883.812	14003.88
884.053	14373.88
884.295	14834.88
884.536	14917.88
884.777	14719.88
885.018	14578.88
885.259	14524.88
885.5	14314.88
885.742	14366.88
885.982	14241.88
886.223	14053.88
886.464	13920.88
886.705	13708.88
886.946	13509.88
887.187	13176.88
887.428	13055.88
887.668	12749.88
887.909	12579.88
888.15	12337.88
888.39	12375.88
888.631	12210.88
888.871	12010.88
889.111	12042.88
889.352	11940.88
889.592	11725.88
889.833	11691.88
890.073	11572.88
890.313	11501.88
890.553	11347.88
890.793	11351.88
891.033	11281.88
891.273	11223.88
891.513	11156.88
891.753	11180.88
891.993	11144.88
892.233	11189.88
892.473	11199.88
892.713	11170.88
892.952	11119.88
893.192	11178.88
893.432	11141.88
893.671	11159.88
893.911	11050.88
894.15	10967.88
894.39	10890.88
894.629	10780.88
894.869	10773.88
895.108	10658.88
895.347	10554.88
895.587	10602.88
895.826	10535.88
896.065	10522.88
896.304	10518.88
896.543	10531.88
896.782	10392.88
897.021	10309.88
897.26	10372.88
897.499	10408.88
897.738	10409.88
897.977	10210.88
898.216	10200.88
898.454	10164.88
898.693	10056.88
898.932	10071.88
899.17	9960.88
899.409	9964.88
899.647	9875.88
899.886	9975.88
900.124	9990.88
900.363	9964.88
900.601	10003.88
900.839	9974.88
901.078	10082.88
901.316	10158.88
901.554	10195.88
901.792	10331.88
902.03	10178.88
902.268	10265.88
902.506	10205.88
902.744	10133.88
902.982	10022.88
903.22	9775.88
903.458	9639.88
903.695	9469.88
903.933	9337.88
904.171	9121.88
904.409	9005.88
904.646	8995.88
904.884	8773.88
905.121	8751.88
905.359	8625.88
905.596	8560.88
905.833	8454.88
906.071	8387.88
906.308	8418.88
906.545	8448.88
906.783	8265.88
907.02	8342.88
907.257	8277.88
907.494	8231.88
907.731	8245.88
907.968	8264.88
908.205	8181.88
908.442	8148.88
908.679	8089.88
908.915	8009.88
909.152	7964.88
909.389	7783.88
909.626	7777.88
909.862	7716.88
910.099	7700.88
910.335	7694.88
910.572	7575.88
910.808	7594.88
911.045	7515.88
911.281	7527.88
911.518	7586.88
911.754	7476.88
911.99	7402.88
912.226	7408.88
912.463	7336.88
912.699	7280.88
912.935	7249.88
913.171	7131.88
913.407	7062.88
913.643	7102.88
913.879	6980.88
914.114	6932.88
914.35	6829.88
914.586	6776.88
914.822	6802.88
915.057	6732.88
915.293	6539.88
915.529	6594.88
915.764	6631.88
916	6604.88
916.235	6601.88
916.471	6574.88
916.706	6478.88
916.941	6537.88
917.177	6512.88
917.412	6508.88
917.647	6484.88
917.882	6459.88
918.117	6487.88
918.352	6402.88
918.588	6456.88
918.823	6357.88
919.057	6303.88
919.292	6151.88
919.527	6200.88
919.762	6098.88
919.997	6026.88
920.232	5977.88
920.466	5942.88
920.701	5817.88
920.935	5881.88
921.17	5733.88
921.405	5767.88
921.639	5784.88
921.873	5722.88
922.108	5716.88
922.342	5725.88
922.576	5651.88
922.811	5575.88
923.045	5678.88
923.279	5672.88
923.513	5462.88
923.747	5595.88
923.981	5481.88
924.215	5386.88
924.449	5423.88
924.683	5378.88
924.917	5361.88
925.151	5314.88
925.385	5323.88
925.618	5310.88
925.852	5361.88
926.086	5177.88
926.319	5233.88
926.553	5298.88
926.786	5241.88
927.02	5233.88
927.253	5314.88
927.486	5275.88
927.72	5174.88
927.953	5217.88
928.186	5152.88
928.42	5198.88
928.653	5095.88
928.886	5053.88
929.119	5121.88
929.352	5057.88
929.585	5035.88
929.818	4926.88
930.051	4980.88
930.284	4945.88
930.516	4822.88
930.749	4774.88
930.982	4790.88
931.215	4793.88
931.447	4725.88
931.68	4769.88
931.912	4729.88
932.145	4703.88
932.377	4739.88
932.61	4866.88
932.842	4656.88
933.074	4762.88
933.307	4670.88
933.539	4780.88
933.771	4767.88
934.003	4682.88
934.236	4795.88
934.468	4783.88
934.7	4658.88
934.932	4739.88
935.164	4660.88
935.395	4587.88
935.627	4612.88
935.859	4660.88
936.091	4517.88
936.323	4616.88
936.554	4609.88
936.786	4554.88
937.017	4466.88
937.249	4496.88
937.481	4415.88
937.712	4487.88
937.943	4479.88
938.175	4471.88
938.406	4357.88
938.637	4489.88
938.869	4438.88
939.1	4459.88
939.331	4399.88
939.562	4436.88
939.793	4377.88
940.024	4368.88
940.255	4401.88
940.486	4284.88
940.717	4272.88
940.948	4280.88
941.179	4221.88
941.409	4269.88
941.64	4249.88
941.871	4252.88
942.102	4239.88
942.332	4227.88
942.563	4300.88
942.793	4198.88
943.024	4145.88
943.254	4227.88
943.484	4238.88
943.715	4267.88
943.945	4203.88
944.175	4153.88
944.405	4136.88
944.636	4161.88
944.866	4159.88
945.096	4178.88
945.326	4129.88
945.556	4143.88
945.786	4166.88
946.016	4095.88
946.245	4015.88
946.475	4068.88
946.705	4033.88
946.935	4003.88
947.164	4002.88
947.394	3954.88
947.624	3933.88
947.853	3986.88
948.083	3929.88
948.312	3889.88
948.542	3832.88
948.771	3817.88
949	3845.88
949.23	3851.88
949.459	3843.88
949.688	3930.88
949.917	3816.88
950.146	3861.88
950.375	3897.88
950.604	3800.88
950.833	3846.88
951.062	3895.88
951.291	3814.88
951.52	3746.88
951.749	3768.88
951.978	3729.88
952.206	3696.88
952.435	3695.88
952.664	3741.88
952.892	3744.88
953.121	3720.88
953.349	3744.88
953.578	3698.88
953.806	3582.88
954.035	3612.88
954.263	3629.88
954.491	3571.88
954.719	3617.88
954.948	3557.88
955.176	3524.88
955.404	3497.88
955.632	3535.88
955.86	3515.88
956.088	3485.88
956.316	3532.88
956.544	3513.88
956.772	3382.88
956.999	3404.88
957.227	3493.88
957.455	3390.88
957.683	3404.88
957.91	3321.88
958.138	3318.88
958.365	3337.88
958.593	3308.88
958.82	3264.88
959.048	3360.88
959.275	3290.88
959.502	3315.88
959.73	3232.88
959.957	3321.88
960.184	3313.88
960.411	3248.88
960.638	3277.88
960.865	3262.88
961.092	3264.88
961.319	3210.88
961.546	3298.88
961.773	3256.88
962	3228.88
962.227	3280.88
962.454	3214.88
962.68	3166.88
962.907	3209.88
963.134	3128.88
963.36	3148.88
963.587	3170.88
963.813	3096.88
964.04	3144.88
964.266	3030.88
964.493	3123.88
964.719	3088.88
964.945	3089.88
965.171	2951.88
965.398	3015.88
965.624	3056.88
965.85	2956.88
966.076	3005.88
966.302	2978.88
966.528	2931.88
966.754	2973.88
966.98	2944.88
967.206	2929.88
967.431	2852.88
967.657	2930.88
967.883	2915.88
968.109	2870.88
968.334	2859.88
968.56	2843.88
968.785	2845.88
969.011	2817.88
969.236	2845.88
969.462	2785.88
969.687	2771.88
969.912	2843.88
970.138	2861.88
970.363	2763.88
970.588	2805.88
970.813	2760.88
971.038	2743.88
971.263	2730.88
971.488	2778.88
971.713	2806.88
971.938	2730.88
972.163	2635.88
972.388	2697.88
972.613	2677.88
972.838	2625.88
973.062	2617.88
973.287	2649.88
973.512	2563.88
973.736	2592.88
973.961	2633.88
974.185	2570.88
974.41	2635.88
974.634	2506.88
974.858	2520.88
975.083	2555.88
975.307	2589.88
975.531	2479.88
975.755	2445.88
975.98	2427.88
976.204	2363.88
976.428	2397.88
976.652	2380.88
976.876	2387.88
977.1	2431.88
977.324	2334.88
977.547	2433.88
977.771	2399.88
977.995	2394.88
978.219	2313.88
978.442	2442.88
978.666	2362.88
978.89	2396.88
979.113	2357.88
979.337	2343.88
979.56	2310.88
979.783	2397.88
980.007	2303.88
980.23	2293.88
980.453	2251.88
980.677	2294.88
980.9	2274.88
981.123	2229.88
981.346	2298.88
981.569	2245.88
981.792	2302.88
982.015	2239.88
982.238	2198.88
982.461	2199.88
982.684	2186.88
982.907	2158.88
983.129	2156.88
983.352	2202.88
983.575	2165.88
983.797	2171.88
984.02	2135.88
984.242	2128.88
984.465	2115.88
984.687	2157.88
984.91	2170.88
985.132	2154.88
985.354	2122.88
985.577	2110.88
985.799	2088.88
986.021	2037.88
986.243	2048.88
986.465	2077.88
986.687	2101.88
986.909	2110.88
987.131	2079.88
987.353	2060.88
987.575	2082.88
987.797	2035.88
988.019	1929.88
988.241	2065.88
988.462	1998.88
988.684	2030.88
988.906	2058.88
989.127	2048.88
989.349	1955.88
989.57	1991.88
989.792	2028.88
990.013	2040.88
990.234	2027.88
990.456	2049.88
990.677	2049.88
990.898	1966.88
991.119	1970.88
991.341	1999.88
991.562	1934.88
991.783	1956.88
992.004	1887.88
992.225	1874.88
992.446	1942.88
992.667	1839.88
992.887	1939.88
993.108	1784.88
993.329	1961.88
993.55	1879.88
993.77	1809.88
993.991	1825.88
994.212	1868.88
994.432	1836.88
994.653	1868.88
994.873	1858.88
995.093	1725.88
995.314	1753.88
995.534	1825.88
995.754	1837.88
995.975	1912.88
996.195	1753.88
996.415	1860.88
996.635	1800.88
996.855	1811.88
997.075	1768.88
997.295	1793.88
997.515	1767.88
997.735	1850.88
997.955	1771.88
998.174	1797.88
998.394	1765.88
998.614	1838.88
998.834	1769.88
999.053	1843.88
999.273	1781.88
999.492	1829.88
999.712	1758.88
999.931	1743.88
1000.151	1748.88
1000.37	1755.88
1000.589	1813.88
1000.809	1728.88
1001.028	1823.88
1001.247	1766.88
1001.466	1631.88
1001.685	1764.88
1001.904	1727.88
1002.123	1683.88
1002.342	1679.88
1002.561	1674.88
1002.78	1670.88
1002.999	1710.88
1003.218	1675.88
1003.436	1671.88
1003.655	1740.88
1003.874	1609.88
1004.092	1649.88
1004.311	1705.88
1004.53	1657.88
1004.748	1738.88
1004.966	1645.88
1005.185	1705.88
1005.403	1711.88
1005.622	1663.88
1005.84	1742.88
1006.058	1653.88
1006.276	1655.88
1006.494	2026.88
1006.712	1680.88
1006.931	1745.88
1007.149	1637.88
1007.367	1657.88
1007.584	1708.88
1007.802	1741.88
1008.02	1685.88
1008.238	1799.88
1008.456	1808.88
1008.673	1694.88
1008.891	1811.88
1009.109	1780.88
1009.326	1844.88
1009.544	1997.88
1009.761	1894.88
1009.979	2042.88
1010.196	2115.88
1010.413	2243.88
1010.631	2304.88
1010.848	2369.88
1011.065	2375.88
1011.282	2340.88
1011.5	2255.88
1011.717	2379.88
1011.934	2310.88
1012.151	2338.88
1012.368	2321.88
1012.585	2272.88
1012.801	2304.88
1013.018	2261.88
1013.235	2236.88
1013.452	2290.88
1013.669	2295.88
1013.885	2336.88
1014.102	2352.88
1014.318	2318.88
1014.535	2268.88
1014.751	2281.88
1014.968	2266.88
1015.184	2291.88
1015.401	2184.88
1015.617	2208.88
1015.833	2122.88
1016.049	2146.88
1016.266	2052.88
1016.482	2106.88
1016.698	2001.88
1016.914	2083.88
1017.13	2003.88
1017.346	2009.88
1017.562	2047.88
1017.778	1973.88
1017.993	1925.88
1018.209	2001.88
1018.425	1968.88
1018.641	1930.88
1018.856	1908.88
1019.072	1935.88
1019.288	2003.88
1019.503	1925.88
1019.719	1862.88
1019.934	1849.88
1020.149	1930.88
1020.365	1851.88
1020.58	1752.88
1020.795	1790.88
1021.011	1698.88
1021.226	1666.88
1021.441	1691.88
1021.656	1582.88
1021.871	1534.88
1022.086	1462.88
1022.301	1481.88
1022.516	1457.88
1022.731	1507.88
1022.946	1408.88
1023.16	1377.88
1023.375	1342.88
1023.59	1325.88
1023.804	1266.88
1024.019	1356.88
1024.234	1205.88
1024.448	1232.88
1024.663	1177.88
1024.877	1157.88
1025.092	1184.88
1025.306	1172.88
1025.52	1080.88
1025.734	1158.88
1025.949	1085.88
1026.163	1055.88
1026.377	982.88
1026.591	1039.88
1026.805	954.88
1027.019	942.88
1027.233	910.88
1027.447	857.88
1027.661	966.88
1027.875	899.88
1028.088	909.88
1028.302	811.88
1028.516	812.88
1028.73	817.88
1028.943	783.88
1029.157	729.88
1029.37	678.88
1029.584	-4.12
1029.797	-2.12
1030.011	-3.12
1030.224	-0.12
