Data from QEP037381__209__11-29-23-222.txt Node

Date: Fri Apr 28 11:29:23 EDT 2023
User: dcclab
Spectrometer: QEP03738
Trigger mode: 4
Integration Time (sec): 1.000000E1
Scans to average: 1
Electric dark correction enabled: true
Nonlinearity correction enabled: false
Boxcar width: 0
XAxis mode: Wavelengths
Number of Pixels in Spectrum: 1044
>>>>>Begin Spectral Data<<<<<
784.041	13.75
784.3	-1.25
784.558	-3.25
784.817	-1.25
785.075	65196.75
785.334	13180.75
785.592	6882.75
785.851	4853.75
786.109	3753.75
786.368	2935.75
786.626	2393.75
786.884	1967.75
787.143	1665.75
787.401	1384.75
787.659	1263.75
787.917	1061.75
788.175	1003.75
788.433	846.75
788.691	772.75
788.949	743.75
789.207	699.75
789.465	614.75
789.723	582.75
789.98	531.75
790.238	579.75
790.496	546.75
790.753	502.75
791.011	567.75
791.268	504.75
791.526	484.75
791.783	506.75
792.041	477.75
792.298	410.75
792.556	466.75
792.813	465.75
793.07	429.75
793.327	424.75
793.584	493.75
793.841	424.75
794.099	444.75
794.356	485.75
794.613	403.75
794.869	439.75
795.126	395.75
795.383	381.75
795.64	412.75
795.897	363.75
796.153	417.75
796.41	414.75
796.667	388.75
796.923	395.75
797.18	400.75
797.436	434.75
797.693	397.75
797.949	437.75
798.206	461.75
798.462	385.75
798.718	450.75
798.974	417.75
799.231	461.75
799.487	448.75
799.743	463.75
799.999	471.75
800.255	480.75
800.511	450.75
800.767	497.75
801.023	494.75
801.279	508.75
801.534	559.75
801.79	594.75
802.046	627.75
802.302	761.75
802.557	883.75
802.813	1081.75
803.068	1341.75
803.324	1878.75
803.579	2647.75
803.835	3554.75
804.09	4841.75
804.345	6085.75
804.601	7434.75
804.856	8611.75
805.111	9505.75
805.366	10127.75
805.621	10557.75
805.876	10873.75
806.131	11154.75
806.386	11335.75
806.641	11429.75
806.896	11625.75
807.151	11885.75
807.406	11966.75
807.661	12190.75
807.915	12395.75
808.17	12592.75
808.425	12773.75
808.679	12850.75
808.934	13113.75
809.188	13165.75
809.443	13311.75
809.697	13440.75
809.951	13490.75
810.206	13719.75
810.46	13793.75
810.714	13825.75
810.968	13988.75
811.223	14090.75
811.477	14193.75
811.731	14363.75
811.985	14323.75
812.239	14300.75
812.493	14451.75
812.747	14503.75
813	14519.75
813.254	14588.75
813.508	14700.75
813.762	14722.75
814.015	14833.75
814.269	14929.75
814.522	14946.75
814.776	15113.75
815.03	15215.75
815.283	15509.75
815.536	15754.75
815.79	15941.75
816.043	16216.75
816.296	16458.75
816.55	16579.75
816.803	16814.75
817.056	17031.75
817.309	17196.75
817.562	17344.75
817.815	17635.75
818.068	17621.75
818.321	17902.75
818.574	18094.75
818.827	18406.75
819.079	18559.75
819.332	19005.75
819.585	19229.75
819.838	19516.75
820.09	19475.75
820.343	19600.75
820.595	19717.75
820.848	19853.75
821.1	19887.75
821.353	19858.75
821.605	19868.75
821.857	19804.75
822.11	19683.75
822.362	19678.75
822.614	19646.75
822.866	19713.75
823.118	19703.75
823.37	19783.75
823.622	19890.75
823.874	19971.75
824.126	19896.75
824.378	19856.75
824.63	19962.75
824.882	20092.75
825.134	19881.75
825.385	19941.75
825.637	19836.75
825.888	19721.75
826.14	19764.75
826.392	19594.75
826.643	19575.75
826.895	19513.75
827.146	19361.75
827.397	19345.75
827.649	19388.75
827.9	19272.75
828.151	19331.75
828.402	19327.75
828.653	19370.75
828.905	19568.75
829.156	19545.75
829.407	19519.75
829.658	19616.75
829.909	19800.75
830.159	19783.75
830.41	19614.75
830.661	19402.75
830.912	19321.75
831.162	19232.75
831.413	19161.75
831.664	19135.75
831.914	19129.75
832.165	19176.75
832.415	19025.75
832.666	19132.75
832.916	19146.75
833.167	19064.75
833.417	19086.75
833.667	18952.75
833.917	18904.75
834.168	18892.75
834.418	18834.75
834.668	18845.75
834.918	18734.75
835.168	18545.75
835.418	18480.75
835.668	18384.75
835.918	18447.75
836.167	18327.75
836.417	18263.75
836.667	18290.75
836.917	18231.75
837.166	18278.75
837.416	18372.75
837.666	18391.75
837.915	18149.75
838.165	18120.75
838.414	18078.75
838.663	17955.75
838.913	18131.75
839.162	18010.75
839.411	18155.75
839.661	17932.75
839.91	17921.75
840.159	17911.75
840.408	17978.75
840.657	17955.75
840.906	17983.75
841.155	17937.75
841.404	17794.75
841.653	17973.75
841.902	17952.75
842.15	18085.75
842.399	18038.75
842.648	17981.75
842.897	17905.75
843.145	17780.75
843.394	17692.75
843.642	17643.75
843.891	17475.75
844.139	17316.75
844.388	17207.75
844.636	17096.75
844.884	17205.75
845.133	17076.75
845.381	16946.75
845.629	17147.75
845.877	17161.75
846.125	17097.75
846.373	16930.75
846.621	16977.75
846.869	16915.75
847.117	16800.75
847.365	16742.75
847.613	16645.75
847.861	16695.75
848.108	16698.75
848.356	16654.75
848.604	16635.75
848.851	16611.75
849.099	16640.75
849.346	16596.75
849.594	16684.75
849.841	16788.75
850.089	16740.75
850.336	16756.75
850.583	16850.75
850.831	16706.75
851.078	16619.75
851.325	16628.75
851.572	16686.75
851.819	16514.75
852.066	16113.75
852.313	15808.75
852.56	15797.75
852.807	15713.75
853.054	15584.75
853.301	15662.75
853.548	15699.75
853.794	15856.75
854.041	15804.75
854.288	15853.75
854.534	16096.75
854.781	16064.75
855.028	15947.75
855.274	16072.75
855.52	15921.75
855.767	15988.75
856.013	16009.75
856.26	16306.75
856.506	15749.75
856.752	15779.75
856.998	15667.75
857.244	15658.75
857.49	15844.75
857.736	15873.75
857.982	15813.75
858.228	15637.75
858.474	15530.75
858.72	15479.75
858.966	15228.75
859.212	15086.75
859.458	14909.75
859.703	14725.75
859.949	14580.75
860.195	14653.75
860.44	14532.75
860.686	14535.75
860.931	14641.75
861.177	14367.75
861.422	14263.75
861.667	14113.75
861.913	14106.75
862.158	14193.75
862.403	14245.75
862.648	14217.75
862.893	14299.75
863.138	14263.75
863.384	14102.75
863.629	14070.75
863.873	14175.75
864.118	14001.75
864.363	13983.75
864.608	14003.75
864.853	13951.75
865.098	13741.75
865.342	13652.75
865.587	13631.75
865.832	13581.75
866.076	13539.75
866.321	13467.75
866.565	13525.75
866.81	13377.75
867.054	13371.75
867.298	13386.75
867.543	13326.75
867.787	13400.75
868.031	13408.75
868.275	13423.75
868.519	13339.75
868.764	13289.75
869.008	13321.75
869.252	13378.75
869.496	13271.75
869.739	13280.75
869.983	13293.75
870.227	13380.75
870.471	13343.75
870.715	13512.75
870.958	13467.75
871.202	13501.75
871.446	13490.75
871.689	13414.75
871.933	13430.75
872.176	13394.75
872.42	13373.75
872.663	13321.75
872.906	13485.75
873.15	13394.75
873.393	13485.75
873.636	13492.75
873.879	13288.75
874.122	13044.75
874.366	12822.75
874.609	12784.75
874.852	12597.75
875.095	12636.75
875.337	12446.75
875.58	12311.75
875.823	12363.75
876.066	12367.75
876.309	12294.75
876.551	12176.75
876.794	12095.75
877.037	12100.75
877.279	11993.75
877.522	12088.75
877.764	12028.75
878.007	11966.75
878.249	11943.75
878.491	11859.75
878.734	11942.75
878.976	11766.75
879.218	11667.75
879.46	11692.75
879.702	11587.75
879.945	11518.75
880.187	11337.75
880.429	11245.75
880.671	11219.75
880.912	11150.75
881.154	11211.75
881.396	11018.75
881.638	11063.75
881.88	11071.75
882.121	11019.75
882.363	11050.75
882.605	11131.75
882.846	11082.75
883.088	11157.75
883.329	11128.75
883.571	11276.75
883.812	11539.75
884.053	11907.75
884.295	12235.75
884.536	12438.75
884.777	12230.75
885.018	12163.75
885.259	12052.75
885.5	11900.75
885.742	11931.75
885.982	11809.75
886.223	11584.75
886.464	11502.75
886.705	11354.75
886.946	11181.75
887.187	10911.75
887.428	10722.75
887.668	10487.75
887.909	10346.75
888.15	10104.75
888.39	10106.75
888.631	10043.75
888.871	9933.75
889.111	9867.75
889.352	9787.75
889.592	9609.75
889.833	9531.75
890.073	9536.75
890.313	9486.75
890.553	9420.75
890.793	9337.75
891.033	9280.75
891.273	9195.75
891.513	9207.75
891.753	9243.75
891.993	9207.75
892.233	9235.75
892.473	9276.75
892.713	9242.75
892.952	9134.75
893.192	9240.75
893.432	9188.75
893.671	9147.75
893.911	9091.75
894.15	9079.75
894.39	8953.75
894.629	8857.75
894.869	8945.75
895.108	8758.75
895.347	8701.75
895.587	8745.75
895.826	8757.75
896.065	8628.75
896.304	8667.75
896.543	8703.75
896.782	8645.75
897.021	8584.75
897.26	8585.75
897.499	8670.75
897.738	8681.75
897.977	8500.75
898.216	8476.75
898.454	8445.75
898.693	8351.75
898.932	8368.75
899.17	8375.75
899.409	8299.75
899.647	8275.75
899.886	8323.75
900.124	8303.75
900.363	8323.75
900.601	8369.75
900.839	8336.75
901.078	8446.75
901.316	8451.75
901.554	8616.75
901.792	8644.75
902.03	8597.75
902.268	8553.75
902.506	8559.75
902.744	8460.75
902.982	8370.75
903.22	8207.75
903.458	8104.75
903.695	7980.75
903.933	7850.75
904.171	7667.75
904.409	7548.75
904.646	7462.75
904.884	7346.75
905.121	7288.75
905.359	7205.75
905.596	7166.75
905.833	7060.75
906.071	7045.75
906.308	6996.75
906.545	7026.75
906.783	6942.75
907.02	6982.75
907.257	6887.75
907.494	6995.75
907.731	6916.75
907.968	6909.75
908.205	6812.75
908.442	6817.75
908.679	6770.75
908.915	6718.75
909.152	6679.75
909.389	6563.75
909.626	6475.75
909.862	6406.75
910.099	6435.75
910.335	6510.75
910.572	6353.75
910.808	6420.75
911.045	6330.75
911.281	6297.75
911.518	6352.75
911.754	6212.75
911.99	6238.75
912.226	6152.75
912.463	6084.75
912.699	6121.75
912.935	6026.75
913.171	6045.75
913.407	5880.75
913.643	5957.75
913.879	5877.75
914.114	5789.75
914.35	5753.75
914.586	5706.75
914.822	5648.75
915.057	5733.75
915.293	5539.75
915.529	5507.75
915.764	5548.75
916	5558.75
916.235	5517.75
916.471	5500.75
916.706	5482.75
916.941	5460.75
917.177	5492.75
917.412	5504.75
917.647	5473.75
917.882	5432.75
918.117	5482.75
918.352	5355.75
918.588	5437.75
918.823	5325.75
919.057	5270.75
919.292	5129.75
919.527	5253.75
919.762	5174.75
919.997	5143.75
920.232	5096.75
920.466	5089.75
920.701	4943.75
920.935	4938.75
921.17	4889.75
921.405	4805.75
921.639	4878.75
921.873	4840.75
922.108	4802.75
922.342	4867.75
922.576	4755.75
922.811	4750.75
923.045	4799.75
923.279	4825.75
923.513	4700.75
923.747	4713.75
923.981	4664.75
924.215	4619.75
924.449	4611.75
924.683	4496.75
924.917	4505.75
925.151	4485.75
925.385	4608.75
925.618	4526.75
925.852	4509.75
926.086	4472.75
926.319	4474.75
926.553	4474.75
926.786	4501.75
927.02	4456.75
927.253	4515.75
927.486	4499.75
927.72	4411.75
927.953	4448.75
928.186	4426.75
928.42	4404.75
928.653	4301.75
928.886	4331.75
929.119	4358.75
929.352	4325.75
929.585	4272.75
929.818	4216.75
930.051	4201.75
930.284	4213.75
930.516	4060.75
930.749	4152.75
930.982	4153.75
931.215	4103.75
931.447	4053.75
931.68	4050.75
931.912	3978.75
932.145	3985.75
932.377	4017.75
932.61	4201.75
932.842	3950.75
933.074	4060.75
933.307	3995.75
933.539	4084.75
933.771	4072.75
934.003	4046.75
934.236	4097.75
934.468	4074.75
934.7	4039.75
934.932	3996.75
935.164	3947.75
935.395	3910.75
935.627	3985.75
935.859	3935.75
936.091	3821.75
936.323	3950.75
936.554	3912.75
936.786	3854.75
937.017	3847.75
937.249	3854.75
937.481	3766.75
937.712	3856.75
937.943	3822.75
938.175	3810.75
938.406	3769.75
938.637	3859.75
938.869	3721.75
939.1	3763.75
939.331	3753.75
939.562	3822.75
939.793	3744.75
940.024	3781.75
940.255	3746.75
940.486	3744.75
940.717	3657.75
940.948	3654.75
941.179	3623.75
941.409	3644.75
941.64	3611.75
941.871	3617.75
942.102	3634.75
942.332	3631.75
942.563	3655.75
942.793	3649.75
943.024	3591.75
943.254	3617.75
943.484	3641.75
943.715	3678.75
943.945	3640.75
944.175	3551.75
944.405	3546.75
944.636	3547.75
944.866	3599.75
945.096	3572.75
945.326	3492.75
945.556	3513.75
945.786	3559.75
946.016	3502.75
946.245	3425.75
946.475	3432.75
946.705	3445.75
946.935	3414.75
947.164	3425.75
947.394	3378.75
947.624	3362.75
947.853	3359.75
948.083	3395.75
948.312	3365.75
948.542	3259.75
948.771	3268.75
949	3254.75
949.23	3303.75
949.459	3307.75
949.688	3359.75
949.917	3309.75
950.146	3344.75
950.375	3377.75
950.604	3311.75
950.833	3305.75
951.062	3349.75
951.291	3278.75
951.52	3270.75
951.749	3253.75
951.978	3229.75
952.206	3222.75
952.435	3189.75
952.664	3212.75
952.892	3193.75
953.121	3199.75
953.349	3196.75
953.578	3194.75
953.806	3132.75
954.035	3107.75
954.263	3157.75
954.491	3057.75
954.719	3124.75
954.948	3075.75
955.176	3046.75
955.404	2987.75
955.632	3002.75
955.86	3033.75
956.088	3020.75
956.316	3031.75
956.544	3035.75
956.772	2975.75
956.999	2952.75
957.227	3028.75
957.455	2941.75
957.683	2944.75
957.91	2897.75
958.138	2852.75
958.365	2879.75
958.593	2861.75
958.82	2832.75
959.048	2863.75
959.275	2856.75
959.502	2846.75
959.73	2793.75
959.957	2840.75
960.184	2876.75
960.411	2815.75
960.638	2871.75
960.865	2790.75
961.092	2845.75
961.319	2729.75
961.546	2806.75
961.773	2838.75
962	2787.75
962.227	2849.75
962.454	2790.75
962.68	2756.75
962.907	2753.75
963.134	2705.75
963.36	2720.75
963.587	2713.75
963.813	2664.75
964.04	2687.75
964.266	2645.75
964.493	2706.75
964.719	2650.75
964.945	2711.75
965.171	2587.75
965.398	2663.75
965.624	2633.75
965.85	2528.75
966.076	2572.75
966.302	2565.75
966.528	2568.75
966.754	2555.75
966.98	2559.75
967.206	2555.75
967.431	2481.75
967.657	2576.75
967.883	2552.75
968.109	2524.75
968.334	2504.75
968.56	2475.75
968.785	2457.75
969.011	2417.75
969.236	2481.75
969.462	2418.75
969.687	2455.75
969.912	2484.75
970.138	2493.75
970.363	2397.75
970.588	2433.75
970.813	2407.75
971.038	2381.75
971.263	2472.75
971.488	2392.75
971.713	2463.75
971.938	2424.75
972.163	2311.75
972.388	2354.75
972.613	2323.75
972.838	2348.75
973.062	2326.75
973.287	2315.75
973.512	2255.75
973.736	2294.75
973.961	2269.75
974.185	2244.75
974.41	2301.75
974.634	2151.75
974.858	2205.75
975.083	2249.75
975.307	2269.75
975.531	2179.75
975.755	2125.75
975.98	2145.75
976.204	2106.75
976.428	2088.75
976.652	2069.75
976.876	2100.75
977.1	2129.75
977.324	2067.75
977.547	2109.75
977.771	2112.75
977.995	2047.75
978.219	2020.75
978.442	2156.75
978.666	2081.75
978.89	2101.75
979.113	2062.75
979.337	2056.75
979.56	2027.75
979.783	2134.75
980.007	2020.75
980.23	2006.75
980.453	2020.75
980.677	2010.75
980.9	2031.75
981.123	1929.75
981.346	1994.75
981.569	1983.75
981.792	1996.75
982.015	1941.75
982.238	1923.75
982.461	1942.75
982.684	1916.75
982.907	1896.75
983.129	1856.75
983.352	1931.75
983.575	1914.75
983.797	1939.75
984.02	1877.75
984.242	1841.75
984.465	1888.75
984.687	1899.75
984.91	1914.75
985.132	1873.75
985.354	1904.75
985.577	1860.75
985.799	1835.75
986.021	1792.75
986.243	1828.75
986.465	1818.75
986.687	1850.75
986.909	1877.75
987.131	1855.75
987.353	1792.75
987.575	1837.75
987.797	1808.75
988.019	1745.75
988.241	1793.75
988.462	1755.75
988.684	1812.75
988.906	1849.75
989.127	1874.75
989.349	1732.75
989.57	1779.75
989.792	1802.75
990.013	1808.75
990.234	1818.75
990.456	1824.75
990.677	1835.75
990.898	1740.75
991.119	1745.75
991.341	1777.75
991.562	1720.75
991.783	1732.75
992.004	1702.75
992.225	1669.75
992.446	1724.75
992.667	1642.75
992.887	1721.75
993.108	1608.75
993.329	1749.75
993.55	1688.75
993.77	1628.75
993.991	1626.75
994.212	1633.75
994.432	1655.75
994.653	1639.75
994.873	1651.75
995.093	1527.75
995.314	1593.75
995.534	1657.75
995.754	1681.75
995.975	1700.75
996.195	1556.75
996.415	1657.75
996.635	1638.75
996.855	1638.75
997.075	1605.75
997.295	1603.75
997.515	1590.75
997.735	1623.75
997.955	1625.75
998.174	1600.75
998.394	1582.75
998.614	1631.75
998.834	1584.75
999.053	1644.75
999.273	1596.75
999.492	1646.75
999.712	1597.75
999.931	1558.75
1000.151	1591.75
1000.37	1567.75
1000.589	1614.75
1000.809	1537.75
1001.028	1646.75
1001.247	1596.75
1001.466	1492.75
1001.685	1605.75
1001.904	1552.75
1002.123	1540.75
1002.342	1555.75
1002.561	1487.75
1002.78	1512.75
1002.999	1564.75
1003.218	1534.75
1003.436	1496.75
1003.655	1539.75
1003.874	1491.75
1004.092	1514.75
1004.311	1547.75
1004.53	1476.75
1004.748	1566.75
1004.966	1496.75
1005.185	1544.75
1005.403	1538.75
1005.622	1531.75
1005.84	1590.75
1006.058	1513.75
1006.276	1528.75
1006.494	1881.75
1006.712	1512.75
1006.931	1610.75
1007.149	1497.75
1007.367	1524.75
1007.584	1570.75
1007.802	1597.75
1008.02	1542.75
1008.238	1626.75
1008.456	1655.75
1008.673	1527.75
1008.891	1666.75
1009.109	1642.75
1009.326	1732.75
1009.544	1821.75
1009.761	1750.75
1009.979	1841.75
1010.196	1892.75
1010.413	2051.75
1010.631	2107.75
1010.848	2172.75
1011.065	2194.75
1011.282	2124.75
1011.5	2064.75
1011.717	2186.75
1011.934	2108.75
1012.151	2133.75
1012.368	2111.75
1012.585	2037.75
1012.801	2117.75
1013.018	2109.75
1013.235	2061.75
1013.452	2067.75
1013.669	2083.75
1013.885	2096.75
1014.102	2145.75
1014.318	2102.75
1014.535	2084.75
1014.751	2106.75
1014.968	2081.75
1015.184	2078.75
1015.401	1975.75
1015.617	2019.75
1015.833	1943.75
1016.049	1950.75
1016.266	1921.75
1016.482	1902.75
1016.698	1832.75
1016.914	1859.75
1017.13	1827.75
1017.346	1841.75
1017.562	1891.75
1017.778	1811.75
1017.993	1768.75
1018.209	1813.75
1018.425	1769.75
1018.641	1784.75
1018.856	1783.75
1019.072	1788.75
1019.288	1838.75
1019.503	1787.75
1019.719	1688.75
1019.934	1641.75
1020.149	1741.75
1020.365	1675.75
1020.58	1633.75
1020.795	1620.75
1021.011	1548.75
1021.226	1548.75
1021.441	1550.75
1021.656	1480.75
1021.871	1387.75
1022.086	1398.75
1022.301	1353.75
1022.516	1344.75
1022.731	1379.75
1022.946	1294.75
1023.16	1286.75
1023.375	1253.75
1023.59	1225.75
1023.804	1158.75
1024.019	1250.75
1024.234	1125.75
1024.448	1140.75
1024.663	1093.75
1024.877	1090.75
1025.092	1108.75
1025.306	1105.75
1025.52	1027.75
1025.734	1090.75
1025.949	999.75
1026.163	956.75
1026.377	884.75
1026.591	945.75
1026.805	875.75
1027.019	886.75
1027.233	853.75
1027.447	794.75
1027.661	880.75
1027.875	825.75
1028.088	849.75
1028.302	741.75
1028.516	739.75
1028.73	726.75
1028.943	728.75
1029.157	678.75
1029.37	645.75
1029.584	-4.25
1029.797	-0.25
1030.011	-3.25
1030.224	-0.25
