Data from QEP037381__160__14-52-55-839.txt Node

Date: Fri Dec 16 14:52:55 EST 2022
User: dcclab
Spectrometer: QEP03738
Trigger mode: 4
Integration Time (sec): 1.000000E1
Scans to average: 1
Electric dark correction enabled: true
Nonlinearity correction enabled: false
Boxcar width: 0
XAxis mode: Wavelengths
Number of Pixels in Spectrum: 1044
>>>>>Begin Spectral Data<<<<<
784.041	9.75
784.3	1.75
784.558	-2.25
784.817	-4.25
785.075	117011.75
785.334	20049.75
785.592	9282.75
785.851	6417.75
786.109	4832.75
786.368	3750.75
786.626	2997.75
786.884	2512.75
787.143	2098.75
787.401	1751.75
787.659	1546.75
787.917	1344.75
788.175	1220.75
788.433	1076.75
788.691	976.75
788.949	908.75
789.207	853.75
789.465	744.75
789.723	736.75
789.98	653.75
790.238	708.75
790.496	656.75
790.753	622.75
791.011	679.75
791.268	605.75
791.526	598.75
791.783	624.75
792.041	587.75
792.298	502.75
792.556	580.75
792.813	559.75
793.07	566.75
793.327	719.75
793.584	621.75
793.841	527.75
794.099	535.75
794.356	586.75
794.613	494.75
794.869	542.75
795.126	513.75
795.383	475.75
795.64	507.75
795.897	450.75
796.153	519.75
796.41	502.75
796.667	496.75
796.923	510.75
797.18	504.75
797.436	541.75
797.693	504.75
797.949	562.75
798.206	592.75
798.462	499.75
798.718	579.75
798.974	554.75
799.231	595.75
799.487	608.75
799.743	603.75
799.999	648.75
800.255	684.75
800.511	652.75
800.767	735.75
801.023	727.75
801.279	789.75
801.534	860.75
801.79	950.75
802.046	1063.75
802.302	1311.75
802.557	1574.75
802.813	2072.75
803.068	2716.75
803.324	3820.75
803.579	5299.75
803.835	7467.75
804.09	10344.75
804.345	13649.75
804.601	17321.75
804.856	20928.75
805.111	24236.75
805.366	26594.75
805.621	28443.75
805.876	29802.75
806.131	30698.75
806.386	31288.75
806.641	31832.75
806.896	32445.75
807.151	32979.75
807.406	33527.75
807.661	34269.75
807.915	34753.75
808.17	35241.75
808.425	35610.75
808.679	35958.75
808.934	36289.75
809.188	36690.75
809.443	37041.75
809.697	37300.75
809.951	37634.75
810.206	37923.75
810.46	38530.75
810.714	38699.75
810.968	39172.75
811.223	39396.75
811.477	39685.75
811.731	39941.75
811.985	40158.75
812.239	40532.75
812.493	40640.75
812.747	40824.75
813	40982.75
813.254	41050.75
813.508	41366.75
813.762	41471.75
814.015	41590.75
814.269	42059.75
814.522	42368.75
814.776	42814.75
815.03	43505.75
815.283	44077.75
815.536	44708.75
815.79	45309.75
816.043	45965.75
816.296	46554.75
816.55	47172.75
816.803	47680.75
817.056	48193.75
817.309	48708.75
817.562	48996.75
817.815	49586.75
818.068	50023.75
818.321	50373.75
818.574	51098.75
818.827	51648.75
819.079	52205.75
819.332	53104.75
819.585	53794.75
819.838	54501.75
820.09	54665.75
820.343	55227.75
820.595	55422.75
820.848	55723.75
821.1	56075.75
821.353	56180.75
821.605	55969.75
821.857	56022.75
822.11	55810.75
822.362	55672.75
822.614	55498.75
822.866	55620.75
823.118	55623.75
823.37	55783.75
823.622	56063.75
823.874	55987.75
824.126	56125.75
824.378	56323.75
824.63	56728.75
824.882	56694.75
825.134	56537.75
825.385	56852.75
825.637	56512.75
825.888	56464.75
826.14	56279.75
826.392	56072.75
826.643	55970.75
826.895	55708.75
827.146	55576.75
827.397	55448.75
827.649	55401.75
827.9	55335.75
828.151	55536.75
828.402	55694.75
828.653	55597.75
828.905	55793.75
829.156	55956.75
829.407	55735.75
829.658	55923.75
829.909	55898.75
830.159	55750.75
830.41	55631.75
830.661	55267.75
830.912	54747.75
831.162	54780.75
831.413	54594.75
831.664	54561.75
831.914	54636.75
832.165	54499.75
832.415	54565.75
832.666	54508.75
832.916	54653.75
833.167	54423.75
833.417	54386.75
833.667	54382.75
833.917	54111.75
834.168	54084.75
834.418	53786.75
834.668	53576.75
834.918	53426.75
835.168	53077.75
835.418	53009.75
835.668	52949.75
835.918	52638.75
836.167	52605.75
836.417	52596.75
836.667	52437.75
836.917	52297.75
837.166	52185.75
837.416	52223.75
837.666	52509.75
837.915	52137.75
838.165	52157.75
838.414	51971.75
838.663	51947.75
838.913	51812.75
839.162	51548.75
839.411	51689.75
839.661	51223.75
839.91	50953.75
840.159	51251.75
840.408	50858.75
840.657	50947.75
840.906	51036.75
841.155	51058.75
841.404	51033.75
841.653	51072.75
841.902	51147.75
842.15	51356.75
842.399	51216.75
842.648	50973.75
842.897	50827.75
843.145	50569.75
843.394	50255.75
843.642	50108.75
843.891	49669.75
844.139	49598.75
844.388	49304.75
844.636	49139.75
844.884	49199.75
845.133	49004.75
845.381	48883.75
845.629	48881.75
845.877	48732.75
846.125	48733.75
846.373	48597.75
846.621	48481.75
846.869	48344.75
847.117	48003.75
847.365	47773.75
847.613	47487.75
847.861	47358.75
848.108	47360.75
848.356	47183.75
848.604	47134.75
848.851	47107.75
849.099	47102.75
849.346	47257.75
849.594	47377.75
849.841	47612.75
850.089	47619.75
850.336	47659.75
850.583	47644.75
850.831	47334.75
851.078	46992.75
851.325	46884.75
851.572	46950.75
851.819	46423.75
852.066	45761.75
852.313	45254.75
852.56	45038.75
852.807	44879.75
853.054	44672.75
853.301	44613.75
853.548	44683.75
853.794	44750.75
854.041	45040.75
854.288	45069.75
854.534	45505.75
854.781	45414.75
855.028	45142.75
855.274	45175.75
855.52	44923.75
855.767	44549.75
856.013	44555.75
856.26	44793.75
856.506	44125.75
856.752	44120.75
856.998	44118.75
857.244	44257.75
857.49	44494.75
857.736	44483.75
857.982	44453.75
858.228	44431.75
858.474	44095.75
858.72	43763.75
858.966	43505.75
859.212	42901.75
859.458	42642.75
859.703	42267.75
859.949	41808.75
860.195	41590.75
860.44	41369.75
860.686	41191.75
860.931	41154.75
861.177	40928.75
861.422	40821.75
861.667	40611.75
861.913	40585.75
862.158	40695.75
862.403	40783.75
862.648	40914.75
862.893	41002.75
863.138	40957.75
863.384	40757.75
863.629	40621.75
863.873	40555.75
864.118	40445.75
864.363	40365.75
864.608	40090.75
864.853	39974.75
865.098	39857.75
865.342	39644.75
865.587	39552.75
865.832	39394.75
866.076	39374.75
866.321	39183.75
866.565	39024.75
866.81	38973.75
867.054	38859.75
867.298	38640.75
867.543	38416.75
867.787	38602.75
868.031	38316.75
868.275	38307.75
868.519	38281.75
868.764	38000.75
869.008	37980.75
869.252	37935.75
869.496	37638.75
869.739	37637.75
869.983	37674.75
870.227	37592.75
870.471	37506.75
870.715	37680.75
870.958	37748.75
871.202	37817.75
871.446	37895.75
871.689	37877.75
871.933	37759.75
872.176	37671.75
872.42	37836.75
872.663	37698.75
872.906	37502.75
873.15	37349.75
873.393	37394.75
873.636	37068.75
873.879	36695.75
874.122	36303.75
874.366	36008.75
874.609	35754.75
874.852	35435.75
875.095	35322.75
875.337	34951.75
875.58	34832.75
875.823	34850.75
876.066	34750.75
876.309	34620.75
876.551	34377.75
876.794	34244.75
877.037	34245.75
877.279	34100.75
877.522	34060.75
877.764	34261.75
878.007	34048.75
878.249	34049.75
878.491	33963.75
878.734	33896.75
878.976	33799.75
879.218	33582.75
879.46	33446.75
879.702	33183.75
879.945	32894.75
880.187	32731.75
880.429	32474.75
880.671	32406.75
880.912	32293.75
881.154	32094.75
881.396	32055.75
881.638	32081.75
881.88	31992.75
882.121	31875.75
882.363	31867.75
882.605	31802.75
882.846	31729.75
883.088	31547.75
883.329	31531.75
883.571	31466.75
883.812	31568.75
884.053	31939.75
884.295	32350.75
884.536	32621.75
884.777	32276.75
885.018	32009.75
885.259	31931.75
885.5	31808.75
885.742	32040.75
885.982	31836.75
886.223	31584.75
886.464	31434.75
886.705	31246.75
886.946	30977.75
887.187	30583.75
887.428	30421.75
887.668	29998.75
887.909	29510.75
888.15	29349.75
888.39	29160.75
888.631	28997.75
888.871	28754.75
889.111	28717.75
889.352	28507.75
889.592	28221.75
889.833	27945.75
890.073	27894.75
890.313	27801.75
890.553	27281.75
890.793	27344.75
891.033	27266.75
891.273	27102.75
891.513	27022.75
891.753	27010.75
891.993	26890.75
892.233	26922.75
892.473	26968.75
892.713	26993.75
892.952	27063.75
893.192	27000.75
893.432	26874.75
893.671	26840.75
893.911	26750.75
894.15	26584.75
894.39	26276.75
894.629	26235.75
894.869	26103.75
895.108	25953.75
895.347	25710.75
895.587	25772.75
895.826	25613.75
896.065	25631.75
896.304	25519.75
896.543	25387.75
896.782	25423.75
897.021	25232.75
897.26	25339.75
897.499	25258.75
897.738	25137.75
897.977	24780.75
898.216	24586.75
898.454	24508.75
898.693	24299.75
898.932	24342.75
899.17	24150.75
899.409	24146.75
899.647	24006.75
899.886	24050.75
900.124	23997.75
900.363	23886.75
900.601	23996.75
900.839	23949.75
901.078	23992.75
901.316	24045.75
901.554	24029.75
901.792	24224.75
902.03	23997.75
902.268	24054.75
902.506	23947.75
902.744	23837.75
902.982	23652.75
903.22	23379.75
903.458	23225.75
903.695	22955.75
903.933	22624.75
904.171	22234.75
904.409	21872.75
904.646	21715.75
904.884	21452.75
905.121	21240.75
905.359	21104.75
905.596	20807.75
905.833	20643.75
906.071	20506.75
906.308	20593.75
906.545	20498.75
906.783	20294.75
907.02	20304.75
907.257	20246.75
907.494	20272.75
907.731	20179.75
907.968	20030.75
908.205	19778.75
908.442	19742.75
908.679	19678.75
908.915	19479.75
909.152	19330.75
909.389	19241.75
909.626	19006.75
909.862	18914.75
910.099	19000.75
910.335	18952.75
910.572	18717.75
910.808	18616.75
911.045	18589.75
911.281	18527.75
911.518	18434.75
911.754	18324.75
911.99	18350.75
912.226	18113.75
912.463	17921.75
912.699	17731.75
912.935	17709.75
913.171	17603.75
913.407	17414.75
913.643	17299.75
913.879	17174.75
914.114	16985.75
914.35	16854.75
914.586	16613.75
914.822	16421.75
915.057	16429.75
915.293	16294.75
915.529	16249.75
915.764	16230.75
916	16144.75
916.235	16093.75
916.471	16028.75
916.706	16013.75
916.941	16035.75
917.177	15923.75
917.412	15967.75
917.647	15827.75
917.882	15872.75
918.117	15783.75
918.352	15748.75
918.588	15639.75
918.823	15498.75
919.057	15397.75
919.292	15105.75
919.527	15236.75
919.762	14865.75
919.997	14825.75
920.232	14638.75
920.466	14549.75
920.701	14342.75
920.935	14253.75
921.17	14218.75
921.405	14085.75
921.639	14206.75
921.873	14000.75
922.108	13998.75
922.342	13942.75
922.576	13793.75
922.811	13730.75
923.045	13659.75
923.279	13698.75
923.513	13523.75
923.747	13541.75
923.981	13457.75
924.215	13312.75
924.449	13191.75
924.683	13120.75
924.917	13094.75
925.151	13088.75
925.385	13074.75
925.618	13029.75
925.852	12918.75
926.086	12817.75
926.319	12919.75
926.553	12799.75
926.786	12806.75
927.02	12750.75
927.253	12753.75
927.486	12703.75
927.72	12681.75
927.953	12711.75
928.186	12614.75
928.42	12553.75
928.653	12532.75
928.886	12426.75
929.119	12352.75
929.352	12273.75
929.585	12228.75
929.818	12159.75
930.051	12034.75
930.284	11919.75
930.516	11757.75
930.749	11761.75
930.982	11705.75
931.215	11609.75
931.447	11549.75
931.68	11483.75
931.912	11448.75
932.145	11383.75
932.377	11403.75
932.61	11626.75
932.842	11406.75
933.074	11450.75
933.307	11434.75
933.539	11473.75
933.771	11450.75
934.003	11324.75
934.236	11335.75
934.468	11393.75
934.7	11251.75
934.932	11261.75
935.164	11194.75
935.395	11154.75
935.627	11120.75
935.859	11157.75
936.091	11007.75
936.323	10996.75
936.554	11045.75
936.786	10908.75
937.017	10841.75
937.249	10800.75
937.481	10731.75
937.712	10817.75
937.943	10678.75
938.175	10644.75
938.406	10645.75
938.637	10735.75
938.869	10558.75
939.1	10610.75
939.331	10564.75
939.562	10560.75
939.793	10528.75
940.024	10433.75
940.255	10388.75
940.486	10366.75
940.717	10262.75
940.948	10265.75
941.179	10128.75
941.409	10189.75
941.64	10108.75
941.871	10101.75
942.102	10103.75
942.332	10105.75
942.563	10122.75
942.793	10116.75
943.024	9994.75
943.254	10053.75
943.484	10093.75
943.715	10071.75
943.945	10026.75
944.175	9890.75
944.405	9851.75
944.636	9918.75
944.866	9870.75
945.096	9884.75
945.326	9783.75
945.556	9850.75
945.786	9811.75
946.016	9698.75
946.245	9597.75
946.475	9598.75
946.705	9468.75
946.935	9441.75
947.164	9396.75
947.394	9341.75
947.624	9295.75
947.853	9277.75
948.083	9285.75
948.312	9190.75
948.542	9066.75
948.771	9007.75
949	9018.75
949.23	9031.75
949.459	8995.75
949.688	9087.75
949.917	8990.75
950.146	8960.75
950.375	9008.75
950.604	8942.75
950.833	8948.75
951.062	8914.75
951.291	8876.75
951.52	8771.75
951.749	8796.75
951.978	8738.75
952.206	8723.75
952.435	8667.75
952.664	8670.75
952.892	8646.75
953.121	8630.75
953.349	8564.75
953.578	8475.75
953.806	8441.75
954.035	8364.75
954.263	8376.75
954.491	8256.75
954.719	8350.75
954.948	8218.75
955.176	8190.75
955.404	8128.75
955.632	8108.75
955.86	8119.75
956.088	8057.75
956.316	8060.75
956.544	7908.75
956.772	7912.75
956.999	7875.75
957.227	7860.75
957.455	7751.75
957.683	7764.75
957.91	7702.75
958.138	7704.75
958.365	7604.75
958.593	7543.75
958.82	7480.75
959.048	7594.75
959.275	7516.75
959.502	7411.75
959.73	7345.75
959.957	7447.75
960.184	7411.75
960.411	7373.75
960.638	7382.75
960.865	7365.75
961.092	7388.75
961.319	7229.75
961.546	7357.75
961.773	7333.75
962	7287.75
962.227	7326.75
962.454	7244.75
962.68	7194.75
962.907	7172.75
963.134	7022.75
963.36	7088.75
963.587	7040.75
963.813	6972.75
964.04	6932.75
964.266	6783.75
964.493	6857.75
964.719	6879.75
964.945	6807.75
965.171	6682.75
965.398	6708.75
965.624	6713.75
965.85	6655.75
966.076	6540.75
966.302	6582.75
966.528	6510.75
966.754	6576.75
966.98	6555.75
967.206	6443.75
967.431	6412.75
967.657	6432.75
967.883	6387.75
968.109	6369.75
968.334	6321.75
968.56	6299.75
968.785	6289.75
969.011	6233.75
969.236	6237.75
969.462	6245.75
969.687	6166.75
969.912	6250.75
970.138	6202.75
970.363	6144.75
970.588	6125.75
970.813	6102.75
971.038	6059.75
971.263	6046.75
971.488	6021.75
971.713	6011.75
971.938	6007.75
972.163	5896.75
972.388	5862.75
972.613	5814.75
972.838	5846.75
973.062	5807.75
973.287	5820.75
973.512	5698.75
973.736	5662.75
973.961	5667.75
974.185	5678.75
974.41	5661.75
974.634	5563.75
974.858	5491.75
975.083	5545.75
975.307	5560.75
975.531	5392.75
975.755	5339.75
975.98	5333.75
976.204	5240.75
976.428	5284.75
976.652	5245.75
976.876	5174.75
977.1	5202.75
977.324	5147.75
977.547	5187.75
977.771	5132.75
977.995	5107.75
978.219	5055.75
978.442	5184.75
978.666	5121.75
978.89	5020.75
979.113	5051.75
979.337	5019.75
979.56	4954.75
979.783	5029.75
980.007	4907.75
980.23	4947.75
980.453	4897.75
980.677	4863.75
980.9	4889.75
981.123	4778.75
981.346	4855.75
981.569	4789.75
981.792	4803.75
982.015	4724.75
982.238	4673.75
982.461	4649.75
982.684	4580.75
982.907	4588.75
983.129	4547.75
983.352	4588.75
983.575	4543.75
983.797	4521.75
984.02	4510.75
984.242	4451.75
984.465	4421.75
984.687	4470.75
984.91	4468.75
985.132	4372.75
985.354	4446.75
985.577	4336.75
985.799	4296.75
986.021	4227.75
986.243	4250.75
986.465	4201.75
986.687	4298.75
986.909	4290.75
987.131	4228.75
987.353	4144.75
987.575	4248.75
987.797	4147.75
988.019	4064.75
988.241	4136.75
988.462	4093.75
988.684	4072.75
988.906	4109.75
989.127	4104.75
989.349	4005.75
989.57	4000.75
989.792	4055.75
990.013	4051.75
990.234	4040.75
990.456	3975.75
990.677	3979.75
990.898	3929.75
991.119	3874.75
991.341	3895.75
991.562	3854.75
991.783	3883.75
992.004	3789.75
992.225	3763.75
992.446	3782.75
992.667	3708.75
992.887	3741.75
993.108	3597.75
993.329	3734.75
993.55	3692.75
993.77	3612.75
993.991	3596.75
994.212	3604.75
994.432	3535.75
994.653	3604.75
994.873	3535.75
995.093	3426.75
995.314	3459.75
995.534	3505.75
995.754	3528.75
995.975	3498.75
996.195	3388.75
996.415	3441.75
996.635	3410.75
996.855	3396.75
997.075	3365.75
997.295	3359.75
997.515	3351.75
997.735	3376.75
997.955	3361.75
998.174	3330.75
998.394	3294.75
998.614	3349.75
998.834	3274.75
999.053	3349.75
999.273	3241.75
999.492	3361.75
999.712	3232.75
999.931	3200.75
1000.151	3232.75
1000.37	3181.75
1000.589	3224.75
1000.809	3147.75
1001.028	3211.75
1001.247	3141.75
1001.466	3022.75
1001.685	3173.75
1001.904	3071.75
1002.123	3055.75
1002.342	3025.75
1002.561	3013.75
1002.78	2996.75
1002.999	3020.75
1003.218	2951.75
1003.436	2914.75
1003.655	2956.75
1003.874	2904.75
1004.092	2882.75
1004.311	2912.75
1004.53	2883.75
1004.748	2928.75
1004.966	2887.75
1005.185	2894.75
1005.403	2836.75
1005.622	2872.75
1005.84	2920.75
1006.058	2807.75
1006.276	2829.75
1006.494	3296.75
1006.712	2821.75
1006.931	2850.75
1007.149	2778.75
1007.367	2798.75
1007.584	2777.75
1007.802	2833.75
1008.02	2777.75
1008.238	2900.75
1008.456	2886.75
1008.673	2758.75
1008.891	2878.75
1009.109	2815.75
1009.326	2920.75
1009.544	3006.75
1009.761	2904.75
1009.979	2999.75
1010.196	3061.75
1010.413	3207.75
1010.631	3293.75
1010.848	3320.75
1011.065	3333.75
1011.282	3283.75
1011.5	3226.75
1011.717	3306.75
1011.934	3267.75
1012.151	3262.75
1012.368	3243.75
1012.585	3169.75
1012.801	3249.75
1013.018	3200.75
1013.235	3143.75
1013.452	3176.75
1013.669	3205.75
1013.885	3158.75
1014.102	3211.75
1014.318	3197.75
1014.535	3137.75
1014.751	3187.75
1014.968	3137.75
1015.184	3105.75
1015.401	3023.75
1015.617	3029.75
1015.833	2997.75
1016.049	2969.75
1016.266	2915.75
1016.482	2906.75
1016.698	2859.75
1016.914	2864.75
1017.13	2785.75
1017.346	2771.75
1017.562	2807.75
1017.778	2791.75
1017.993	2708.75
1018.209	2752.75
1018.425	2710.75
1018.641	2686.75
1018.856	2677.75
1019.072	2722.75
1019.288	2737.75
1019.503	2688.75
1019.719	2575.75
1019.934	2614.75
1020.149	2626.75
1020.365	2564.75
1020.58	2505.75
1020.795	2547.75
1021.011	2433.75
1021.226	2441.75
1021.441	2428.75
1021.656	2260.75
1021.871	2192.75
1022.086	2217.75
1022.301	2190.75
1022.516	2150.75
1022.731	2202.75
1022.946	2112.75
1023.16	2044.75
1023.375	2026.75
1023.59	1978.75
1023.804	1918.75
1024.019	2003.75
1024.234	1841.75
1024.448	1885.75
1024.663	1764.75
1024.877	1775.75
1025.092	1776.75
1025.306	1738.75
1025.52	1692.75
1025.734	1751.75
1025.949	1605.75
1026.163	1584.75
1026.377	1490.75
1026.591	1541.75
1026.805	1445.75
1027.019	1447.75
1027.233	1392.75
1027.447	1320.75
1027.661	1452.75
1027.875	1354.75
1028.088	1332.75
1028.302	1250.75
1028.516	1227.75
1028.73	1204.75
1028.943	1180.75
1029.157	1107.75
1029.37	1031.75
1029.584	-3.25
1029.797	0.75
1030.011	-3.25
1030.224	0.75
