Data from QEP037381__137__14-49-05-837.txt Node

Date: Fri Dec 16 14:49:05 EST 2022
User: dcclab
Spectrometer: QEP03738
Trigger mode: 4
Integration Time (sec): 1.000000E1
Scans to average: 1
Electric dark correction enabled: true
Nonlinearity correction enabled: false
Boxcar width: 0
XAxis mode: Wavelengths
Number of Pixels in Spectrum: 1044
>>>>>Begin Spectral Data<<<<<
784.041	14.75
784.3	1.75
784.558	-0.25
784.817	-1.25
785.075	115288.75
785.334	19735.75
785.592	9186.75
785.851	6413.75
786.109	4792.75
786.368	3745.75
786.626	2989.75
786.884	2473.75
787.143	2080.75
787.401	1742.75
787.659	1548.75
787.917	1340.75
788.175	1227.75
788.433	1071.75
788.691	984.75
788.949	891.75
789.207	864.75
789.465	739.75
789.723	724.75
789.98	681.75
790.238	699.75
790.496	673.75
790.753	634.75
791.011	693.75
791.268	607.75
791.526	596.75
791.783	600.75
792.041	579.75
792.298	502.75
792.556	567.75
792.813	549.75
793.07	531.75
793.327	514.75
793.584	573.75
793.841	515.75
794.099	541.75
794.356	605.75
794.613	486.75
794.869	522.75
795.126	489.75
795.383	481.75
795.64	510.75
795.897	452.75
796.153	509.75
796.41	503.75
796.667	495.75
796.923	502.75
797.18	504.75
797.436	527.75
797.693	487.75
797.949	550.75
798.206	608.75
798.462	508.75
798.718	573.75
798.974	548.75
799.231	603.75
799.487	614.75
799.743	631.75
799.999	665.75
800.255	670.75
800.511	644.75
800.767	703.75
801.023	727.75
801.279	776.75
801.534	850.75
801.79	979.75
802.046	1071.75
802.302	1315.75
802.557	1591.75
802.813	2079.75
803.068	2710.75
803.324	3829.75
803.579	5422.75
803.835	7550.75
804.09	10430.75
804.345	13741.75
804.601	17334.75
804.856	20979.75
805.111	24379.75
805.366	26858.75
805.621	28783.75
805.876	30110.75
806.131	30912.75
806.386	31528.75
806.641	32151.75
806.896	32672.75
807.151	33369.75
807.406	33788.75
807.661	34385.75
807.915	34916.75
808.17	35459.75
808.425	35679.75
808.679	36035.75
808.934	36607.75
809.188	36666.75
809.443	37305.75
809.697	37626.75
809.951	37792.75
810.206	38112.75
810.46	38562.75
810.714	38618.75
810.968	39330.75
811.223	39392.75
811.477	39826.75
811.731	39972.75
811.985	40290.75
812.239	40612.75
812.493	40670.75
812.747	40987.75
813	41015.75
813.254	41138.75
813.508	41339.75
813.762	41394.75
814.015	41584.75
814.269	42113.75
814.522	42255.75
814.776	42709.75
815.03	43253.75
815.283	43783.75
815.536	44426.75
815.79	45209.75
816.043	45765.75
816.296	46433.75
816.55	46840.75
816.803	47362.75
817.056	47974.75
817.309	48284.75
817.562	48779.75
817.815	49203.75
818.068	49519.75
818.321	50103.75
818.574	50590.75
818.827	51294.75
819.079	51768.75
819.332	52632.75
819.585	53183.75
819.838	53836.75
820.09	54143.75
820.343	54597.75
820.595	54935.75
820.848	55290.75
821.1	55363.75
821.353	55485.75
821.605	55540.75
821.857	55392.75
822.11	55106.75
822.362	55224.75
822.614	55022.75
822.866	54941.75
823.118	54876.75
823.37	55057.75
823.622	55337.75
823.874	55547.75
824.126	55586.75
824.378	55684.75
824.63	55810.75
824.882	55849.75
825.134	55983.75
825.385	55984.75
825.637	55966.75
825.888	55589.75
826.14	55595.75
826.392	55344.75
826.643	55235.75
826.895	55016.75
827.146	54837.75
827.397	54768.75
827.649	54700.75
827.9	54695.75
828.151	54740.75
828.402	55024.75
828.653	55186.75
828.905	54900.75
829.156	55075.75
829.407	55233.75
829.658	55149.75
829.909	55216.75
830.159	55216.75
830.41	54902.75
830.661	54599.75
830.912	54282.75
831.162	53991.75
831.413	53762.75
831.664	53949.75
831.914	53862.75
832.165	53761.75
832.415	53781.75
832.666	53794.75
832.916	53819.75
833.167	53742.75
833.417	53765.75
833.667	53421.75
833.917	53417.75
834.168	53282.75
834.418	53034.75
834.668	52802.75
834.918	52606.75
835.168	52476.75
835.418	52250.75
835.668	52210.75
835.918	52125.75
836.167	52095.75
836.417	51962.75
836.667	51742.75
836.917	51689.75
837.166	51479.75
837.416	51543.75
837.666	51458.75
837.915	51477.75
838.165	51469.75
838.414	51272.75
838.663	51044.75
838.913	51070.75
839.162	50857.75
839.411	50752.75
839.661	50550.75
839.91	50500.75
840.159	50166.75
840.408	50390.75
840.657	50250.75
840.906	50252.75
841.155	50227.75
841.404	50065.75
841.653	50341.75
841.902	50369.75
842.15	50554.75
842.399	50434.75
842.648	50314.75
842.897	50041.75
843.145	49853.75
843.394	49507.75
843.642	49208.75
843.891	48863.75
844.139	48871.75
844.388	48561.75
844.636	48288.75
844.884	48371.75
845.133	48324.75
845.381	48135.75
845.629	48142.75
845.877	48054.75
846.125	47991.75
846.373	47972.75
846.621	47683.75
846.869	47478.75
847.117	47314.75
847.365	47024.75
847.613	46817.75
847.861	46630.75
848.108	46660.75
848.356	46389.75
848.604	46372.75
848.851	46353.75
849.099	46423.75
849.346	46468.75
849.594	46713.75
849.841	46751.75
850.089	46931.75
850.336	46868.75
850.583	46947.75
850.831	46529.75
851.078	46282.75
851.325	46096.75
851.572	46119.75
851.819	45663.75
852.066	45128.75
852.313	44547.75
852.56	44482.75
852.807	44225.75
853.054	43991.75
853.301	43933.75
853.548	43903.75
853.794	44069.75
854.041	44101.75
854.288	44341.75
854.534	44616.75
854.781	44584.75
855.028	44494.75
855.274	44380.75
855.52	44127.75
855.767	43902.75
856.013	44019.75
856.26	44026.75
856.506	43551.75
856.752	43419.75
856.998	43499.75
857.244	43645.75
857.49	43586.75
857.736	43657.75
857.982	43571.75
858.228	43548.75
858.474	43344.75
858.72	43029.75
858.966	42756.75
859.212	42395.75
859.458	41964.75
859.703	41491.75
859.949	41104.75
860.195	41013.75
860.44	40589.75
860.686	40366.75
860.931	40411.75
861.177	40104.75
861.422	39994.75
861.667	39948.75
861.913	40064.75
862.158	40152.75
862.403	40076.75
862.648	40043.75
862.893	40104.75
863.138	40176.75
863.384	40011.75
863.629	39980.75
863.873	39914.75
864.118	39767.75
864.363	39626.75
864.608	39395.75
864.853	39186.75
865.098	39146.75
865.342	38990.75
865.587	38832.75
865.832	38885.75
866.076	38700.75
866.321	38562.75
866.565	38416.75
866.81	38127.75
867.054	38074.75
867.298	37867.75
867.543	37740.75
867.787	37827.75
868.031	37690.75
868.275	37564.75
868.519	37373.75
868.764	37401.75
869.008	37347.75
869.252	37208.75
869.496	37101.75
869.739	37037.75
869.983	36997.75
870.227	37042.75
870.471	36916.75
870.715	36918.75
870.958	36971.75
871.202	37084.75
871.446	37100.75
871.689	36981.75
871.933	37139.75
872.176	36980.75
872.42	36982.75
872.663	36773.75
872.906	36708.75
873.15	36712.75
873.393	36531.75
873.636	36460.75
873.879	36002.75
874.122	35708.75
874.366	35403.75
874.609	35008.75
874.852	34669.75
875.095	34716.75
875.337	34467.75
875.58	34223.75
875.823	34149.75
876.066	33966.75
876.309	34046.75
876.551	33760.75
876.794	33579.75
877.037	33607.75
877.279	33380.75
877.522	33489.75
877.764	33605.75
878.007	33375.75
878.249	33404.75
878.491	33375.75
878.734	33322.75
878.976	33228.75
879.218	32991.75
879.46	32939.75
879.702	32534.75
879.945	32471.75
880.187	32160.75
880.429	31906.75
880.671	31628.75
880.912	31603.75
881.154	31397.75
881.396	31446.75
881.638	31413.75
881.88	31300.75
882.121	31350.75
882.363	31223.75
882.605	31258.75
882.846	31118.75
883.088	31075.75
883.329	30939.75
883.571	30853.75
883.812	31030.75
884.053	31437.75
884.295	31708.75
884.536	31904.75
884.777	31774.75
885.018	31614.75
885.259	31226.75
885.5	31138.75
885.742	31431.75
885.982	31099.75
886.223	31055.75
886.464	30950.75
886.705	30608.75
886.946	30408.75
887.187	30003.75
887.428	29804.75
887.668	29323.75
887.909	29102.75
888.15	28802.75
888.39	28642.75
888.631	28563.75
888.871	28300.75
889.111	28033.75
889.352	27998.75
889.592	27687.75
889.833	27517.75
890.073	27286.75
890.313	27249.75
890.553	27009.75
890.793	27018.75
891.033	26651.75
891.273	26656.75
891.513	26512.75
891.753	26523.75
891.993	26450.75
892.233	26488.75
892.473	26710.75
892.713	26549.75
892.952	26516.75
893.192	26542.75
893.432	26409.75
893.671	26288.75
893.911	26257.75
894.15	26067.75
894.39	25828.75
894.629	25769.75
894.869	25607.75
895.108	25429.75
895.347	25264.75
895.587	25356.75
895.826	25263.75
896.065	25142.75
896.304	25092.75
896.543	24976.75
896.782	25026.75
897.021	24897.75
897.26	24834.75
897.499	24797.75
897.738	24496.75
897.977	24494.75
898.216	24270.75
898.454	24016.75
898.693	23927.75
898.932	23816.75
899.17	23707.75
899.409	23662.75
899.647	23484.75
899.886	23569.75
900.124	23531.75
900.363	23443.75
900.601	23545.75
900.839	23504.75
901.078	23512.75
901.316	23591.75
901.554	23644.75
901.792	23702.75
902.03	23559.75
902.268	23536.75
902.506	23514.75
902.744	23332.75
902.982	23266.75
903.22	22997.75
903.458	22793.75
903.695	22460.75
903.933	22180.75
904.171	21793.75
904.409	21628.75
904.646	21366.75
904.884	21169.75
905.121	20987.75
905.359	20672.75
905.596	20569.75
905.833	20330.75
906.071	20223.75
906.308	20229.75
906.545	20148.75
906.783	20047.75
907.02	20050.75
907.257	19893.75
907.494	19931.75
907.731	19871.75
907.968	19645.75
908.205	19662.75
908.442	19504.75
908.679	19336.75
908.915	19323.75
909.152	19104.75
909.389	18894.75
909.626	18880.75
909.862	18669.75
910.099	18585.75
910.335	18566.75
910.572	18257.75
910.808	18407.75
911.045	18336.75
911.281	18224.75
911.518	18181.75
911.754	18128.75
911.99	17980.75
912.226	17899.75
912.463	17746.75
912.699	17544.75
912.935	17455.75
913.171	17327.75
913.407	17118.75
913.643	17068.75
913.879	16846.75
914.114	16695.75
914.35	16524.75
914.586	16403.75
914.822	16257.75
915.057	16261.75
915.293	16050.75
915.529	15971.75
915.764	16023.75
916	15882.75
916.235	15901.75
916.471	15872.75
916.706	15728.75
916.941	15723.75
917.177	15740.75
917.412	15721.75
917.647	15663.75
917.882	15598.75
918.117	15673.75
918.352	15524.75
918.588	15452.75
918.823	15372.75
919.057	15239.75
919.292	14978.75
919.527	14965.75
919.762	14747.75
919.997	14661.75
920.232	14409.75
920.466	14366.75
920.701	14155.75
920.935	14130.75
921.17	14035.75
921.405	13906.75
921.639	13967.75
921.873	13841.75
922.108	13836.75
922.342	13765.75
922.576	13721.75
922.811	13619.75
923.045	13608.75
923.279	13578.75
923.513	13362.75
923.747	13332.75
923.981	13251.75
924.215	13153.75
924.449	13122.75
924.683	12981.75
924.917	12861.75
925.151	12936.75
925.385	12897.75
925.618	12796.75
925.852	12763.75
926.086	12730.75
926.319	12669.75
926.553	12684.75
926.786	12689.75
927.02	12586.75
927.253	12723.75
927.486	12663.75
927.72	12489.75
927.953	12533.75
928.186	12479.75
928.42	12389.75
928.653	12332.75
928.886	12306.75
929.119	12207.75
929.352	12179.75
929.585	12128.75
929.818	11889.75
930.051	11905.75
930.284	11847.75
930.516	11617.75
930.749	11512.75
930.982	11597.75
931.215	11533.75
931.447	11398.75
931.68	11458.75
931.912	11356.75
932.145	11286.75
932.377	11435.75
932.61	11498.75
932.842	11213.75
933.074	11316.75
933.307	11334.75
933.539	11350.75
933.771	11298.75
934.003	11222.75
934.236	11325.75
934.468	11276.75
934.7	11177.75
934.932	11168.75
935.164	11053.75
935.395	11075.75
935.627	11026.75
935.859	10978.75
936.091	10902.75
936.323	10953.75
936.554	10848.75
936.786	10728.75
937.017	10661.75
937.249	10721.75
937.481	10627.75
937.712	10713.75
937.943	10610.75
938.175	10535.75
938.406	10529.75
938.637	10672.75
938.869	10488.75
939.1	10555.75
939.331	10413.75
939.562	10430.75
939.793	10361.75
940.024	10353.75
940.255	10243.75
940.486	10213.75
940.717	10215.75
940.948	10136.75
941.179	10063.75
941.409	9994.75
941.64	10006.75
941.871	10040.75
942.102	9958.75
942.332	10037.75
942.563	10002.75
942.793	9996.75
943.024	9955.75
943.254	9870.75
943.484	9993.75
943.715	9960.75
943.945	9872.75
944.175	9852.75
944.405	9842.75
944.636	9831.75
944.866	9828.75
945.096	9865.75
945.326	9742.75
945.556	9622.75
945.786	9708.75
946.016	9679.75
946.245	9467.75
946.475	9393.75
946.705	9411.75
946.935	9367.75
947.164	9342.75
947.394	9190.75
947.624	9240.75
947.853	9231.75
948.083	9112.75
948.312	9105.75
948.542	8999.75
948.771	8945.75
949	8952.75
949.23	8980.75
949.459	8999.75
949.688	8977.75
949.917	8909.75
950.146	8911.75
950.375	8916.75
950.604	8849.75
950.833	8898.75
951.062	8909.75
951.291	8831.75
951.52	8758.75
951.749	8687.75
951.978	8674.75
952.206	8582.75
952.435	8643.75
952.664	8606.75
952.892	8559.75
953.121	8568.75
953.349	8527.75
953.578	8473.75
953.806	8408.75
954.035	8260.75
954.263	8374.75
954.491	8183.75
954.719	8290.75
954.948	8168.75
955.176	8116.75
955.404	8095.75
955.632	8113.75
955.86	8033.75
956.088	8023.75
956.316	8021.75
956.544	7934.75
956.772	7822.75
956.999	7857.75
957.227	7909.75
957.455	7642.75
957.683	7672.75
957.91	7639.75
958.138	7581.75
958.365	7599.75
958.593	7561.75
958.82	7452.75
959.048	7446.75
959.275	7458.75
959.502	7392.75
959.73	7296.75
959.957	7405.75
960.184	7379.75
960.411	7316.75
960.638	7346.75
960.865	7270.75
961.092	7336.75
961.319	7180.75
961.546	7288.75
961.773	7292.75
962	7212.75
962.227	7244.75
962.454	7167.75
962.68	7119.75
962.907	7162.75
963.134	7005.75
963.36	7017.75
963.587	6998.75
963.813	6893.75
964.04	6870.75
964.266	6790.75
964.493	6872.75
964.719	6756.75
964.945	6805.75
965.171	6631.75
965.398	6664.75
965.624	6646.75
965.85	6519.75
966.076	6502.75
966.302	6515.75
966.528	6538.75
966.754	6482.75
966.98	6478.75
967.206	6454.75
967.431	6380.75
967.657	6403.75
967.883	6342.75
968.109	6381.75
968.334	6280.75
968.56	6245.75
968.785	6244.75
969.011	6211.75
969.236	6224.75
969.462	6188.75
969.687	6149.75
969.912	6236.75
970.138	6151.75
970.363	6097.75
970.588	6111.75
970.813	5987.75
971.038	5993.75
971.263	6048.75
971.488	5981.75
971.713	5981.75
971.938	5947.75
972.163	5856.75
972.388	5828.75
972.613	5833.75
972.838	5867.75
973.062	5764.75
973.287	5752.75
973.512	5684.75
973.736	5680.75
973.961	5669.75
974.185	5620.75
974.41	5610.75
974.634	5439.75
974.858	5452.75
975.083	5482.75
975.307	5478.75
975.531	5389.75
975.755	5301.75
975.98	5329.75
976.204	5218.75
976.428	5229.75
976.652	5202.75
976.876	5145.75
977.1	5169.75
977.324	5146.75
977.547	5176.75
977.771	5191.75
977.995	5122.75
978.219	4978.75
978.442	5198.75
978.666	5062.75
978.89	4988.75
979.113	5075.75
979.337	4971.75
979.56	4924.75
979.783	5019.75
980.007	4894.75
980.23	4938.75
980.453	4836.75
980.677	4883.75
980.9	4867.75
981.123	4733.75
981.346	4821.75
981.569	4798.75
981.792	4753.75
982.015	4662.75
982.238	4630.75
982.461	4662.75
982.684	4598.75
982.907	4504.75
983.129	4506.75
983.352	4554.75
983.575	4582.75
983.797	4532.75
984.02	4414.75
984.242	4443.75
984.465	4375.75
984.687	4439.75
984.91	4400.75
985.132	4333.75
985.354	4444.75
985.577	4344.75
985.799	4275.75
986.021	4184.75
986.243	4226.75
986.465	4261.75
986.687	4260.75
986.909	4275.75
987.131	4173.75
987.353	4172.75
987.575	4157.75
987.797	4090.75
988.019	4068.75
988.241	4087.75
988.462	4093.75
988.684	4087.75
988.906	4137.75
989.127	4089.75
989.349	3982.75
989.57	4009.75
989.792	4016.75
990.013	4026.75
990.234	3989.75
990.456	4016.75
990.677	4010.75
990.898	3943.75
991.119	3916.75
991.341	3904.75
991.562	3802.75
991.783	3844.75
992.004	3790.75
992.225	3763.75
992.446	3745.75
992.667	3661.75
992.887	3747.75
993.108	3646.75
993.329	3707.75
993.55	3651.75
993.77	3599.75
993.991	3586.75
994.212	3598.75
994.432	3530.75
994.653	3519.75
994.873	3548.75
995.093	3385.75
995.314	3418.75
995.534	3510.75
995.754	3491.75
995.975	3490.75
996.195	3358.75
996.415	3407.75
996.635	3377.75
996.855	3411.75
997.075	3374.75
997.295	3356.75
997.515	3370.75
997.735	3332.75
997.955	3305.75
998.174	3352.75
998.394	3309.75
998.614	3325.75
998.834	3294.75
999.053	3294.75
999.273	3266.75
999.492	3324.75
999.712	3211.75
999.931	3189.75
1000.151	3200.75
1000.37	3167.75
1000.589	3221.75
1000.809	3122.75
1001.028	3252.75
1001.247	3165.75
1001.466	3042.75
1001.685	3101.75
1001.904	3059.75
1002.123	3007.75
1002.342	2994.75
1002.561	2961.75
1002.78	2944.75
1002.999	3029.75
1003.218	2957.75
1003.436	2911.75
1003.655	2970.75
1003.874	2856.75
1004.092	2895.75
1004.311	2900.75
1004.53	2886.75
1004.748	2953.75
1004.966	2838.75
1005.185	2932.75
1005.403	2877.75
1005.622	2821.75
1005.84	2881.75
1006.058	2771.75
1006.276	2837.75
1006.494	3291.75
1006.712	2813.75
1006.931	2843.75
1007.149	2727.75
1007.367	2780.75
1007.584	2816.75
1007.802	2848.75
1008.02	2779.75
1008.238	2921.75
1008.456	2862.75
1008.673	2768.75
1008.891	2877.75
1009.109	2816.75
1009.326	2881.75
1009.544	2989.75
1009.761	2874.75
1009.979	2978.75
1010.196	3028.75
1010.413	3149.75
1010.631	3265.75
1010.848	3292.75
1011.065	3262.75
1011.282	3254.75
1011.5	3191.75
1011.717	3279.75
1011.934	3173.75
1012.151	3232.75
1012.368	3172.75
1012.585	3101.75
1012.801	3173.75
1013.018	3092.75
1013.235	3092.75
1013.452	3139.75
1013.669	3143.75
1013.885	3117.75
1014.102	3145.75
1014.318	3137.75
1014.535	3102.75
1014.751	3095.75
1014.968	3103.75
1015.184	3087.75
1015.401	2987.75
1015.617	2988.75
1015.833	2923.75
1016.049	2913.75
1016.266	2844.75
1016.482	2847.75
1016.698	2741.75
1016.914	2806.75
1017.13	2733.75
1017.346	2733.75
1017.562	2790.75
1017.778	2677.75
1017.993	2611.75
1018.209	2695.75
1018.425	2653.75
1018.641	2623.75
1018.856	2591.75
1019.072	2592.75
1019.288	2656.75
1019.503	2615.75
1019.719	2511.75
1019.934	2493.75
1020.149	2620.75
1020.365	2479.75
1020.58	2459.75
1020.795	2487.75
1021.011	2385.75
1021.226	2343.75
1021.441	2351.75
1021.656	2237.75
1021.871	2155.75
1022.086	2170.75
1022.301	2136.75
1022.516	2108.75
1022.731	2117.75
1022.946	2024.75
1023.16	2004.75
1023.375	1944.75
1023.59	1938.75
1023.804	1861.75
1024.019	1980.75
1024.234	1840.75
1024.448	1857.75
1024.663	1768.75
1024.877	1738.75
1025.092	1734.75
1025.306	1726.75
1025.52	1600.75
1025.734	1699.75
1025.949	1591.75
1026.163	1556.75
1026.377	1488.75
1026.591	1494.75
1026.805	1431.75
1027.019	1436.75
1027.233	1374.75
1027.447	1310.75
1027.661	1407.75
1027.875	1323.75
1028.088	1317.75
1028.302	1248.75
1028.516	1221.75
1028.73	1188.75
1028.943	1179.75
1029.157	1109.75
1029.37	1013.75
1029.584	-4.25
1029.797	-1.25
1030.011	-6.25
1030.224	-3.25
