Data from QEP037381__147__14-50-45-838.txt Node

Date: Fri Dec 16 14:50:45 EST 2022
User: dcclab
Spectrometer: QEP03738
Trigger mode: 4
Integration Time (sec): 1.000000E1
Scans to average: 1
Electric dark correction enabled: true
Nonlinearity correction enabled: false
Boxcar width: 0
XAxis mode: Wavelengths
Number of Pixels in Spectrum: 1044
>>>>>Begin Spectral Data<<<<<
784.041	14.38
784.3	0.38
784.558	-4.62
784.817	-3.62
785.075	109790.38
785.334	19520.38
785.592	9280.38
785.851	6452.38
786.109	4847.38
786.368	3791.38
786.626	3059.38
786.884	2551.38
787.143	2148.38
787.401	1734.38
787.659	1602.38
787.917	1361.38
788.175	1270.38
788.433	1115.38
788.691	1000.38
788.949	927.38
789.207	875.38
789.465	784.38
789.723	774.38
789.98	696.38
790.238	717.38
790.496	689.38
790.753	685.38
791.011	698.38
791.268	636.38
791.526	630.38
791.783	642.38
792.041	622.38
792.298	542.38
792.556	602.38
792.813	597.38
793.07	544.38
793.327	562.38
793.584	640.38
793.841	548.38
794.099	569.38
794.356	627.38
794.613	530.38
794.869	578.38
795.126	542.38
795.383	530.38
795.64	555.38
795.897	490.38
796.153	550.38
796.41	572.38
796.667	541.38
796.923	561.38
797.18	570.38
797.436	589.38
797.693	547.38
797.949	629.38
798.206	655.38
798.462	574.38
798.718	636.38
798.974	640.38
799.231	672.38
799.487	676.38
799.743	710.38
799.999	760.38
800.255	765.38
800.511	782.38
800.767	859.38
801.023	877.38
801.279	941.38
801.534	1040.38
801.79	1174.38
802.046	1313.38
802.302	1639.38
802.557	1987.38
802.813	2634.38
803.068	3518.38
803.324	4982.38
803.579	7113.38
803.835	10092.38
804.09	13963.38
804.345	18527.38
804.601	23414.38
804.856	28521.38
805.111	32982.38
805.366	36586.38
805.621	39040.38
805.876	41082.38
806.131	42237.38
806.386	43258.38
806.641	44048.38
806.896	44769.38
807.151	45738.38
807.406	46341.38
807.661	47477.38
807.915	48305.38
808.17	48933.38
808.425	49359.38
808.679	49774.38
808.934	50370.38
809.188	51023.38
809.443	51460.38
809.697	52011.38
809.951	52669.38
810.206	53121.38
810.46	53483.38
810.714	54033.38
810.968	54589.38
811.223	54909.38
811.477	55333.38
811.731	55889.38
811.985	56305.38
812.239	56569.38
812.493	56965.38
812.747	57340.38
813	57503.38
813.254	57660.38
813.508	57908.38
813.762	58213.38
814.015	58601.38
814.269	59014.38
814.522	59560.38
814.776	60094.38
815.03	61060.38
815.283	61946.38
815.536	62995.38
815.79	64009.38
816.043	64773.38
816.296	65705.38
816.55	66445.38
816.803	67200.38
817.056	68238.38
817.309	68666.38
817.562	69554.38
817.815	70162.38
818.068	70812.38
818.321	71675.38
818.574	72446.38
818.827	73407.38
819.079	74285.38
819.332	75392.38
819.585	76298.38
819.838	77245.38
820.09	77788.38
820.343	78503.38
820.595	78977.38
820.848	79488.38
821.1	79796.38
821.353	79820.38
821.605	79809.38
821.857	79813.38
822.11	79705.38
822.362	79571.38
822.614	79542.38
822.866	79324.38
823.118	79359.38
823.37	79429.38
823.622	79632.38
823.874	80103.38
824.126	80336.38
824.378	80432.38
824.63	80648.38
824.882	81020.38
825.134	80929.38
825.385	80909.38
825.637	80845.38
825.888	80705.38
826.14	80549.38
826.392	80493.38
826.643	79900.38
826.895	79560.38
827.146	79457.38
827.397	79330.38
827.649	79396.38
827.9	79412.38
828.151	79534.38
828.402	79618.38
828.653	79814.38
828.905	80006.38
829.156	80011.38
829.407	80158.38
829.658	80035.38
829.909	80001.38
830.159	79813.38
830.41	79504.38
830.661	79104.38
830.912	78791.38
831.162	78340.38
831.413	78027.38
831.664	78299.38
831.914	78077.38
832.165	78156.38
832.415	78295.38
832.666	78178.38
832.916	78287.38
833.167	77992.38
833.417	78078.38
833.667	77611.38
833.917	77621.38
834.168	77454.38
834.418	77257.38
834.668	76679.38
834.918	76451.38
835.168	76320.38
835.418	76098.38
835.668	75708.38
835.918	75519.38
836.167	75562.38
836.417	75480.38
836.667	75288.38
836.917	75399.38
837.166	75241.38
837.416	75020.38
837.666	75074.38
837.915	74977.38
838.165	74866.38
838.414	74455.38
838.663	74444.38
838.913	74329.38
839.162	73943.38
839.411	73689.38
839.661	73380.38
839.91	73161.38
840.159	73195.38
840.408	73128.38
840.657	72937.38
840.906	73181.38
841.155	73133.38
841.404	73244.38
841.653	73177.38
841.902	73197.38
842.15	73255.38
842.399	73478.38
842.648	72994.38
842.897	72824.38
843.145	72571.38
843.394	72056.38
843.642	71704.38
843.891	71164.38
844.139	71129.38
844.388	70702.38
844.636	70578.38
844.884	70471.38
845.133	70251.38
845.381	70308.38
845.629	70026.38
845.877	70198.38
846.125	69880.38
846.373	69746.38
846.621	69514.38
846.869	69353.38
847.117	68987.38
847.365	68587.38
847.613	68341.38
847.861	68071.38
848.108	67822.38
848.356	67700.38
848.604	67635.38
848.851	67679.38
849.099	67656.38
849.346	67690.38
849.594	68342.38
849.841	68417.38
850.089	68416.38
850.336	68654.38
850.583	68556.38
850.831	68110.38
851.078	67480.38
851.325	67482.38
851.572	67145.38
851.819	66549.38
852.066	65616.38
852.313	65145.38
852.56	64594.38
852.807	64504.38
853.054	64093.38
853.301	64073.38
853.548	64052.38
853.794	64239.38
854.041	64431.38
854.288	64805.38
854.534	65065.38
854.781	65083.38
855.028	64982.38
855.274	64593.38
855.52	64201.38
855.767	63954.38
856.013	63623.38
856.26	63919.38
856.506	63185.38
856.752	62945.38
856.998	63143.38
857.244	63353.38
857.49	63597.38
857.736	63673.38
857.982	63609.38
858.228	63456.38
858.474	63167.38
858.72	62747.38
858.966	62301.38
859.212	61710.38
859.458	61204.38
859.703	60622.38
859.949	59788.38
860.195	59547.38
860.44	59117.38
860.686	58811.38
860.931	58947.38
861.177	58541.38
861.422	58434.38
861.667	58361.38
861.913	58235.38
862.158	58541.38
862.403	58692.38
862.648	58615.38
862.893	58746.38
863.138	58703.38
863.384	58703.38
863.629	58411.38
863.873	58305.38
864.118	58175.38
864.363	57816.38
864.608	57657.38
864.853	57594.38
865.098	57320.38
865.342	56922.38
865.587	56974.38
865.832	56696.38
866.076	56460.38
866.321	56272.38
866.565	56171.38
866.81	55763.38
867.054	55667.38
867.298	55431.38
867.543	55363.38
867.787	55181.38
868.031	55019.38
868.275	54826.38
868.519	54757.38
868.764	54660.38
869.008	54455.38
869.252	54246.38
869.496	54076.38
869.739	54058.38
869.983	53777.38
870.227	53749.38
870.471	53670.38
870.715	53875.38
870.958	53750.38
871.202	53730.38
871.446	53975.38
871.689	53777.38
871.933	53923.38
872.176	53876.38
872.42	53914.38
872.663	53498.38
872.906	53378.38
873.15	53046.38
873.393	52792.38
873.636	52359.38
873.879	52066.38
874.122	51600.38
874.366	51019.38
874.609	50681.38
874.852	50379.38
875.095	50107.38
875.337	49925.38
875.58	49794.38
875.823	49568.38
876.066	49459.38
876.309	49385.38
876.551	49124.38
876.794	48711.38
877.037	48820.38
877.279	48590.38
877.522	48659.38
877.764	48814.38
878.007	48521.38
878.249	48633.38
878.491	48505.38
878.734	48692.38
878.976	48271.38
879.218	48193.38
879.46	47937.38
879.702	47651.38
879.945	47085.38
880.187	46908.38
880.429	46707.38
880.671	46315.38
880.912	46206.38
881.154	45945.38
881.396	45959.38
881.638	45790.38
881.88	45867.38
882.121	45802.38
882.363	45526.38
882.605	45537.38
882.846	45171.38
883.088	45052.38
883.329	44878.38
883.571	44842.38
883.812	44738.38
884.053	45115.38
884.295	45342.38
884.536	45343.38
884.777	45179.38
885.018	45031.38
885.259	44875.38
885.5	44649.38
885.742	45026.38
885.982	44506.38
886.223	44495.38
886.464	44435.38
886.705	44145.38
886.946	43772.38
887.187	43433.38
887.428	43197.38
887.668	42800.38
887.909	42252.38
888.15	41896.38
888.39	41708.38
888.631	41630.38
888.871	41205.38
889.111	40928.38
889.352	40845.38
889.592	40431.38
889.833	40080.38
890.073	39770.38
890.313	39753.38
890.553	39372.38
890.793	39189.38
891.033	38974.38
891.273	38887.38
891.513	38626.38
891.753	38590.38
891.993	38510.38
892.233	38573.38
892.473	38771.38
892.713	38714.38
892.952	38549.38
893.192	38583.38
893.432	38668.38
893.671	38423.38
893.911	38270.38
894.15	37980.38
894.39	37758.38
894.629	37446.38
894.869	37316.38
895.108	37193.38
895.347	36935.38
895.587	36819.38
895.826	36664.38
896.065	36380.38
896.304	36463.38
896.543	36500.38
896.782	36176.38
897.021	36106.38
897.26	36012.38
897.499	35795.38
897.738	35729.38
897.977	35443.38
898.216	35190.38
898.454	34769.38
898.693	34609.38
898.932	34709.38
899.17	34317.38
899.409	34280.38
899.647	34055.38
899.886	34122.38
900.124	34187.38
900.363	33876.38
900.601	34086.38
900.839	33832.38
901.078	34125.38
901.316	33930.38
901.554	33959.38
901.792	34163.38
902.03	33801.38
902.268	33821.38
902.506	33741.38
902.744	33589.38
902.982	33479.38
903.22	33103.38
903.458	32753.38
903.695	32510.38
903.933	32105.38
904.171	31664.38
904.409	31332.38
904.646	30884.38
904.884	30626.38
905.121	30250.38
905.359	29960.38
905.596	29932.38
905.833	29448.38
906.071	29442.38
906.308	29323.38
906.545	29310.38
906.783	29170.38
907.02	29024.38
907.257	28962.38
907.494	28880.38
907.731	28743.38
907.968	28719.38
908.205	28392.38
908.442	28220.38
908.679	28175.38
908.915	27936.38
909.152	27765.38
909.389	27503.38
909.626	27340.38
909.862	27172.38
910.099	27046.38
910.335	27100.38
910.572	26796.38
910.808	26743.38
911.045	26730.38
911.281	26511.38
911.518	26554.38
911.754	26140.38
911.99	26175.38
912.226	26048.38
912.463	25645.38
912.699	25560.38
912.935	25313.38
913.171	25190.38
913.407	25017.38
913.643	24718.38
913.879	24462.38
914.114	24291.38
914.35	23914.38
914.586	23869.38
914.822	23640.38
915.057	23534.38
915.293	23253.38
915.529	23235.38
915.764	23184.38
916	23157.38
916.235	23077.38
916.471	23039.38
916.706	22832.38
916.941	22784.38
917.177	22779.38
917.412	22770.38
917.647	22734.38
917.882	22597.38
918.117	22558.38
918.352	22516.38
918.588	22479.38
918.823	22194.38
919.057	22004.38
919.292	21762.38
919.527	21652.38
919.762	21292.38
919.997	21135.38
920.232	20794.38
920.466	20810.38
920.701	20532.38
920.935	20404.38
921.17	20345.38
921.405	20247.38
921.639	20076.38
921.873	20052.38
922.108	19869.38
922.342	19898.38
922.576	19772.38
922.811	19695.38
923.045	19626.38
923.279	19548.38
923.513	19307.38
923.747	19392.38
923.981	19142.38
924.215	19055.38
924.449	18981.38
924.683	18734.38
924.917	18681.38
925.151	18573.38
925.385	18566.38
925.618	18457.38
925.852	18418.38
926.086	18383.38
926.319	18371.38
926.553	18267.38
926.786	18257.38
927.02	18230.38
927.253	18186.38
927.486	18148.38
927.72	18031.38
927.953	18029.38
928.186	17880.38
928.42	17840.38
928.653	17724.38
928.886	17683.38
929.119	17621.38
929.352	17526.38
929.585	17410.38
929.818	17266.38
930.051	17189.38
930.284	17095.38
930.516	16784.38
930.749	16651.38
930.982	16612.38
931.215	16491.38
931.447	16411.38
931.68	16409.38
931.912	16326.38
932.145	16334.38
932.377	16264.38
932.61	16368.38
932.842	16191.38
933.074	16251.38
933.307	16233.38
933.539	16211.38
933.771	16225.38
934.003	16143.38
934.236	16220.38
934.468	16206.38
934.7	16022.38
934.932	16079.38
935.164	15958.38
935.395	15839.38
935.627	15929.38
935.859	15797.38
936.091	15654.38
936.323	15702.38
936.554	15641.38
936.786	15528.38
937.017	15291.38
937.249	15359.38
937.481	15318.38
937.712	15303.38
937.943	15271.38
938.175	15189.38
938.406	15059.38
938.637	15161.38
938.869	15072.38
939.1	15078.38
939.331	14915.38
939.562	14959.38
939.793	14819.38
940.024	14796.38
940.255	14715.38
940.486	14638.38
940.717	14529.38
940.948	14448.38
941.179	14379.38
941.409	14339.38
941.64	14319.38
941.871	14376.38
942.102	14221.38
942.332	14277.38
942.563	14324.38
942.793	14259.38
943.024	14211.38
943.254	14246.38
943.484	14193.38
943.715	14260.38
943.945	14166.38
944.175	14123.38
944.405	14061.38
944.636	14006.38
944.866	14077.38
945.096	14077.38
945.326	13908.38
945.556	13888.38
945.786	13822.38
946.016	13573.38
946.245	13531.38
946.475	13463.38
946.705	13458.38
946.935	13347.38
947.164	13326.38
947.394	13057.38
947.624	13157.38
947.853	13064.38
948.083	12994.38
948.312	12817.38
948.542	12842.38
948.771	12848.38
949	12797.38
949.23	12735.38
949.459	12715.38
949.688	12787.38
949.917	12649.38
950.146	12587.38
950.375	12643.38
950.604	12603.38
950.833	12642.38
951.062	12575.38
951.291	12550.38
951.52	12413.38
951.749	12397.38
951.978	12307.38
952.206	12218.38
952.435	12225.38
952.664	12230.38
952.892	12243.38
953.121	12080.38
953.349	12106.38
953.578	12062.38
953.806	11963.38
954.035	11851.38
954.263	11765.38
954.491	11747.38
954.719	11649.38
954.948	11678.38
955.176	11673.38
955.404	11529.38
955.632	11512.38
955.86	11451.38
956.088	11379.38
956.316	11302.38
956.544	11332.38
956.772	11152.38
956.999	11077.38
957.227	11027.38
957.455	10939.38
957.683	10812.38
957.91	10784.38
958.138	10697.38
958.365	10665.38
958.593	10614.38
958.82	10486.38
959.048	10541.38
959.275	10563.38
959.502	10584.38
959.73	10460.38
959.957	10438.38
960.184	10388.38
960.411	10351.38
960.638	10390.38
960.865	10308.38
961.092	10279.38
961.319	10198.38
961.546	10279.38
961.773	10317.38
962	10144.38
962.227	10192.38
962.454	10094.38
962.68	10073.38
962.907	10014.38
963.134	9903.38
963.36	9948.38
963.587	9892.38
963.813	9779.38
964.04	9745.38
964.266	9576.38
964.493	9619.38
964.719	9549.38
964.945	9503.38
965.171	9397.38
965.398	9377.38
965.624	9395.38
965.85	9245.38
966.076	9237.38
966.302	9192.38
966.528	9116.38
966.754	9145.38
966.98	9150.38
967.206	9044.38
967.431	8964.38
967.657	8992.38
967.883	8925.38
968.109	8901.38
968.334	8871.38
968.56	8841.38
968.785	8758.38
969.011	8660.38
969.236	8784.38
969.462	8730.38
969.687	8658.38
969.912	8673.38
970.138	8703.38
970.363	8495.38
970.588	8501.38
970.813	8440.38
971.038	8414.38
971.263	8385.38
971.488	8417.38
971.713	8430.38
971.938	8330.38
972.163	8263.38
972.388	8128.38
972.613	8129.38
972.838	8172.38
973.062	8074.38
973.287	7998.38
973.512	7956.38
973.736	7945.38
973.961	7921.38
974.185	7829.38
974.41	7809.38
974.634	7650.38
974.858	7648.38
975.083	7732.38
975.307	7668.38
975.531	7482.38
975.755	7428.38
975.98	7406.38
976.204	7345.38
976.428	7289.38
976.652	7304.38
976.876	7205.38
977.1	7204.38
977.324	7194.38
977.547	7228.38
977.771	7109.38
977.995	7055.38
978.219	7073.38
978.442	7119.38
978.666	7086.38
978.89	7018.38
979.113	6983.38
979.337	6950.38
979.56	6886.38
979.783	6938.38
980.007	6906.38
980.23	6825.38
980.453	6775.38
980.677	6701.38
980.9	6757.38
981.123	6603.38
981.346	6675.38
981.569	6610.38
981.792	6555.38
982.015	6505.38
982.238	6466.38
982.461	6422.38
982.684	6372.38
982.907	6284.38
983.129	6285.38
983.352	6296.38
983.575	6239.38
983.797	6187.38
984.02	6100.38
984.242	6085.38
984.465	6037.38
984.687	6066.38
984.91	6066.38
985.132	6015.38
985.354	6005.38
985.577	5922.38
985.799	5895.38
986.021	5794.38
986.243	5788.38
986.465	5810.38
986.687	5812.38
986.909	5833.38
987.131	5769.38
987.353	5688.38
987.575	5740.38
987.797	5634.38
988.019	5580.38
988.241	5578.38
988.462	5509.38
988.684	5613.38
988.906	5614.38
989.127	5590.38
989.349	5509.38
989.57	5469.38
989.792	5463.38
990.013	5498.38
990.234	5413.38
990.456	5426.38
990.677	5421.38
990.898	5346.38
991.119	5349.38
991.341	5329.38
991.562	5216.38
991.783	5250.38
992.004	5122.38
992.225	5051.38
992.446	5123.38
992.667	4979.38
992.887	5060.38
993.108	4926.38
993.329	4986.38
993.55	4953.38
993.77	4820.38
993.991	4883.38
994.212	4777.38
994.432	4786.38
994.653	4776.38
994.873	4746.38
995.093	4556.38
995.314	4660.38
995.534	4688.38
995.754	4715.38
995.975	4674.38
996.195	4546.38
996.415	4583.38
996.635	4503.38
996.855	4536.38
997.075	4492.38
997.295	4491.38
997.515	4442.38
997.735	4494.38
997.955	4464.38
998.174	4411.38
998.394	4384.38
998.614	4445.38
998.834	4319.38
999.053	4377.38
999.273	4352.38
999.492	4403.38
999.712	4307.38
999.931	4261.38
1000.151	4223.38
1000.37	4201.38
1000.589	4251.38
1000.809	4166.38
1001.028	4249.38
1001.247	4154.38
1001.466	3979.38
1001.685	4179.38
1001.904	4055.38
1002.123	4011.38
1002.342	3979.38
1002.561	3917.38
1002.78	3936.38
1002.999	3985.38
1003.218	3895.38
1003.436	3842.38
1003.655	3854.38
1003.874	3795.38
1004.092	3795.38
1004.311	3801.38
1004.53	3766.38
1004.748	3797.38
1004.966	3721.38
1005.185	3762.38
1005.403	3732.38
1005.622	3711.38
1005.84	3768.38
1006.058	3595.38
1006.276	3621.38
1006.494	4125.38
1006.712	3621.38
1006.931	3673.38
1007.149	3564.38
1007.367	3586.38
1007.584	3595.38
1007.802	3583.38
1008.02	3584.38
1008.238	3651.38
1008.456	3670.38
1008.673	3503.38
1008.891	3573.38
1009.109	3548.38
1009.326	3618.38
1009.544	3689.38
1009.761	3610.38
1009.979	3702.38
1010.196	3745.38
1010.413	3820.38
1010.631	3933.38
1010.848	3969.38
1011.065	3954.38
1011.282	3936.38
1011.5	3837.38
1011.717	3901.38
1011.934	3852.38
1012.151	3823.38
1012.368	3790.38
1012.585	3734.38
1012.801	3764.38
1013.018	3765.38
1013.235	3742.38
1013.452	3709.38
1013.669	3739.38
1013.885	3686.38
1014.102	3729.38
1014.318	3723.38
1014.535	3649.38
1014.751	3650.38
1014.968	3674.38
1015.184	3645.38
1015.401	3549.38
1015.617	3518.38
1015.833	3470.38
1016.049	3403.38
1016.266	3410.38
1016.482	3381.38
1016.698	3305.38
1016.914	3335.38
1017.13	3254.38
1017.346	3238.38
1017.562	3277.38
1017.778	3180.38
1017.993	3164.38
1018.209	3220.38
1018.425	3161.38
1018.641	3154.38
1018.856	3114.38
1019.072	3119.38
1019.288	3179.38
1019.503	3122.38
1019.719	3018.38
1019.934	3002.38
1020.149	3059.38
1020.365	2985.38
1020.58	2920.38
1020.795	2938.38
1021.011	2875.38
1021.226	2791.38
1021.441	2811.38
1021.656	2709.38
1021.871	2630.38
1022.086	2556.38
1022.301	2549.38
1022.516	2547.38
1022.731	2547.38
1022.946	2457.38
1023.16	2452.38
1023.375	2413.38
1023.59	2360.38
1023.804	2297.38
1024.019	2355.38
1024.234	2219.38
1024.448	2228.38
1024.663	2150.38
1024.877	2159.38
1025.092	2132.38
1025.306	2096.38
1025.52	1987.38
1025.734	2039.38
1025.949	1979.38
1026.163	1920.38
1026.377	1820.38
1026.591	1875.38
1026.805	1776.38
1027.019	1761.38
1027.233	1697.38
1027.447	1626.38
1027.661	1728.38
1027.875	1644.38
1028.088	1632.38
1028.302	1509.38
1028.516	1495.38
1028.73	1472.38
1028.943	1426.38
1029.157	1354.38
1029.37	1273.38
1029.584	-1.62
1029.797	-1.62
1030.011	0.38
1030.224	-3.62
