Data from QEP037381__199__14-59-25-845.txt Node

Date: Fri Dec 16 14:59:25 EST 2022
User: dcclab
Spectrometer: QEP03738
Trigger mode: 4
Integration Time (sec): 1.000000E1
Scans to average: 1
Electric dark correction enabled: true
Nonlinearity correction enabled: false
Boxcar width: 0
XAxis mode: Wavelengths
Number of Pixels in Spectrum: 1044
>>>>>Begin Spectral Data<<<<<
784.041	13.5
784.3	2.5
784.558	-2.5
784.817	-1.5
785.075	111702.5
785.334	19637.5
785.592	9288.5
785.851	6458.5
786.109	4843.5
786.368	3729.5
786.626	3036.5
786.884	2535.5
787.143	2106.5
787.401	1750.5
787.659	1553.5
787.917	1372.5
788.175	1223.5
788.433	1067.5
788.691	969.5
788.949	895.5
789.207	845.5
789.465	749.5
789.723	703.5
789.98	668.5
790.238	694.5
790.496	678.5
790.753	630.5
791.011	669.5
791.268	600.5
791.526	595.5
791.783	591.5
792.041	586.5
792.298	489.5
792.556	573.5
792.813	543.5
793.07	523.5
793.327	511.5
793.584	578.5
793.841	504.5
794.099	519.5
794.356	591.5
794.613	495.5
794.869	533.5
795.126	483.5
795.383	473.5
795.64	492.5
795.897	445.5
796.153	501.5
796.41	488.5
796.667	474.5
796.923	477.5
797.18	489.5
797.436	518.5
797.693	466.5
797.949	543.5
798.206	580.5
798.462	492.5
798.718	545.5
798.974	546.5
799.231	596.5
799.487	575.5
799.743	587.5
799.999	613.5
800.255	627.5
800.511	603.5
800.767	685.5
801.023	685.5
801.279	718.5
801.534	815.5
801.79	888.5
802.046	984.5
802.302	1194.5
802.557	1433.5
802.813	1841.5
803.068	2377.5
803.324	3397.5
803.579	4661.5
803.835	6580.5
804.09	9102.5
804.345	11967.5
804.601	15156.5
804.856	18432.5
805.111	21218.5
805.366	23405.5
805.621	24955.5
805.876	26128.5
806.131	26880.5
806.386	27428.5
806.641	27936.5
806.896	28461.5
807.151	28937.5
807.406	29379.5
807.661	29991.5
807.915	30460.5
808.17	30833.5
808.425	31148.5
808.679	31434.5
808.934	31931.5
809.188	32075.5
809.443	32344.5
809.697	32645.5
809.951	33020.5
810.206	33279.5
810.46	33602.5
810.714	33828.5
810.968	34109.5
811.223	34507.5
811.477	34836.5
811.731	35132.5
811.985	35248.5
812.239	35347.5
812.493	35542.5
812.747	35613.5
813	36018.5
813.254	35846.5
813.508	36087.5
813.762	36234.5
814.015	36353.5
814.269	36872.5
814.522	37157.5
814.776	37472.5
815.03	37905.5
815.283	38561.5
815.536	38908.5
815.79	39538.5
816.043	40108.5
816.296	40635.5
816.55	41003.5
816.803	41681.5
817.056	42066.5
817.309	42324.5
817.562	42885.5
817.815	43098.5
818.068	43521.5
818.321	44004.5
818.574	44386.5
818.827	45053.5
819.079	45415.5
819.332	46206.5
819.585	46841.5
819.838	47311.5
820.09	47646.5
820.343	48052.5
820.595	48212.5
820.848	48676.5
821.1	48731.5
821.353	48813.5
821.605	48928.5
821.857	48867.5
822.11	48363.5
822.362	48441.5
822.614	48264.5
822.866	48423.5
823.118	48479.5
823.37	48527.5
823.622	48721.5
823.874	48638.5
824.126	48989.5
824.378	48974.5
824.63	48981.5
824.882	49170.5
825.134	49247.5
825.385	49117.5
825.637	49115.5
825.888	48911.5
826.14	48853.5
826.392	48811.5
826.643	48331.5
826.895	48377.5
827.146	48135.5
827.397	48158.5
827.649	47994.5
827.9	48056.5
828.151	48034.5
828.402	48123.5
828.653	48458.5
828.905	48299.5
829.156	48642.5
829.407	48396.5
829.658	48462.5
829.909	48718.5
830.159	48460.5
830.41	48347.5
830.661	47893.5
830.912	47666.5
831.162	47596.5
831.413	47418.5
831.664	47407.5
831.914	47379.5
832.165	47235.5
832.415	47329.5
832.666	47364.5
832.916	47413.5
833.167	47345.5
833.417	47232.5
833.667	47145.5
833.917	46846.5
834.168	46886.5
834.418	46720.5
834.668	46514.5
834.918	46312.5
835.168	46181.5
835.418	45998.5
835.668	45828.5
835.918	45836.5
836.167	45780.5
836.417	45431.5
836.667	45422.5
836.917	45449.5
837.166	45427.5
837.416	45374.5
837.666	45433.5
837.915	45246.5
838.165	45147.5
838.414	45207.5
838.663	45094.5
838.913	45034.5
839.162	44764.5
839.411	44864.5
839.661	44483.5
839.91	44392.5
840.159	44280.5
840.408	44267.5
840.657	44123.5
840.906	44366.5
841.155	44177.5
841.404	44208.5
841.653	44325.5
841.902	44240.5
842.15	44384.5
842.399	44313.5
842.648	44454.5
842.897	44076.5
843.145	43911.5
843.394	43589.5
843.642	43492.5
843.891	43138.5
844.139	42909.5
844.388	42729.5
844.636	42602.5
844.884	42623.5
845.133	42539.5
845.381	42469.5
845.629	42558.5
845.877	42310.5
846.125	42307.5
846.373	42291.5
846.621	41957.5
846.869	41955.5
847.117	41606.5
847.365	41575.5
847.613	41440.5
847.861	41059.5
848.108	41020.5
848.356	41019.5
848.604	40870.5
848.851	40952.5
849.099	40888.5
849.346	40970.5
849.594	41256.5
849.841	41300.5
850.089	41195.5
850.336	41287.5
850.583	41342.5
850.831	40976.5
851.078	40710.5
851.325	40720.5
851.572	40847.5
851.819	40383.5
852.066	39772.5
852.313	39542.5
852.56	39113.5
852.807	39102.5
853.054	38838.5
853.301	38605.5
853.548	38771.5
853.794	38963.5
854.041	38962.5
854.288	39212.5
854.534	39461.5
854.781	39408.5
855.028	39208.5
855.274	39291.5
855.52	38935.5
855.767	38868.5
856.013	38918.5
856.26	39073.5
856.506	38543.5
856.752	38447.5
856.998	38552.5
857.244	38352.5
857.49	38714.5
857.736	38820.5
857.982	38734.5
858.228	38606.5
858.474	38349.5
858.72	38118.5
858.966	37755.5
859.212	37532.5
859.458	37111.5
859.703	36806.5
859.949	36305.5
860.195	36140.5
860.44	35909.5
860.686	35782.5
860.931	35771.5
861.177	35570.5
861.422	35501.5
861.667	35260.5
861.913	35136.5
862.158	35341.5
862.403	35354.5
862.648	35481.5
862.893	35599.5
863.138	35541.5
863.384	35445.5
863.629	35345.5
863.873	35321.5
864.118	35124.5
864.363	35004.5
864.608	34892.5
864.853	34732.5
865.098	34566.5
865.342	34562.5
865.587	34413.5
865.832	34315.5
866.076	34191.5
866.321	34064.5
866.565	34062.5
866.81	33746.5
867.054	33706.5
867.298	33607.5
867.543	33620.5
867.787	33539.5
868.031	33472.5
868.275	33315.5
868.519	33145.5
868.764	33121.5
869.008	32885.5
869.252	33088.5
869.496	32891.5
869.739	32866.5
869.983	32875.5
870.227	32673.5
870.471	32659.5
870.715	32774.5
870.958	32870.5
871.202	32998.5
871.446	33060.5
871.689	32939.5
871.933	33023.5
872.176	32971.5
872.42	32817.5
872.663	32835.5
872.906	32711.5
873.15	32661.5
873.393	32588.5
873.636	32427.5
873.879	32164.5
874.122	31910.5
874.366	31470.5
874.609	31128.5
874.852	31045.5
875.095	30876.5
875.337	30633.5
875.58	30446.5
875.823	30350.5
876.066	30262.5
876.309	30224.5
876.551	29967.5
876.794	29776.5
877.037	29898.5
877.279	29619.5
877.522	29758.5
877.764	29707.5
878.007	29677.5
878.249	29734.5
878.491	29533.5
878.734	29582.5
878.976	29441.5
879.218	29204.5
879.46	29037.5
879.702	28932.5
879.945	28724.5
880.187	28378.5
880.429	28323.5
880.671	28092.5
880.912	28062.5
881.154	27930.5
881.396	27935.5
881.638	27870.5
881.88	27951.5
882.121	27827.5
882.363	27761.5
882.605	27735.5
882.846	27613.5
883.088	27583.5
883.329	27587.5
883.571	27640.5
883.812	27692.5
884.053	28066.5
884.295	28585.5
884.536	28770.5
884.777	28498.5
885.018	28345.5
885.259	28292.5
885.5	28041.5
885.742	28291.5
885.982	27910.5
886.223	27862.5
886.464	27535.5
886.705	27268.5
886.946	27107.5
887.187	26824.5
887.428	26619.5
887.668	26330.5
887.909	25937.5
888.15	25640.5
888.39	25400.5
888.631	25422.5
888.871	25049.5
889.111	24943.5
889.352	24813.5
889.592	24590.5
889.833	24266.5
890.073	24253.5
890.313	24198.5
890.553	23944.5
890.793	23797.5
891.033	23718.5
891.273	23649.5
891.513	23577.5
891.753	23494.5
891.993	23460.5
892.233	23447.5
892.473	23585.5
892.713	23498.5
892.952	23498.5
893.192	23479.5
893.432	23557.5
893.671	23528.5
893.911	23352.5
894.15	23241.5
894.39	22966.5
894.629	22881.5
894.869	22745.5
895.108	22711.5
895.347	22528.5
895.587	22425.5
895.826	22414.5
896.065	22257.5
896.304	22392.5
896.543	22265.5
896.782	22151.5
897.021	22069.5
897.26	22020.5
897.499	22146.5
897.738	21918.5
897.977	21744.5
898.216	21602.5
898.454	21453.5
898.693	21310.5
898.932	21327.5
899.17	21146.5
899.409	21141.5
899.647	21027.5
899.886	20953.5
900.124	20913.5
900.363	20972.5
900.601	21011.5
900.839	21002.5
901.078	21148.5
901.316	21175.5
901.554	21251.5
901.792	21283.5
902.03	21236.5
902.268	21188.5
902.506	21099.5
902.744	20947.5
902.982	20871.5
903.22	20667.5
903.458	20438.5
903.695	20046.5
903.933	19817.5
904.171	19518.5
904.409	19247.5
904.646	19069.5
904.884	18720.5
905.121	18658.5
905.359	18447.5
905.596	18348.5
905.833	18125.5
906.071	17937.5
906.308	18094.5
906.545	17924.5
906.783	17763.5
907.02	17802.5
907.257	17636.5
907.494	17708.5
907.731	17637.5
907.968	17650.5
908.205	17397.5
908.442	17405.5
908.679	17240.5
908.915	17104.5
909.152	17016.5
909.389	16757.5
909.626	16723.5
909.862	16598.5
910.099	16563.5
910.335	16425.5
910.572	16322.5
910.808	16351.5
911.045	16303.5
911.281	16147.5
911.518	16124.5
911.754	15986.5
911.99	15962.5
912.226	15765.5
912.463	15606.5
912.699	15542.5
912.935	15542.5
913.171	15403.5
913.407	15241.5
913.643	15125.5
913.879	15006.5
914.114	14794.5
914.35	14694.5
914.586	14636.5
914.822	14514.5
915.057	14477.5
915.293	14200.5
915.529	14187.5
915.764	14308.5
916	14210.5
916.235	14151.5
916.471	14102.5
916.706	13960.5
916.941	13984.5
917.177	13915.5
917.412	13995.5
917.647	13958.5
917.882	13807.5
918.117	13922.5
918.352	13786.5
918.588	13783.5
918.823	13600.5
919.057	13466.5
919.292	13278.5
919.527	13260.5
919.762	13030.5
919.997	13003.5
920.232	12839.5
920.466	12764.5
920.701	12519.5
920.935	12524.5
921.17	12379.5
921.405	12419.5
921.639	12362.5
921.873	12272.5
922.108	12286.5
922.342	12253.5
922.576	12096.5
922.811	12080.5
923.045	12100.5
923.279	12058.5
923.513	11872.5
923.747	11868.5
923.981	11774.5
924.215	11679.5
924.449	11619.5
924.683	11509.5
924.917	11540.5
925.151	11444.5
925.385	11436.5
925.618	11327.5
925.852	11364.5
926.086	11292.5
926.319	11295.5
926.553	11292.5
926.786	11256.5
927.02	11222.5
927.253	11310.5
927.486	11176.5
927.72	11059.5
927.953	11131.5
928.186	11070.5
928.42	11045.5
928.653	10950.5
928.886	10890.5
929.119	10879.5
929.352	10857.5
929.585	10757.5
929.818	10638.5
930.051	10611.5
930.284	10594.5
930.516	10353.5
930.749	10298.5
930.982	10280.5
931.215	10225.5
931.447	10191.5
931.68	10155.5
931.912	10030.5
932.145	10036.5
932.377	10111.5
932.61	10200.5
932.842	9945.5
933.074	10047.5
933.307	9999.5
933.539	10037.5
933.771	10026.5
934.003	9964.5
934.236	10043.5
934.468	10060.5
934.7	9933.5
934.932	9927.5
935.164	9809.5
935.395	9744.5
935.627	9820.5
935.859	9821.5
936.091	9711.5
936.323	9686.5
936.554	9719.5
936.786	9623.5
937.017	9568.5
937.249	9573.5
937.481	9456.5
937.712	9530.5
937.943	9442.5
938.175	9366.5
938.406	9390.5
938.637	9458.5
938.869	9323.5
939.1	9322.5
939.331	9354.5
939.562	9302.5
939.793	9238.5
940.024	9234.5
940.255	9151.5
940.486	9066.5
940.717	9107.5
940.948	9077.5
941.179	8899.5
941.409	9005.5
941.64	8943.5
941.871	8876.5
942.102	8877.5
942.332	8886.5
942.563	8944.5
942.793	8855.5
943.024	8802.5
943.254	8906.5
943.484	8871.5
943.715	8874.5
943.945	8824.5
944.175	8796.5
944.405	8734.5
944.636	8724.5
944.866	8729.5
945.096	8720.5
945.326	8628.5
945.556	8705.5
945.786	8675.5
946.016	8531.5
946.245	8404.5
946.475	8431.5
946.705	8427.5
946.935	8342.5
947.164	8338.5
947.394	8197.5
947.624	8173.5
947.853	8242.5
948.083	8157.5
948.312	8024.5
948.542	7994.5
948.771	7923.5
949	7959.5
949.23	8014.5
949.459	7933.5
949.688	8009.5
949.917	7997.5
950.146	7955.5
950.375	7945.5
950.604	7801.5
950.833	7932.5
951.062	7917.5
951.291	7812.5
951.52	7768.5
951.749	7739.5
951.978	7728.5
952.206	7679.5
952.435	7641.5
952.664	7657.5
952.892	7628.5
953.121	7647.5
953.349	7604.5
953.578	7591.5
953.806	7465.5
954.035	7410.5
954.263	7426.5
954.491	7282.5
954.719	7364.5
954.948	7244.5
955.176	7217.5
955.404	7191.5
955.632	7202.5
955.86	7152.5
956.088	7128.5
956.316	7049.5
956.544	7083.5
956.772	7032.5
956.999	6909.5
957.227	6955.5
957.455	6862.5
957.683	6860.5
957.91	6695.5
958.138	6766.5
958.365	6711.5
958.593	6723.5
958.82	6641.5
959.048	6737.5
959.275	6670.5
959.502	6616.5
959.73	6620.5
959.957	6608.5
960.184	6556.5
960.411	6495.5
960.638	6558.5
960.865	6536.5
961.092	6472.5
961.319	6402.5
961.546	6521.5
961.773	6482.5
962	6417.5
962.227	6486.5
962.454	6408.5
962.68	6431.5
962.907	6384.5
963.134	6274.5
963.36	6290.5
963.587	6303.5
963.813	6207.5
964.04	6138.5
964.266	6093.5
964.493	6109.5
964.719	6075.5
964.945	6076.5
965.171	5864.5
965.398	5993.5
965.624	5981.5
965.85	5869.5
966.076	5891.5
966.302	5906.5
966.528	5791.5
966.754	5823.5
966.98	5766.5
967.206	5816.5
967.431	5670.5
967.657	5717.5
967.883	5706.5
968.109	5661.5
968.334	5635.5
968.56	5599.5
968.785	5590.5
969.011	5543.5
969.236	5582.5
969.462	5522.5
969.687	5508.5
969.912	5526.5
970.138	5630.5
970.363	5438.5
970.588	5499.5
970.813	5394.5
971.038	5346.5
971.263	5367.5
971.488	5362.5
971.713	5352.5
971.938	5324.5
972.163	5196.5
972.388	5217.5
972.613	5190.5
972.838	5170.5
973.062	5136.5
973.287	5107.5
973.512	5050.5
973.736	5114.5
973.961	5036.5
974.185	4945.5
974.41	5038.5
974.634	4897.5
974.858	4923.5
975.083	4914.5
975.307	4912.5
975.531	4832.5
975.755	4762.5
975.98	4781.5
976.204	4742.5
976.428	4684.5
976.652	4650.5
976.876	4617.5
977.1	4650.5
977.324	4582.5
977.547	4641.5
977.771	4569.5
977.995	4582.5
978.219	4492.5
978.442	4613.5
978.666	4535.5
978.89	4533.5
979.113	4475.5
979.337	4463.5
979.56	4436.5
979.783	4477.5
980.007	4379.5
980.23	4408.5
980.453	4313.5
980.677	4359.5
980.9	4354.5
981.123	4224.5
981.346	4309.5
981.569	4310.5
981.792	4295.5
982.015	4210.5
982.238	4142.5
982.461	4194.5
982.684	4082.5
982.907	4082.5
983.129	4066.5
983.352	4087.5
983.575	4015.5
983.797	4059.5
984.02	4006.5
984.242	3977.5
984.465	3956.5
984.687	3971.5
984.91	3964.5
985.132	3969.5
985.354	3913.5
985.577	3905.5
985.799	3877.5
986.021	3807.5
986.243	3757.5
986.465	3809.5
986.687	3839.5
986.909	3830.5
987.131	3805.5
987.353	3723.5
987.575	3749.5
987.797	3765.5
988.019	3655.5
988.241	3670.5
988.462	3654.5
988.684	3724.5
988.906	3701.5
989.127	3687.5
989.349	3624.5
989.57	3632.5
989.792	3617.5
990.013	3641.5
990.234	3604.5
990.456	3644.5
990.677	3615.5
990.898	3520.5
991.119	3528.5
991.341	3577.5
991.562	3472.5
991.783	3490.5
992.004	3407.5
992.225	3409.5
992.446	3437.5
992.667	3320.5
992.887	3389.5
993.108	3253.5
993.329	3360.5
993.55	3348.5
993.77	3237.5
993.991	3195.5
994.212	3212.5
994.432	3235.5
994.653	3240.5
994.873	3187.5
995.093	3086.5
995.314	3097.5
995.534	3185.5
995.754	3166.5
995.975	3142.5
996.195	3058.5
996.415	3140.5
996.635	3138.5
996.855	3098.5
997.075	3050.5
997.295	3039.5
997.515	3030.5
997.735	3110.5
997.955	3060.5
998.174	3020.5
998.394	3066.5
998.614	3026.5
998.834	2963.5
999.053	3078.5
999.273	3011.5
999.492	3025.5
999.712	2968.5
999.931	2923.5
1000.151	2919.5
1000.37	2886.5
1000.589	2955.5
1000.809	2868.5
1001.028	2976.5
1001.247	2879.5
1001.466	2734.5
1001.685	2869.5
1001.904	2801.5
1002.123	2792.5
1002.342	2776.5
1002.561	2730.5
1002.78	2713.5
1002.999	2750.5
1003.218	2725.5
1003.436	2705.5
1003.655	2702.5
1003.874	2657.5
1004.092	2659.5
1004.311	2687.5
1004.53	2651.5
1004.748	2708.5
1004.966	2633.5
1005.185	2666.5
1005.403	2663.5
1005.622	2590.5
1005.84	2702.5
1006.058	2597.5
1006.276	2606.5
1006.494	3103.5
1006.712	2573.5
1006.931	2667.5
1007.149	2534.5
1007.367	2521.5
1007.584	2642.5
1007.802	2593.5
1008.02	2609.5
1008.238	2688.5
1008.456	2725.5
1008.673	2565.5
1008.891	2681.5
1009.109	2656.5
1009.326	2722.5
1009.544	2838.5
1009.761	2750.5
1009.979	2891.5
1010.196	2929.5
1010.413	3062.5
1010.631	3186.5
1010.848	3267.5
1011.065	3224.5
1011.282	3215.5
1011.5	3117.5
1011.717	3234.5
1011.934	3139.5
1012.151	3107.5
1012.368	3131.5
1012.585	3051.5
1012.801	3114.5
1013.018	3090.5
1013.235	3065.5
1013.452	3038.5
1013.669	3092.5
1013.885	3079.5
1014.102	3097.5
1014.318	3111.5
1014.535	3049.5
1014.751	3066.5
1014.968	3029.5
1015.184	3064.5
1015.401	2955.5
1015.617	2924.5
1015.833	2860.5
1016.049	2846.5
1016.266	2832.5
1016.482	2790.5
1016.698	2734.5
1016.914	2738.5
1017.13	2685.5
1017.346	2676.5
1017.562	2717.5
1017.778	2649.5
1017.993	2611.5
1018.209	2669.5
1018.425	2620.5
1018.641	2645.5
1018.856	2556.5
1019.072	2605.5
1019.288	2622.5
1019.503	2588.5
1019.719	2513.5
1019.934	2511.5
1020.149	2546.5
1020.365	2468.5
1020.58	2403.5
1020.795	2448.5
1021.011	2332.5
1021.226	2306.5
1021.441	2284.5
1021.656	2182.5
1021.871	2114.5
1022.086	2118.5
1022.301	2057.5
1022.516	2049.5
1022.731	2081.5
1022.946	1977.5
1023.16	1948.5
1023.375	1918.5
1023.59	1887.5
1023.804	1824.5
1024.019	1897.5
1024.234	1756.5
1024.448	1779.5
1024.663	1690.5
1024.877	1684.5
1025.092	1696.5
1025.306	1679.5
1025.52	1536.5
1025.734	1663.5
1025.949	1518.5
1026.163	1492.5
1026.377	1422.5
1026.591	1454.5
1026.805	1363.5
1027.019	1330.5
1027.233	1327.5
1027.447	1257.5
1027.661	1317.5
1027.875	1290.5
1028.088	1273.5
1028.302	1167.5
1028.516	1163.5
1028.73	1125.5
1028.943	1119.5
1029.157	1073.5
1029.37	984.5
1029.584	-3.5
1029.797	-4.5
1030.011	-2.5
1030.224	-1.5
