Data from QEP037381__152__14-51-35-842.txt Node

Date: Fri Dec 16 14:51:35 EST 2022
User: dcclab
Spectrometer: QEP03738
Trigger mode: 4
Integration Time (sec): 1.000000E1
Scans to average: 1
Electric dark correction enabled: true
Nonlinearity correction enabled: false
Boxcar width: 0
XAxis mode: Wavelengths
Number of Pixels in Spectrum: 1044
>>>>>Begin Spectral Data<<<<<
784.041	13.62
784.3	1.62
784.558	-1.38
784.817	-4.38
785.075	114038.62
785.334	19882.62
785.592	9269.62
785.851	6431.62
786.109	4872.62
786.368	3779.62
786.626	3026.62
786.884	2507.62
787.143	2115.62
787.401	1722.62
787.659	1553.62
787.917	1353.62
788.175	1234.62
788.433	1092.62
788.691	971.62
788.949	915.62
789.207	866.62
789.465	768.62
789.723	714.62
789.98	653.62
790.238	697.62
790.496	654.62
790.753	634.62
791.011	684.62
791.268	624.62
791.526	601.62
791.783	621.62
792.041	599.62
792.298	528.62
792.556	579.62
792.813	561.62
793.07	541.62
793.327	529.62
793.584	596.62
793.841	523.62
794.099	547.62
794.356	594.62
794.613	509.62
794.869	548.62
795.126	501.62
795.383	502.62
795.64	521.62
795.897	465.62
796.153	510.62
796.41	519.62
796.667	508.62
796.923	516.62
797.18	506.62
797.436	541.62
797.693	510.62
797.949	585.62
798.206	591.62
798.462	520.62
798.718	581.62
798.974	569.62
799.231	612.62
799.487	610.62
799.743	648.62
799.999	670.62
800.255	684.62
800.511	686.62
800.767	758.62
801.023	773.62
801.279	820.62
801.534	914.62
801.79	1007.62
802.046	1109.62
802.302	1375.62
802.557	1668.62
802.813	2175.62
803.068	2902.62
803.324	4055.62
803.579	5722.62
803.835	8090.62
804.09	11196.62
804.345	14821.62
804.601	18695.62
804.856	22561.62
805.111	26230.62
805.366	29034.62
805.621	30868.62
805.876	32385.62
806.131	33294.62
806.386	34078.62
806.641	34580.62
806.896	35151.62
807.151	35851.62
807.406	36334.62
807.661	37075.62
807.915	37642.62
808.17	38471.62
808.425	38772.62
808.679	39137.62
808.934	39563.62
809.188	39828.62
809.443	40335.62
809.697	40589.62
809.951	40872.62
810.206	41490.62
810.46	41908.62
810.714	42142.62
810.968	42615.62
811.223	42818.62
811.477	43188.62
811.731	43526.62
811.985	43801.62
812.239	44013.62
812.493	44262.62
812.747	44480.62
813	44789.62
813.254	44837.62
813.508	45121.62
813.762	45300.62
814.015	45446.62
814.269	45793.62
814.522	46214.62
814.776	46697.62
815.03	47377.62
815.283	47957.62
815.536	48896.62
815.79	49430.62
816.043	50175.62
816.296	50934.62
816.55	51383.62
816.803	51945.62
817.056	52525.62
817.309	53115.62
817.562	53467.62
817.815	54119.62
818.068	54445.62
818.321	55102.62
818.574	55816.62
818.827	56520.62
819.079	57155.62
819.332	57974.62
819.585	58647.62
819.838	59127.62
820.09	59696.62
820.343	60244.62
820.595	60520.62
820.848	60860.62
821.1	61336.62
821.353	61134.62
821.605	61065.62
821.857	61048.62
822.11	60985.62
822.362	60826.62
822.614	60743.62
822.866	60792.62
823.118	60648.62
823.37	60864.62
823.622	60865.62
823.874	61273.62
824.126	61344.62
824.378	61406.62
824.63	61667.62
824.882	61893.62
825.134	61537.62
825.385	61696.62
825.637	61753.62
825.888	61634.62
826.14	61325.62
826.392	61234.62
826.643	60934.62
826.895	60751.62
827.146	60568.62
827.397	60495.62
827.649	60527.62
827.9	60396.62
828.151	60449.62
828.402	60715.62
828.653	60852.62
828.905	60972.62
829.156	61073.62
829.407	61135.62
829.658	61035.62
829.909	61092.62
830.159	60947.62
830.41	60465.62
830.661	60236.62
830.912	59933.62
831.162	59589.62
831.413	59571.62
831.664	59516.62
831.914	59482.62
832.165	59342.62
832.415	59410.62
832.666	59566.62
832.916	59362.62
833.167	59449.62
833.417	59264.62
833.667	59079.62
833.917	59010.62
834.168	58803.62
834.418	58914.62
834.668	58550.62
834.918	58129.62
835.168	57970.62
835.418	57883.62
835.668	57612.62
835.918	57508.62
836.167	57432.62
836.417	57309.62
836.667	57351.62
836.917	57215.62
837.166	57001.62
837.416	57118.62
837.666	56940.62
837.915	56883.62
838.165	56883.62
838.414	56646.62
838.663	56609.62
838.913	56404.62
839.162	56265.62
839.411	56248.62
839.661	55914.62
839.91	55726.62
840.159	55479.62
840.408	55541.62
840.657	55520.62
840.906	55454.62
841.155	55484.62
841.404	55556.62
841.653	55440.62
841.902	55499.62
842.15	55698.62
842.399	55710.62
842.648	55479.62
842.897	55330.62
843.145	55220.62
843.394	54631.62
843.642	54316.62
843.891	54077.62
844.139	53919.62
844.388	53688.62
844.636	53475.62
844.884	53541.62
845.133	53396.62
845.381	53147.62
845.629	53141.62
845.877	53279.62
846.125	53070.62
846.373	53005.62
846.621	52825.62
846.869	52678.62
847.117	52407.62
847.365	52163.62
847.613	51749.62
847.861	51823.62
848.108	51744.62
848.356	51502.62
848.604	51247.62
848.851	51276.62
849.099	51455.62
849.346	51523.62
849.594	51737.62
849.841	51753.62
850.089	51896.62
850.336	51952.62
850.583	51868.62
850.831	51620.62
851.078	51236.62
851.325	51022.62
851.572	51068.62
851.819	50542.62
852.066	49894.62
852.313	49426.62
852.56	49012.62
852.807	48800.62
853.054	48746.62
853.301	48528.62
853.548	48346.62
853.794	48718.62
854.041	49081.62
854.288	49172.62
854.534	49385.62
854.781	49395.62
855.028	49210.62
855.274	49133.62
855.52	48728.62
855.767	48486.62
856.013	48486.62
856.26	48673.62
856.506	47875.62
856.752	47918.62
856.998	48023.62
857.244	48016.62
857.49	48317.62
857.736	48381.62
857.982	48350.62
858.228	48177.62
858.474	47872.62
858.72	47484.62
858.966	47248.62
859.212	46752.62
859.458	46405.62
859.703	46082.62
859.949	45437.62
860.195	45298.62
860.44	44882.62
860.686	44679.62
860.931	44635.62
861.177	44353.62
861.422	44367.62
861.667	44204.62
861.913	44237.62
862.158	44255.62
862.403	44349.62
862.648	44616.62
862.893	44428.62
863.138	44587.62
863.384	44253.62
863.629	44176.62
863.873	44220.62
864.118	44073.62
864.363	43785.62
864.608	43590.62
864.853	43532.62
865.098	43271.62
865.342	42992.62
865.587	42840.62
865.832	43000.62
866.076	42797.62
866.321	42655.62
866.565	42441.62
866.81	42213.62
867.054	42149.62
867.298	42120.62
867.543	41790.62
867.787	41811.62
868.031	41628.62
868.275	41478.62
868.519	41434.62
868.764	41308.62
869.008	41217.62
869.252	41231.62
869.496	41103.62
869.739	40719.62
869.983	40783.62
870.227	40633.62
870.471	40654.62
870.715	40692.62
870.958	40851.62
871.202	40859.62
871.446	40874.62
871.689	41005.62
871.933	40842.62
872.176	40931.62
872.42	40721.62
872.663	40783.62
872.906	40623.62
873.15	40392.62
873.393	40328.62
873.636	39924.62
873.879	39586.62
874.122	39204.62
874.366	38876.62
874.609	38578.62
874.852	38370.62
875.095	38171.62
875.337	38009.62
875.58	37715.62
875.823	37643.62
876.066	37573.62
876.309	37381.62
876.551	37088.62
876.794	36955.62
877.037	37083.62
877.279	36925.62
877.522	37031.62
877.764	36900.62
878.007	36872.62
878.249	36925.62
878.491	36769.62
878.734	36697.62
878.976	36539.62
879.218	36380.62
879.46	36263.62
879.702	36083.62
879.945	35697.62
880.187	35339.62
880.429	35312.62
880.671	35093.62
880.912	35066.62
881.154	34857.62
881.396	34623.62
881.638	34636.62
881.88	34675.62
882.121	34367.62
882.363	34492.62
882.605	34274.62
882.846	34217.62
883.088	34144.62
883.329	34183.62
883.571	34049.62
883.812	34110.62
884.053	34465.62
884.295	34858.62
884.536	34944.62
884.777	34743.62
885.018	34548.62
885.259	34402.62
885.5	34139.62
885.742	34518.62
885.982	34291.62
886.223	34083.62
886.464	33847.62
886.705	33639.62
886.946	33310.62
887.187	32933.62
887.428	32736.62
887.668	32371.62
887.909	32145.62
888.15	31713.62
888.39	31551.62
888.631	31435.62
888.871	31106.62
889.111	30914.62
889.352	30741.62
889.592	30526.62
889.833	30194.62
890.073	30168.62
890.313	30035.62
890.553	29723.62
890.793	29664.62
891.033	29460.62
891.273	29387.62
891.513	29200.62
891.753	29091.62
891.993	29104.62
892.233	29107.62
892.473	29244.62
892.713	29194.62
892.952	29113.62
893.192	29060.62
893.432	29032.62
893.671	29020.62
893.911	28941.62
894.15	28712.62
894.39	28547.62
894.629	28333.62
894.869	28245.62
895.108	28051.62
895.347	27919.62
895.587	27818.62
895.826	27752.62
896.065	27708.62
896.304	27639.62
896.543	27581.62
896.782	27428.62
897.021	27451.62
897.26	27168.62
897.499	27159.62
897.738	27069.62
897.977	26866.62
898.216	26695.62
898.454	26392.62
898.693	26273.62
898.932	26207.62
899.17	26090.62
899.409	25991.62
899.647	25930.62
899.886	25876.62
900.124	25794.62
900.363	25852.62
900.601	25833.62
900.839	25836.62
901.078	25797.62
901.316	25823.62
901.554	26001.62
901.792	25957.62
902.03	25861.62
902.268	25779.62
902.506	25880.62
902.744	25561.62
902.982	25398.62
903.22	25245.62
903.458	24951.62
903.695	24683.62
903.933	24350.62
904.171	24110.62
904.409	23755.62
904.646	23466.62
904.884	23237.62
905.121	22996.62
905.359	22730.62
905.596	22571.62
905.833	22192.62
906.071	22129.62
906.308	22229.62
906.545	22181.62
906.783	21937.62
907.02	21810.62
907.257	21875.62
907.494	21770.62
907.731	21728.62
907.968	21622.62
908.205	21534.62
908.442	21383.62
908.679	21207.62
908.915	20947.62
909.152	20936.62
909.389	20717.62
909.626	20619.62
909.862	20519.62
910.099	20260.62
910.335	20361.62
910.572	20205.62
910.808	20073.62
911.045	20025.62
911.281	19927.62
911.518	19917.62
911.754	19809.62
911.99	19716.62
912.226	19506.62
912.463	19383.62
912.699	19196.62
912.935	19019.62
913.171	18866.62
913.407	18629.62
913.643	18647.62
913.879	18472.62
914.114	18328.62
914.35	18059.62
914.586	18058.62
914.822	17766.62
915.057	17730.62
915.293	17460.62
915.529	17426.62
915.764	17458.62
916	17347.62
916.235	17341.62
916.471	17368.62
916.706	17155.62
916.941	17170.62
917.177	17096.62
917.412	17162.62
917.647	17054.62
917.882	17003.62
918.117	17018.62
918.352	16928.62
918.588	16909.62
918.823	16631.62
919.057	16552.62
919.292	16279.62
919.527	16238.62
919.762	16061.62
919.997	15879.62
920.232	15645.62
920.466	15605.62
920.701	15394.62
920.935	15346.62
921.17	15248.62
921.405	15281.62
921.639	15193.62
921.873	15089.62
922.108	14940.62
922.342	14987.62
922.576	14860.62
922.811	14822.62
923.045	14819.62
923.279	14719.62
923.513	14489.62
923.747	14541.62
923.981	14382.62
924.215	14380.62
924.449	14256.62
924.683	14132.62
924.917	14072.62
925.151	14005.62
925.385	13957.62
925.618	13848.62
925.852	13877.62
926.086	13741.62
926.319	13749.62
926.553	13775.62
926.786	13704.62
927.02	13707.62
927.253	13774.62
927.486	13760.62
927.72	13575.62
927.953	13570.62
928.186	13546.62
928.42	13521.62
928.653	13378.62
928.886	13260.62
929.119	13376.62
929.352	13209.62
929.585	13048.62
929.818	12962.62
930.051	12899.62
930.284	12858.62
930.516	12627.62
930.749	12611.62
930.982	12502.62
931.215	12529.62
931.447	12392.62
931.68	12338.62
931.912	12301.62
932.145	12239.62
932.377	12223.62
932.61	12422.62
932.842	12207.62
933.074	12214.62
933.307	12129.62
933.539	12186.62
933.771	12168.62
934.003	12116.62
934.236	12313.62
934.468	12226.62
934.7	12157.62
934.932	12128.62
935.164	12003.62
935.395	12010.62
935.627	11931.62
935.859	11891.62
936.091	11857.62
936.323	11809.62
936.554	11786.62
936.786	11692.62
937.017	11630.62
937.249	11617.62
937.481	11488.62
937.712	11509.62
937.943	11510.62
938.175	11475.62
938.406	11378.62
938.637	11441.62
938.869	11394.62
939.1	11392.62
939.331	11228.62
939.562	11218.62
939.793	11203.62
940.024	11195.62
940.255	11080.62
940.486	11036.62
940.717	10969.62
940.948	11009.62
941.179	10896.62
941.409	10868.62
941.64	10846.62
941.871	10804.62
942.102	10748.62
942.332	10803.62
942.563	10795.62
942.793	10815.62
943.024	10695.62
943.254	10780.62
943.484	10807.62
943.715	10735.62
943.945	10708.62
944.175	10536.62
944.405	10560.62
944.636	10580.62
944.866	10568.62
945.096	10525.62
945.326	10463.62
945.556	10473.62
945.786	10462.62
946.016	10346.62
946.245	10272.62
946.475	10225.62
946.705	10102.62
946.935	10048.62
947.164	10005.62
947.394	9897.62
947.624	9925.62
947.853	9931.62
948.083	9806.62
948.312	9747.62
948.542	9718.62
948.771	9635.62
949	9635.62
949.23	9622.62
949.459	9611.62
949.688	9659.62
949.917	9548.62
950.146	9521.62
950.375	9537.62
950.604	9483.62
950.833	9556.62
951.062	9477.62
951.291	9460.62
951.52	9339.62
951.749	9348.62
951.978	9355.62
952.206	9263.62
952.435	9248.62
952.664	9201.62
952.892	9224.62
953.121	9128.62
953.349	9141.62
953.578	9153.62
953.806	8911.62
954.035	8936.62
954.263	8938.62
954.491	8875.62
954.719	8807.62
954.948	8784.62
955.176	8686.62
955.404	8622.62
955.632	8657.62
955.86	8614.62
956.088	8609.62
956.316	8557.62
956.544	8535.62
956.772	8367.62
956.999	8414.62
957.227	8400.62
957.455	8258.62
957.683	8263.62
957.91	8176.62
958.138	8151.62
958.365	8097.62
958.593	8062.62
958.82	7992.62
959.048	8004.62
959.275	7963.62
959.502	7930.62
959.73	7907.62
959.957	7898.62
960.184	7896.62
960.411	7760.62
960.638	7844.62
960.865	7789.62
961.092	7828.62
961.319	7750.62
961.546	7789.62
961.773	7807.62
962	7721.62
962.227	7749.62
962.454	7678.62
962.68	7669.62
962.907	7608.62
963.134	7550.62
963.36	7538.62
963.587	7481.62
963.813	7399.62
964.04	7353.62
964.266	7186.62
964.493	7319.62
964.719	7258.62
964.945	7259.62
965.171	7100.62
965.398	7124.62
965.624	7073.62
965.85	7033.62
966.076	6962.62
966.302	6993.62
966.528	6879.62
966.754	6978.62
966.98	6902.62
967.206	6887.62
967.431	6775.62
967.657	6821.62
967.883	6782.62
968.109	6780.62
968.334	6684.62
968.56	6665.62
968.785	6665.62
969.011	6530.62
969.236	6602.62
969.462	6610.62
969.687	6578.62
969.912	6607.62
970.138	6551.62
970.363	6487.62
970.588	6498.62
970.813	6426.62
971.038	6385.62
971.263	6373.62
971.488	6386.62
971.713	6348.62
971.938	6288.62
972.163	6222.62
972.388	6239.62
972.613	6214.62
972.838	6222.62
973.062	6151.62
973.287	6088.62
973.512	5989.62
973.736	6005.62
973.961	5986.62
974.185	5985.62
974.41	5923.62
974.634	5844.62
974.858	5881.62
975.083	5819.62
975.307	5814.62
975.531	5731.62
975.755	5689.62
975.98	5664.62
976.204	5570.62
976.428	5527.62
976.652	5479.62
976.876	5515.62
977.1	5519.62
977.324	5469.62
977.547	5443.62
977.771	5460.62
977.995	5443.62
978.219	5371.62
978.442	5462.62
978.666	5334.62
978.89	5310.62
979.113	5355.62
979.337	5243.62
979.56	5241.62
979.783	5368.62
980.007	5218.62
980.23	5190.62
980.453	5142.62
980.677	5125.62
980.9	5156.62
981.123	5017.62
981.346	5091.62
981.569	5007.62
981.792	5077.62
982.015	4992.62
982.238	4939.62
982.461	4946.62
982.684	4916.62
982.907	4861.62
983.129	4755.62
983.352	4843.62
983.575	4788.62
983.797	4729.62
984.02	4670.62
984.242	4659.62
984.465	4702.62
984.687	4716.62
984.91	4696.62
985.132	4667.62
985.354	4581.62
985.577	4579.62
985.799	4591.62
986.021	4463.62
986.243	4456.62
986.465	4465.62
986.687	4487.62
986.909	4508.62
987.131	4471.62
987.353	4385.62
987.575	4441.62
987.797	4319.62
988.019	4266.62
988.241	4303.62
988.462	4242.62
988.684	4296.62
988.906	4333.62
989.127	4349.62
989.349	4181.62
989.57	4218.62
989.792	4246.62
990.013	4224.62
990.234	4211.62
990.456	4191.62
990.677	4213.62
990.898	4099.62
991.119	4125.62
991.341	4176.62
991.562	4009.62
991.783	4072.62
992.004	3926.62
992.225	3909.62
992.446	3935.62
992.667	3882.62
992.887	3901.62
993.108	3825.62
993.329	3945.62
993.55	3858.62
993.77	3728.62
993.991	3737.62
994.212	3803.62
994.432	3729.62
994.653	3749.62
994.873	3714.62
995.093	3576.62
995.314	3618.62
995.534	3669.62
995.754	3672.62
995.975	3632.62
996.195	3561.62
996.415	3622.62
996.635	3520.62
996.855	3568.62
997.075	3528.62
997.295	3503.62
997.515	3531.62
997.735	3545.62
997.955	3522.62
998.174	3486.62
998.394	3447.62
998.614	3492.62
998.834	3375.62
999.053	3495.62
999.273	3441.62
999.492	3431.62
999.712	3376.62
999.931	3336.62
1000.151	3370.62
1000.37	3342.62
1000.589	3382.62
1000.809	3262.62
1001.028	3339.62
1001.247	3277.62
1001.466	3167.62
1001.685	3278.62
1001.904	3255.62
1002.123	3157.62
1002.342	3163.62
1002.561	3093.62
1002.78	3161.62
1002.999	3169.62
1003.218	3123.62
1003.436	3075.62
1003.655	3083.62
1003.874	3017.62
1004.092	3005.62
1004.311	3067.62
1004.53	3042.62
1004.748	3043.62
1004.966	2937.62
1005.185	3005.62
1005.403	3015.62
1005.622	2968.62
1005.84	3052.62
1006.058	2918.62
1006.276	2955.62
1006.494	3414.62
1006.712	2930.62
1006.931	2977.62
1007.149	2893.62
1007.367	2902.62
1007.584	2925.62
1007.802	2966.62
1008.02	2902.62
1008.238	3016.62
1008.456	2972.62
1008.673	2864.62
1008.891	2963.62
1009.109	2898.62
1009.326	3007.62
1009.544	3061.62
1009.761	3020.62
1009.979	3083.62
1010.196	3175.62
1010.413	3249.62
1010.631	3299.62
1010.848	3412.62
1011.065	3448.62
1011.282	3399.62
1011.5	3304.62
1011.717	3402.62
1011.934	3292.62
1012.151	3354.62
1012.368	3326.62
1012.585	3230.62
1012.801	3285.62
1013.018	3252.62
1013.235	3219.62
1013.452	3203.62
1013.669	3262.62
1013.885	3220.62
1014.102	3297.62
1014.318	3233.62
1014.535	3212.62
1014.751	3196.62
1014.968	3203.62
1015.184	3182.62
1015.401	3103.62
1015.617	3087.62
1015.833	3004.62
1016.049	3000.62
1016.266	2977.62
1016.482	2979.62
1016.698	2909.62
1016.914	2910.62
1017.13	2859.62
1017.346	2801.62
1017.562	2886.62
1017.778	2792.62
1017.993	2749.62
1018.209	2796.62
1018.425	2762.62
1018.641	2727.62
1018.856	2698.62
1019.072	2733.62
1019.288	2765.62
1019.503	2735.62
1019.719	2616.62
1019.934	2626.62
1020.149	2693.62
1020.365	2573.62
1020.58	2537.62
1020.795	2564.62
1021.011	2468.62
1021.226	2442.62
1021.441	2447.62
1021.656	2313.62
1021.871	2221.62
1022.086	2218.62
1022.301	2219.62
1022.516	2212.62
1022.731	2204.62
1022.946	2114.62
1023.16	2079.62
1023.375	2058.62
1023.59	2031.62
1023.804	1978.62
1024.019	2055.62
1024.234	1907.62
1024.448	1905.62
1024.663	1822.62
1024.877	1837.62
1025.092	1824.62
1025.306	1807.62
1025.52	1692.62
1025.734	1768.62
1025.949	1668.62
1026.163	1614.62
1026.377	1533.62
1026.591	1588.62
1026.805	1470.62
1027.019	1502.62
1027.233	1422.62
1027.447	1363.62
1027.661	1445.62
1027.875	1385.62
1028.088	1396.62
1028.302	1268.62
1028.516	1247.62
1028.73	1265.62
1028.943	1221.62
1029.157	1134.62
1029.37	1059.62
1029.584	-1.38
1029.797	-0.38
1030.011	-3.38
1030.224	-4.38
