Data from QEP037381__181__14-56-25-841.txt Node

Date: Fri Dec 16 14:56:25 EST 2022
User: dcclab
Spectrometer: QEP03738
Trigger mode: 4
Integration Time (sec): 1.000000E1
Scans to average: 1
Electric dark correction enabled: true
Nonlinearity correction enabled: false
Boxcar width: 0
XAxis mode: Wavelengths
Number of Pixels in Spectrum: 1044
>>>>>Begin Spectral Data<<<<<
784.041	13.38
784.3	-1.62
784.558	-1.62
784.817	-4.62
785.075	115911.38
785.334	20505.38
785.592	9682.38
785.851	6654.38
786.109	5032.38
786.368	3912.38
786.626	3139.38
786.884	2604.38
787.143	2188.38
787.401	1798.38
787.659	1650.38
787.917	1371.38
788.175	1250.38
788.433	1111.38
788.691	991.38
788.949	909.38
789.207	861.38
789.465	760.38
789.723	715.38
789.98	675.38
790.238	707.38
790.496	659.38
790.753	634.38
791.011	670.38
791.268	603.38
791.526	592.38
791.783	620.38
792.041	574.38
792.298	486.38
792.556	563.38
792.813	536.38
793.07	503.38
793.327	505.38
793.584	584.38
793.841	501.38
794.099	511.38
794.356	575.38
794.613	500.38
794.869	527.38
795.126	476.38
795.383	472.38
795.64	495.38
795.897	441.38
796.153	499.38
796.41	483.38
796.667	476.38
796.923	482.38
797.18	497.38
797.436	524.38
797.693	498.38
797.949	538.38
798.206	572.38
798.462	502.38
798.718	559.38
798.974	536.38
799.231	587.38
799.487	566.38
799.743	585.38
799.999	631.38
800.255	625.38
800.511	619.38
800.767	681.38
801.023	695.38
801.279	736.38
801.534	813.38
801.79	885.38
802.046	979.38
802.302	1205.38
802.557	1437.38
802.813	1882.38
803.068	2423.38
803.324	3426.38
803.579	4816.38
803.835	6700.38
804.09	9216.38
804.345	12278.38
804.601	15388.38
804.856	18599.38
805.111	21530.38
805.366	23768.38
805.621	25494.38
805.876	26595.38
806.131	27493.38
806.386	27917.38
806.641	28447.38
806.896	28821.38
807.151	29376.38
807.406	29829.38
807.661	30269.38
807.915	30784.38
808.17	31229.38
808.425	31511.38
808.679	31794.38
808.934	32262.38
809.188	32383.38
809.443	32872.38
809.697	33170.38
809.951	33417.38
810.206	33717.38
810.46	33960.38
810.714	34308.38
810.968	34728.38
811.223	34944.38
811.477	35217.38
811.731	35458.38
811.985	35743.38
812.239	35836.38
812.493	36070.38
812.747	36197.38
813	36336.38
813.254	36356.38
813.508	36574.38
813.762	36754.38
814.015	36766.38
814.269	37114.38
814.522	37476.38
814.776	37898.38
815.03	38271.38
815.283	38793.38
815.536	39467.38
815.79	40058.38
816.043	40517.38
816.296	41216.38
816.55	41505.38
816.803	42023.38
817.056	42477.38
817.309	42979.38
817.562	43169.38
817.815	43675.38
818.068	44085.38
818.321	44527.38
818.574	44889.38
818.827	45475.38
819.079	46108.38
819.332	46715.38
819.585	47231.38
819.838	47877.38
820.09	48176.38
820.343	48533.38
820.595	48679.38
820.848	48999.38
821.1	49404.38
821.353	49350.38
821.605	49310.38
821.857	49262.38
822.11	49226.38
822.362	48893.38
822.614	48966.38
822.866	48853.38
823.118	48783.38
823.37	49057.38
823.622	49121.38
823.874	49368.38
824.126	49474.38
824.378	49482.38
824.63	49627.38
824.882	49826.38
825.134	49671.38
825.385	49840.38
825.637	49514.38
825.888	49449.38
826.14	49288.38
826.392	49217.38
826.643	48925.38
826.895	49016.38
827.146	48745.38
827.397	48554.38
827.649	48596.38
827.9	48523.38
828.151	48613.38
828.402	48655.38
828.653	48943.38
828.905	48944.38
829.156	48986.38
829.407	48913.38
829.658	49061.38
829.909	49113.38
830.159	49076.38
830.41	48729.38
830.661	48435.38
830.912	48121.38
831.162	48003.38
831.413	47802.38
831.664	47841.38
831.914	47773.38
832.165	47786.38
832.415	47945.38
832.666	47762.38
832.916	47864.38
833.167	47820.38
833.417	47847.38
833.667	47531.38
833.917	47404.38
834.168	47481.38
834.418	47032.38
834.668	46951.38
834.918	46697.38
835.168	46556.38
835.418	46443.38
835.668	46276.38
835.918	46136.38
836.167	45996.38
836.417	46022.38
836.667	45953.38
836.917	45940.38
837.166	46034.38
837.416	45871.38
837.666	45863.38
837.915	45845.38
838.165	45730.38
838.414	45565.38
838.663	45399.38
838.913	45371.38
839.162	45255.38
839.411	45120.38
839.661	44777.38
839.91	44757.38
840.159	44770.38
840.408	44584.38
840.657	44617.38
840.906	44674.38
841.155	44771.38
841.404	44621.38
841.653	44735.38
841.902	44554.38
842.15	44732.38
842.399	44873.38
842.648	44761.38
842.897	44561.38
843.145	44391.38
843.394	44070.38
843.642	43805.38
843.891	43677.38
844.139	43521.38
844.388	43320.38
844.636	42989.38
844.884	42971.38
845.133	42833.38
845.381	42831.38
845.629	42801.38
845.877	42703.38
846.125	42749.38
846.373	42454.38
846.621	42379.38
846.869	42335.38
847.117	42151.38
847.365	41782.38
847.613	41679.38
847.861	41482.38
848.108	41345.38
848.356	41464.38
848.604	41182.38
848.851	41368.38
849.099	41326.38
849.346	41404.38
849.594	41589.38
849.841	41562.38
850.089	41607.38
850.336	41692.38
850.583	41717.38
850.831	41439.38
851.078	41282.38
851.325	41105.38
851.572	41019.38
851.819	40637.38
852.066	40209.38
852.313	39858.38
852.56	39331.38
852.807	39324.38
853.054	39105.38
853.301	39055.38
853.548	39012.38
853.794	39320.38
854.041	39497.38
854.288	39562.38
854.534	39799.38
854.781	39719.38
855.028	39603.38
855.274	39688.38
855.52	39417.38
855.767	39114.38
856.013	39326.38
856.26	39407.38
856.506	38814.38
856.752	38772.38
856.998	38928.38
857.244	38846.38
857.49	39033.38
857.736	38980.38
857.982	39169.38
858.228	38971.38
858.474	38719.38
858.72	38403.38
858.966	38089.38
859.212	37770.38
859.458	37349.38
859.703	36885.38
859.949	36670.38
860.195	36507.38
860.44	36297.38
860.686	36164.38
860.931	36261.38
861.177	35930.38
861.422	35742.38
861.667	35640.38
861.913	35647.38
862.158	35764.38
862.403	35858.38
862.648	35918.38
862.893	35968.38
863.138	35755.38
863.384	35587.38
863.629	35668.38
863.873	35663.38
864.118	35506.38
864.363	35284.38
864.608	35212.38
864.853	34982.38
865.098	34940.38
865.342	34720.38
865.587	34566.38
865.832	34627.38
866.076	34552.38
866.321	34346.38
866.565	34249.38
866.81	34081.38
867.054	33996.38
867.298	33898.38
867.543	33824.38
867.787	33804.38
868.031	33607.38
868.275	33568.38
868.519	33508.38
868.764	33475.38
869.008	33437.38
869.252	33282.38
869.496	33257.38
869.739	32989.38
869.983	33064.38
870.227	33009.38
870.471	32913.38
870.715	33039.38
870.958	33096.38
871.202	33149.38
871.446	33168.38
871.689	33187.38
871.933	33247.38
872.176	33188.38
872.42	33157.38
872.663	33137.38
872.906	32953.38
873.15	33036.38
873.393	32883.38
873.636	32708.38
873.879	32505.38
874.122	31985.38
874.366	31591.38
874.609	31374.38
874.852	31156.38
875.095	30944.38
875.337	30798.38
875.58	30691.38
875.823	30619.38
876.066	30578.38
876.309	30400.38
876.551	30172.38
876.794	30064.38
877.037	30049.38
877.279	29885.38
877.522	30007.38
877.764	30006.38
878.007	29944.38
878.249	29794.38
878.491	29789.38
878.734	29786.38
878.976	29790.38
879.218	29616.38
879.46	29377.38
879.702	29262.38
879.945	28946.38
880.187	28651.38
880.429	28560.38
880.671	28406.38
880.912	28371.38
881.154	28336.38
881.396	28041.38
881.638	28110.38
881.88	28081.38
882.121	27957.38
882.363	28021.38
882.605	27875.38
882.846	27832.38
883.088	27830.38
883.329	27760.38
883.571	27826.38
883.812	28024.38
884.053	28308.38
884.295	28774.38
884.536	28960.38
884.777	28817.38
885.018	28604.38
885.259	28497.38
885.5	28293.38
885.742	28471.38
885.982	28230.38
886.223	28026.38
886.464	27830.38
886.705	27669.38
886.946	27476.38
887.187	26890.38
887.428	26699.38
887.668	26429.38
887.909	26097.38
888.15	25852.38
888.39	25755.38
888.631	25412.38
888.871	25352.38
889.111	25061.38
889.352	24952.38
889.592	24787.38
889.833	24593.38
890.073	24397.38
890.313	24429.38
890.553	24135.38
890.793	24101.38
891.033	23857.38
891.273	23818.38
891.513	23653.38
891.753	23685.38
891.993	23638.38
892.233	23682.38
892.473	23804.38
892.713	23706.38
892.952	23700.38
893.192	23699.38
893.432	23718.38
893.671	23580.38
893.911	23526.38
894.15	23242.38
894.39	23222.38
894.629	22950.38
894.869	22960.38
895.108	22816.38
895.347	22629.38
895.587	22738.38
895.826	22621.38
896.065	22475.38
896.304	22431.38
896.543	22451.38
896.782	22441.38
897.021	22348.38
897.26	22275.38
897.499	22280.38
897.738	22116.38
897.977	21939.38
898.216	21818.38
898.454	21709.38
898.693	21453.38
898.932	21561.38
899.17	21349.38
899.409	21165.38
899.647	21256.38
899.886	21247.38
900.124	21250.38
900.363	21223.38
900.601	21188.38
900.839	21287.38
901.078	21310.38
901.316	21328.38
901.554	21374.38
901.792	21442.38
902.03	21331.38
902.268	21406.38
902.506	21340.38
902.744	21172.38
902.982	21101.38
903.22	20817.38
903.458	20589.38
903.695	20304.38
903.933	20040.38
904.171	19667.38
904.409	19473.38
904.646	19228.38
904.884	18925.38
905.121	18800.38
905.359	18636.38
905.596	18364.38
905.833	18301.38
906.071	18179.38
906.308	18251.38
906.545	17986.38
906.783	17995.38
907.02	17937.38
907.257	17889.38
907.494	17835.38
907.731	17775.38
907.968	17706.38
908.205	17531.38
908.442	17457.38
908.679	17350.38
908.915	17264.38
909.152	17089.38
909.389	16994.38
909.626	16808.38
909.862	16681.38
910.099	16675.38
910.335	16601.38
910.572	16483.38
910.808	16443.38
911.045	16397.38
911.281	16276.38
911.518	16250.38
911.754	16041.38
911.99	16135.38
912.226	15874.38
912.463	15877.38
912.699	15696.38
912.935	15481.38
913.171	15397.38
913.407	15278.38
913.643	15335.38
913.879	15097.38
914.114	14998.38
914.35	14817.38
914.586	14678.38
914.822	14595.38
915.057	14509.38
915.293	14302.38
915.529	14266.38
915.764	14349.38
916	14289.38
916.235	14227.38
916.471	14205.38
916.706	14053.38
916.941	14120.38
917.177	13977.38
917.412	14084.38
917.647	14114.38
917.882	13929.38
918.117	13982.38
918.352	13893.38
918.588	13882.38
918.823	13745.38
919.057	13595.38
919.292	13340.38
919.527	13359.38
919.762	13160.38
919.997	13104.38
920.232	12935.38
920.466	12867.38
920.701	12579.38
920.935	12625.38
921.17	12523.38
921.405	12465.38
921.639	12509.38
921.873	12400.38
922.108	12373.38
922.342	12313.38
922.576	12242.38
922.811	12217.38
923.045	12170.38
923.279	12144.38
923.513	11952.38
923.747	11985.38
923.981	11880.38
924.215	11782.38
924.449	11704.38
924.683	11665.38
924.917	11563.38
925.151	11529.38
925.385	11536.38
925.618	11503.38
925.852	11407.38
926.086	11314.38
926.319	11376.38
926.553	11305.38
926.786	11355.38
927.02	11308.38
927.253	11305.38
927.486	11325.38
927.72	11169.38
927.953	11222.38
928.186	11165.38
928.42	11202.38
928.653	11098.38
928.886	11041.38
929.119	10926.38
929.352	10976.38
929.585	10789.38
929.818	10746.38
930.051	10653.38
930.284	10589.38
930.516	10506.38
930.749	10437.38
930.982	10321.38
931.215	10298.38
931.447	10181.38
931.68	10203.38
931.912	10117.38
932.145	10157.38
932.377	10128.38
932.61	10263.38
932.842	10070.38
933.074	10146.38
933.307	10047.38
933.539	10151.38
933.771	10219.38
934.003	10053.38
934.236	10133.38
934.468	10139.38
934.7	10050.38
934.932	9988.38
935.164	9995.38
935.395	9886.38
935.627	9919.38
935.859	9926.38
936.091	9792.38
936.323	9852.38
936.554	9711.38
936.786	9692.38
937.017	9588.38
937.249	9592.38
937.481	9602.38
937.712	9553.38
937.943	9544.38
938.175	9533.38
938.406	9436.38
938.637	9499.38
938.869	9377.38
939.1	9432.38
939.331	9393.38
939.562	9377.38
939.793	9270.38
940.024	9331.38
940.255	9264.38
940.486	9183.38
940.717	9171.38
940.948	9065.38
941.179	8995.38
941.409	9001.38
941.64	9005.38
941.871	9025.38
942.102	8971.38
942.332	8968.38
942.563	8977.38
942.793	9011.38
943.024	8867.38
943.254	8938.38
943.484	8968.38
943.715	8932.38
943.945	8885.38
944.175	8870.38
944.405	8820.38
944.636	8852.38
944.866	8797.38
945.096	8861.38
945.326	8734.38
945.556	8754.38
945.786	8799.38
946.016	8669.38
946.245	8536.38
946.475	8488.38
946.705	8459.38
946.935	8449.38
947.164	8364.38
947.394	8258.38
947.624	8271.38
947.853	8281.38
948.083	8255.38
948.312	8202.38
948.542	8048.38
948.771	8027.38
949	8039.38
949.23	8052.38
949.459	8027.38
949.688	8115.38
949.917	7997.38
950.146	7982.38
950.375	8041.38
950.604	7911.38
950.833	8010.38
951.062	7942.38
951.291	7928.38
951.52	7840.38
951.749	7841.38
951.978	7761.38
952.206	7735.38
952.435	7677.38
952.664	7710.38
952.892	7717.38
953.121	7627.38
953.349	7637.38
953.578	7593.38
953.806	7489.38
954.035	7507.38
954.263	7491.38
954.491	7431.38
954.719	7359.38
954.948	7376.38
955.176	7276.38
955.404	7245.38
955.632	7245.38
955.86	7264.38
956.088	7146.38
956.316	7152.38
956.544	7179.38
956.772	7062.38
956.999	7075.38
957.227	7056.38
957.455	6860.38
957.683	6942.38
957.91	6907.38
958.138	6811.38
958.365	6749.38
958.593	6709.38
958.82	6716.38
959.048	6777.38
959.275	6680.38
959.502	6692.38
959.73	6613.38
959.957	6697.38
960.184	6599.38
960.411	6529.38
960.638	6596.38
960.865	6577.38
961.092	6573.38
961.319	6461.38
961.546	6620.38
961.773	6519.38
962	6417.38
962.227	6530.38
962.454	6436.38
962.68	6377.38
962.907	6398.38
963.134	6327.38
963.36	6296.38
963.587	6313.38
963.813	6161.38
964.04	6225.38
964.266	6137.38
964.493	6181.38
964.719	6119.38
964.945	6126.38
965.171	5999.38
965.398	5993.38
965.624	6002.38
965.85	5948.38
966.076	5887.38
966.302	5928.38
966.528	5838.38
966.754	5837.38
966.98	5791.38
967.206	5786.38
967.431	5659.38
967.657	5797.38
967.883	5788.38
968.109	5717.38
968.334	5633.38
968.56	5637.38
968.785	5661.38
969.011	5568.38
969.236	5602.38
969.462	5538.38
969.687	5558.38
969.912	5593.38
970.138	5563.38
970.363	5445.38
970.588	5490.38
970.813	5472.38
971.038	5369.38
971.263	5441.38
971.488	5420.38
971.713	5406.38
971.938	5381.38
972.163	5246.38
972.388	5241.38
972.613	5247.38
972.838	5232.38
973.062	5210.38
973.287	5155.38
973.512	5139.38
973.736	5088.38
973.961	5080.38
974.185	5034.38
974.41	5061.38
974.634	4905.38
974.858	4939.38
975.083	4906.38
975.307	4921.38
975.531	4828.38
975.755	4776.38
975.98	4802.38
976.204	4721.38
976.428	4742.38
976.652	4683.38
976.876	4631.38
977.1	4690.38
977.324	4618.38
977.547	4670.38
977.771	4689.38
977.995	4569.38
978.219	4522.38
978.442	4598.38
978.666	4592.38
978.89	4523.38
979.113	4525.38
979.337	4489.38
979.56	4453.38
979.783	4536.38
980.007	4397.38
980.23	4391.38
980.453	4376.38
980.677	4419.38
980.9	4340.38
981.123	4288.38
981.346	4322.38
981.569	4310.38
981.792	4325.38
982.015	4228.38
982.238	4221.38
982.461	4231.38
982.684	4189.38
982.907	4104.38
983.129	4074.38
983.352	4141.38
983.575	4106.38
983.797	4099.38
984.02	4026.38
984.242	4009.38
984.465	3999.38
984.687	4003.38
984.91	3997.38
985.132	3972.38
985.354	3953.38
985.577	3947.38
985.799	3897.38
986.021	3809.38
986.243	3833.38
986.465	3838.38
986.687	3849.38
986.909	3906.38
987.131	3826.38
987.353	3745.38
987.575	3787.38
987.797	3755.38
988.019	3669.38
988.241	3740.38
988.462	3648.38
988.684	3718.38
988.906	3766.38
989.127	3751.38
989.349	3614.38
989.57	3669.38
989.792	3671.38
990.013	3641.38
990.234	3647.38
990.456	3654.38
990.677	3665.38
990.898	3557.38
991.119	3546.38
991.341	3573.38
991.562	3468.38
991.783	3505.38
992.004	3417.38
992.225	3385.38
992.446	3410.38
992.667	3330.38
992.887	3364.38
993.108	3291.38
993.329	3440.38
993.55	3339.38
993.77	3283.38
993.991	3265.38
994.212	3271.38
994.432	3248.38
994.653	3240.38
994.873	3204.38
995.093	3100.38
995.314	3141.38
995.534	3195.38
995.754	3193.38
995.975	3207.38
996.195	3109.38
996.415	3141.38
996.635	3140.38
996.855	3135.38
997.075	3092.38
997.295	3055.38
997.515	3071.38
997.735	3117.38
997.955	3092.38
998.174	3056.38
998.394	3014.38
998.614	3053.38
998.834	2973.38
999.053	3056.38
999.273	3024.38
999.492	3058.38
999.712	2948.38
999.931	2931.38
1000.151	2973.38
1000.37	2921.38
1000.589	2977.38
1000.809	2894.38
1001.028	2955.38
1001.247	2908.38
1001.466	2777.38
1001.685	2899.38
1001.904	2880.38
1002.123	2802.38
1002.342	2807.38
1002.561	2759.38
1002.78	2762.38
1002.999	2806.38
1003.218	2728.38
1003.436	2674.38
1003.655	2757.38
1003.874	2685.38
1004.092	2661.38
1004.311	2682.38
1004.53	2651.38
1004.748	2693.38
1004.966	2648.38
1005.185	2701.38
1005.403	2692.38
1005.622	2642.38
1005.84	2709.38
1006.058	2601.38
1006.276	2611.38
1006.494	3071.38
1006.712	2596.38
1006.931	2704.38
1007.149	2578.38
1007.367	2615.38
1007.584	2596.38
1007.802	2653.38
1008.02	2620.38
1008.238	2692.38
1008.456	2707.38
1008.673	2580.38
1008.891	2698.38
1009.109	2682.38
1009.326	2760.38
1009.544	2841.38
1009.761	2810.38
1009.979	2877.38
1010.196	2980.38
1010.413	3131.38
1010.631	3192.38
1010.848	3291.38
1011.065	3338.38
1011.282	3235.38
1011.5	3185.38
1011.717	3283.38
1011.934	3178.38
1012.151	3237.38
1012.368	3206.38
1012.585	3105.38
1012.801	3225.38
1013.018	3158.38
1013.235	3110.38
1013.452	3137.38
1013.669	3137.38
1013.885	3153.38
1014.102	3173.38
1014.318	3150.38
1014.535	3094.38
1014.751	3106.38
1014.968	3123.38
1015.184	3118.38
1015.401	3008.38
1015.617	3024.38
1015.833	2962.38
1016.049	2952.38
1016.266	2878.38
1016.482	2879.38
1016.698	2749.38
1016.914	2827.38
1017.13	2772.38
1017.346	2734.38
1017.562	2765.38
1017.778	2717.38
1017.993	2668.38
1018.209	2713.38
1018.425	2668.38
1018.641	2658.38
1018.856	2615.38
1019.072	2652.38
1019.288	2660.38
1019.503	2626.38
1019.719	2534.38
1019.934	2520.38
1020.149	2598.38
1020.365	2531.38
1020.58	2433.38
1020.795	2442.38
1021.011	2391.38
1021.226	2321.38
1021.441	2338.38
1021.656	2199.38
1021.871	2143.38
1022.086	2099.38
1022.301	2114.38
1022.516	2067.38
1022.731	2116.38
1022.946	2023.38
1023.16	1967.38
1023.375	1947.38
1023.59	1929.38
1023.804	1873.38
1024.019	1939.38
1024.234	1777.38
1024.448	1794.38
1024.663	1715.38
1024.877	1717.38
1025.092	1729.38
1025.306	1742.38
1025.52	1593.38
1025.734	1677.38
1025.949	1518.38
1026.163	1538.38
1026.377	1435.38
1026.591	1472.38
1026.805	1378.38
1027.019	1366.38
1027.233	1330.38
1027.447	1263.38
1027.661	1363.38
1027.875	1297.38
1028.088	1300.38
1028.302	1207.38
1028.516	1186.38
1028.73	1121.38
1028.943	1128.38
1029.157	1065.38
1029.37	998.38
1029.584	-1.62
1029.797	-2.62
1030.011	0.38
1030.224	-1.62
