Data from QEP037381__177__14-55-45-841.txt Node

Date: Fri Dec 16 14:55:45 EST 2022
User: dcclab
Spectrometer: QEP03738
Trigger mode: 4
Integration Time (sec): 1.000000E1
Scans to average: 1
Electric dark correction enabled: true
Nonlinearity correction enabled: false
Boxcar width: 0
XAxis mode: Wavelengths
Number of Pixels in Spectrum: 1044
>>>>>Begin Spectral Data<<<<<
784.041	17.62
784.3	2.62
784.558	-5.38
784.817	-4.38
785.075	114813.62
785.334	20042.62
785.592	9440.62
785.851	6478.62
786.109	4923.62
786.368	3795.62
786.626	3052.62
786.884	2556.62
787.143	2131.62
787.401	1774.62
787.659	1574.62
787.917	1355.62
788.175	1244.62
788.433	1093.62
788.691	956.62
788.949	896.62
789.207	844.62
789.465	772.62
789.723	740.62
789.98	670.62
790.238	699.62
790.496	657.62
790.753	628.62
791.011	668.62
791.268	610.62
791.526	584.62
791.783	609.62
792.041	573.62
792.298	510.62
792.556	563.62
792.813	546.62
793.07	525.62
793.327	508.62
793.584	567.62
793.841	511.62
794.099	536.62
794.356	577.62
794.613	492.62
794.869	521.62
795.126	496.62
795.383	458.62
795.64	490.62
795.897	445.62
796.153	504.62
796.41	497.62
796.667	475.62
796.923	492.62
797.18	500.62
797.436	529.62
797.693	481.62
797.949	539.62
798.206	577.62
798.462	508.62
798.718	554.62
798.974	528.62
799.231	578.62
799.487	584.62
799.743	585.62
799.999	625.62
800.255	625.62
800.511	639.62
800.767	710.62
801.023	687.62
801.279	774.62
801.534	815.62
801.79	916.62
802.046	994.62
802.302	1211.62
802.557	1459.62
802.813	1890.62
803.068	2460.62
803.324	3465.62
803.579	4880.62
803.835	6743.62
804.09	9419.62
804.345	12310.62
804.601	15614.62
804.856	18926.62
805.111	21841.62
805.366	24075.62
805.621	25953.62
805.876	27062.62
806.131	27880.62
806.386	28570.62
806.641	29129.62
806.896	29600.62
807.151	30021.62
807.406	30456.62
807.661	31126.62
807.915	31659.62
808.17	32071.62
808.425	32407.62
808.679	32588.62
808.934	32964.62
809.188	33253.62
809.443	33590.62
809.697	33932.62
809.951	34266.62
810.206	34487.62
810.46	34900.62
810.714	35146.62
810.968	35432.62
811.223	35697.62
811.477	36008.62
811.731	36320.62
811.985	36562.62
812.239	36710.62
812.493	36983.62
812.747	37176.62
813	37201.62
813.254	37327.62
813.508	37582.62
813.762	37647.62
814.015	37792.62
814.269	38148.62
814.522	38412.62
814.776	38837.62
815.03	39335.62
815.283	39844.62
815.536	40614.62
815.79	41197.62
816.043	41765.62
816.296	42227.62
816.55	42744.62
816.803	43137.62
817.056	43808.62
817.309	44060.62
817.562	44554.62
817.815	44841.62
818.068	45341.62
818.321	45676.62
818.574	46259.62
818.827	46710.62
819.079	47350.62
819.332	48026.62
819.585	48734.62
819.838	49214.62
820.09	49573.62
820.343	50019.62
820.595	50164.62
820.848	50504.62
821.1	50784.62
821.353	50844.62
821.605	50680.62
821.857	50613.62
822.11	50471.62
822.362	50568.62
822.614	50399.62
822.866	50384.62
823.118	50406.62
823.37	50479.62
823.622	50634.62
823.874	50642.62
824.126	50789.62
824.378	51109.62
824.63	51069.62
824.882	51322.62
825.134	51224.62
825.385	51232.62
825.637	51209.62
825.888	50862.62
826.14	51017.62
826.392	50679.62
826.643	50368.62
826.895	50242.62
827.146	50132.62
827.397	49928.62
827.649	49953.62
827.9	49957.62
828.151	50009.62
828.402	50194.62
828.653	50413.62
828.905	50612.62
829.156	50535.62
829.407	50489.62
829.658	50675.62
829.909	50522.62
830.159	50531.62
830.41	50268.62
830.661	49755.62
830.912	49559.62
831.162	49448.62
831.413	49392.62
831.664	49442.62
831.914	49333.62
832.165	49197.62
832.415	49208.62
832.666	49253.62
832.916	49278.62
833.167	49228.62
833.417	49094.62
833.667	49150.62
833.917	48852.62
834.168	48843.62
834.418	48686.62
834.668	48458.62
834.918	48152.62
835.168	48049.62
835.418	48028.62
835.668	47687.62
835.918	47723.62
836.167	47543.62
836.417	47563.62
836.667	47257.62
836.917	47279.62
837.166	47268.62
837.416	47374.62
837.666	47283.62
837.915	47219.62
838.165	46995.62
838.414	46861.62
838.663	46820.62
838.913	46698.62
839.162	46568.62
839.411	46639.62
839.661	46276.62
839.91	46085.62
840.159	46204.62
840.408	46154.62
840.657	46047.62
840.906	46139.62
841.155	46079.62
841.404	46081.62
841.653	46215.62
841.902	46269.62
842.15	46150.62
842.399	46131.62
842.648	46113.62
842.897	45892.62
843.145	45693.62
843.394	45270.62
843.642	45143.62
843.891	44993.62
844.139	44875.62
844.388	44539.62
844.636	44207.62
844.884	44205.62
845.133	44297.62
845.381	44100.62
845.629	44189.62
845.877	44051.62
846.125	44015.62
846.373	43868.62
846.621	43814.62
846.869	43496.62
847.117	43380.62
847.365	43219.62
847.613	43033.62
847.861	42902.62
848.108	42784.62
848.356	42517.62
848.604	42515.62
848.851	42500.62
849.099	42659.62
849.346	42673.62
849.594	42904.62
849.841	42983.62
850.089	42944.62
850.336	43095.62
850.583	42917.62
850.831	42665.62
851.078	42460.62
851.325	42293.62
851.572	42445.62
851.819	41999.62
852.066	41532.62
852.313	40895.62
852.56	40862.62
852.807	40363.62
853.054	40459.62
853.301	40351.62
853.548	40289.62
853.794	40527.62
854.041	40658.62
854.288	40648.62
854.534	41082.62
854.781	41032.62
855.028	40876.62
855.274	40947.62
855.52	40583.62
855.767	40445.62
856.013	40497.62
856.26	40499.62
856.506	39823.62
856.752	40034.62
856.998	40008.62
857.244	39988.62
857.49	40146.62
857.736	40309.62
857.982	40207.62
858.228	40089.62
858.474	39896.62
858.72	39664.62
858.966	39292.62
859.212	38817.62
859.458	38560.62
859.703	38205.62
859.949	37843.62
860.195	37547.62
860.44	37446.62
860.686	37196.62
860.931	37293.62
861.177	37088.62
861.422	36893.62
861.667	36772.62
861.913	36816.62
862.158	36731.62
862.403	36920.62
862.648	36882.62
862.893	36979.62
863.138	36822.62
863.384	36790.62
863.629	36765.62
863.873	36704.62
864.118	36688.62
864.363	36486.62
864.608	36344.62
864.853	36036.62
865.098	35923.62
865.342	35955.62
865.587	35481.62
865.832	35778.62
866.076	35511.62
866.321	35385.62
866.565	35398.62
866.81	35254.62
867.054	34982.62
867.298	34962.62
867.543	34813.62
867.787	34810.62
868.031	34610.62
868.275	34693.62
868.519	34602.62
868.764	34521.62
869.008	34425.62
869.252	34310.62
869.496	34108.62
869.739	34060.62
869.983	34132.62
870.227	33972.62
870.471	33854.62
870.715	34116.62
870.958	34057.62
871.202	34176.62
871.446	34243.62
871.689	34309.62
871.933	34210.62
872.176	34250.62
872.42	34191.62
872.663	34136.62
872.906	33986.62
873.15	33876.62
873.393	33754.62
873.636	33706.62
873.879	33292.62
874.122	32945.62
874.366	32595.62
874.609	32376.62
874.852	32157.62
875.095	31891.62
875.337	31763.62
875.58	31615.62
875.823	31597.62
876.066	31483.62
876.309	31345.62
876.551	31077.62
876.794	31042.62
877.037	30918.62
877.279	30867.62
877.522	30739.62
877.764	31012.62
878.007	30916.62
878.249	30913.62
878.491	30677.62
878.734	30749.62
878.976	30558.62
879.218	30450.62
879.46	30274.62
879.702	30107.62
879.945	29902.62
880.187	29565.62
880.429	29448.62
880.671	29210.62
880.912	29167.62
881.154	29090.62
881.396	28918.62
881.638	28914.62
881.88	28846.62
882.121	28854.62
882.363	28821.62
882.605	28829.62
882.846	28817.62
883.088	28675.62
883.329	28608.62
883.571	28560.62
883.812	28739.62
884.053	29148.62
884.295	29622.62
884.536	29730.62
884.777	29471.62
885.018	29175.62
885.259	29076.62
885.5	29035.62
885.742	29256.62
885.982	29050.62
886.223	28751.62
886.464	28582.62
886.705	28492.62
886.946	28135.62
887.187	27809.62
887.428	27627.62
887.668	27208.62
887.909	26849.62
888.15	26529.62
888.39	26428.62
888.631	26347.62
888.871	26029.62
889.111	25851.62
889.352	25752.62
889.592	25431.62
889.833	25414.62
890.073	25172.62
890.313	25061.62
890.553	24881.62
890.793	24733.62
891.033	24731.62
891.273	24520.62
891.513	24596.62
891.753	24437.62
891.993	24248.62
892.233	24424.62
892.473	24538.62
892.713	24489.62
892.952	24407.62
893.192	24394.62
893.432	24399.62
893.671	24304.62
893.911	24212.62
894.15	24044.62
894.39	23843.62
894.629	23782.62
894.869	23697.62
895.108	23692.62
895.347	23397.62
895.587	23294.62
895.826	23219.62
896.065	23205.62
896.304	23233.62
896.543	23096.62
896.782	22911.62
897.021	22979.62
897.26	22916.62
897.499	22831.62
897.738	22821.62
897.977	22589.62
898.216	22390.62
898.454	22334.62
898.693	22105.62
898.932	22063.62
899.17	21938.62
899.409	21961.62
899.647	21743.62
899.886	21811.62
900.124	21781.62
900.363	21811.62
900.601	21766.62
900.839	21793.62
901.078	21891.62
901.316	21978.62
901.554	22023.62
901.792	22013.62
902.03	21932.62
902.268	21821.62
902.506	21907.62
902.744	21752.62
902.982	21663.62
903.22	21337.62
903.458	21160.62
903.695	20834.62
903.933	20679.62
904.171	20252.62
904.409	20041.62
904.646	19770.62
904.884	19532.62
905.121	19328.62
905.359	19253.62
905.596	19058.62
905.833	18767.62
906.071	18736.62
906.308	18684.62
906.545	18644.62
906.783	18528.62
907.02	18530.62
907.257	18420.62
907.494	18395.62
907.731	18364.62
907.968	18249.62
908.205	18108.62
908.442	18050.62
908.679	17917.62
908.915	17779.62
909.152	17714.62
909.389	17467.62
909.626	17453.62
909.862	17258.62
910.099	17206.62
910.335	17182.62
910.572	16954.62
910.808	17051.62
911.045	16959.62
911.281	16732.62
911.518	16760.62
911.754	16608.62
911.99	16555.62
912.226	16464.62
912.463	16313.62
912.699	16210.62
912.935	16054.62
913.171	16039.62
913.407	15762.62
913.643	15784.62
913.879	15649.62
914.114	15458.62
914.35	15378.62
914.586	15226.62
914.822	15047.62
915.057	14932.62
915.293	14780.62
915.529	14709.62
915.764	14848.62
916	14717.62
916.235	14643.62
916.471	14709.62
916.706	14545.62
916.941	14600.62
917.177	14496.62
917.412	14467.62
917.647	14402.62
917.882	14369.62
918.117	14475.62
918.352	14308.62
918.588	14297.62
918.823	14179.62
919.057	14001.62
919.292	13793.62
919.527	13849.62
919.762	13659.62
919.997	13505.62
920.232	13423.62
920.466	13306.62
920.701	13151.62
920.935	13021.62
921.17	12981.62
921.405	13044.62
921.639	12873.62
921.873	12822.62
922.108	12740.62
922.342	12756.62
922.576	12649.62
922.811	12611.62
923.045	12597.62
923.279	12548.62
923.513	12347.62
923.747	12360.62
923.981	12323.62
924.215	12183.62
924.449	12136.62
924.683	11939.62
924.917	11973.62
925.151	11869.62
925.385	11951.62
925.618	11901.62
925.852	11832.62
926.086	11648.62
926.319	11723.62
926.553	11790.62
926.786	11737.62
927.02	11658.62
927.253	11698.62
927.486	11682.62
927.72	11532.62
927.953	11646.62
928.186	11561.62
928.42	11543.62
928.653	11473.62
928.886	11318.62
929.119	11277.62
929.352	11284.62
929.585	11255.62
929.818	11094.62
930.051	11050.62
930.284	10937.62
930.516	10810.62
930.749	10712.62
930.982	10744.62
931.215	10679.62
931.447	10558.62
931.68	10603.62
931.912	10553.62
932.145	10485.62
932.377	10482.62
932.61	10622.62
932.842	10407.62
933.074	10427.62
933.307	10356.62
933.539	10544.62
933.771	10497.62
934.003	10414.62
934.236	10481.62
934.468	10469.62
934.7	10363.62
934.932	10326.62
935.164	10260.62
935.395	10257.62
935.627	10317.62
935.859	10143.62
936.091	10089.62
936.323	10122.62
936.554	10130.62
936.786	10052.62
937.017	9961.62
937.249	9991.62
937.481	9909.62
937.712	9945.62
937.943	9886.62
938.175	9831.62
938.406	9817.62
938.637	9899.62
938.869	9710.62
939.1	9731.62
939.331	9687.62
939.562	9696.62
939.793	9628.62
940.024	9641.62
940.255	9527.62
940.486	9448.62
940.717	9377.62
940.948	9390.62
941.179	9355.62
941.409	9335.62
941.64	9267.62
941.871	9346.62
942.102	9255.62
942.332	9263.62
942.563	9304.62
942.793	9297.62
943.024	9233.62
943.254	9253.62
943.484	9292.62
943.715	9205.62
943.945	9281.62
944.175	9109.62
944.405	9144.62
944.636	9162.62
944.866	9161.62
945.096	9102.62
945.326	9061.62
945.556	9040.62
945.786	8973.62
946.016	8937.62
946.245	8847.62
946.475	8805.62
946.705	8735.62
946.935	8668.62
947.164	8703.62
947.394	8556.62
947.624	8580.62
947.853	8577.62
948.083	8447.62
948.312	8458.62
948.542	8307.62
948.771	8273.62
949	8344.62
949.23	8334.62
949.459	8358.62
949.688	8346.62
949.917	8190.62
950.146	8240.62
950.375	8272.62
950.604	8207.62
950.833	8213.62
951.062	8245.62
951.291	8143.62
951.52	8130.62
951.749	8077.62
951.978	8067.62
952.206	8006.62
952.435	8025.62
952.664	8026.62
952.892	7909.62
953.121	7915.62
953.349	7878.62
953.578	7837.62
953.806	7820.62
954.035	7704.62
954.263	7744.62
954.491	7643.62
954.719	7654.62
954.948	7569.62
955.176	7561.62
955.404	7448.62
955.632	7487.62
955.86	7530.62
956.088	7436.62
956.316	7468.62
956.544	7383.62
956.772	7307.62
956.999	7233.62
957.227	7237.62
957.455	7173.62
957.683	7170.62
957.91	7054.62
958.138	7047.62
958.365	7068.62
958.593	6937.62
958.82	6913.62
959.048	6941.62
959.275	6921.62
959.502	6921.62
959.73	6878.62
959.957	6856.62
960.184	6900.62
960.411	6748.62
960.638	6834.62
960.865	6741.62
961.092	6779.62
961.319	6711.62
961.546	6728.62
961.773	6808.62
962	6706.62
962.227	6734.62
962.454	6709.62
962.68	6639.62
962.907	6638.62
963.134	6558.62
963.36	6546.62
963.587	6586.62
963.813	6430.62
964.04	6411.62
964.266	6301.62
964.493	6443.62
964.719	6411.62
964.945	6327.62
965.171	6162.62
965.398	6239.62
965.624	6210.62
965.85	6177.62
966.076	6090.62
966.302	6101.62
966.528	6058.62
966.754	6061.62
966.98	6044.62
967.206	5982.62
967.431	5896.62
967.657	6008.62
967.883	5937.62
968.109	5915.62
968.334	5885.62
968.56	5889.62
968.785	5827.62
969.011	5742.62
969.236	5823.62
969.462	5719.62
969.687	5839.62
969.912	5782.62
970.138	5724.62
970.363	5668.62
970.588	5692.62
970.813	5606.62
971.038	5610.62
971.263	5601.62
971.488	5604.62
971.713	5595.62
971.938	5562.62
972.163	5446.62
972.388	5448.62
972.613	5407.62
972.838	5393.62
973.062	5360.62
973.287	5327.62
973.512	5270.62
973.736	5293.62
973.961	5251.62
974.185	5244.62
974.41	5228.62
974.634	5131.62
974.858	5068.62
975.083	5127.62
975.307	5168.62
975.531	5037.62
975.755	4948.62
975.98	4924.62
976.204	4881.62
976.428	4860.62
976.652	4841.62
976.876	4823.62
977.1	4885.62
977.324	4745.62
977.547	4815.62
977.771	4824.62
977.995	4749.62
978.219	4689.62
978.442	4785.62
978.666	4743.62
978.89	4684.62
979.113	4680.62
979.337	4689.62
979.56	4609.62
979.783	4680.62
980.007	4557.62
980.23	4590.62
980.453	4545.62
980.677	4547.62
980.9	4460.62
981.123	4425.62
981.346	4514.62
981.569	4467.62
981.792	4451.62
982.015	4394.62
982.238	4373.62
982.461	4350.62
982.684	4273.62
982.907	4272.62
983.129	4189.62
983.352	4276.62
983.575	4227.62
983.797	4196.62
984.02	4190.62
984.242	4164.62
984.465	4153.62
984.687	4157.62
984.91	4127.62
985.132	4092.62
985.354	4103.62
985.577	4052.62
985.799	4041.62
986.021	3950.62
986.243	3960.62
986.465	3946.62
986.687	3966.62
986.909	3995.62
987.131	3941.62
987.353	3900.62
987.575	3915.62
987.797	3851.62
988.019	3804.62
988.241	3844.62
988.462	3795.62
988.684	3807.62
988.906	3835.62
989.127	3841.62
989.349	3741.62
989.57	3730.62
989.792	3763.62
990.013	3791.62
990.234	3727.62
990.456	3811.62
990.677	3772.62
990.898	3682.62
991.119	3658.62
991.341	3678.62
991.562	3616.62
991.783	3594.62
992.004	3530.62
992.225	3516.62
992.446	3543.62
992.667	3449.62
992.887	3499.62
993.108	3423.62
993.329	3493.62
993.55	3408.62
993.77	3373.62
993.991	3350.62
994.212	3361.62
994.432	3317.62
994.653	3393.62
994.873	3332.62
995.093	3175.62
995.314	3233.62
995.534	3266.62
995.754	3328.62
995.975	3309.62
996.195	3169.62
996.415	3259.62
996.635	3236.62
996.855	3174.62
997.075	3192.62
997.295	3193.62
997.515	3160.62
997.735	3196.62
997.955	3140.62
998.174	3130.62
998.394	3113.62
998.614	3170.62
998.834	3068.62
999.053	3169.62
999.273	3112.62
999.492	3146.62
999.712	3069.62
999.931	3026.62
1000.151	3066.62
1000.37	3030.62
1000.589	3052.62
1000.809	2903.62
1001.028	3017.62
1001.247	2975.62
1001.466	2895.62
1001.685	3021.62
1001.904	2910.62
1002.123	2858.62
1002.342	2854.62
1002.561	2791.62
1002.78	2846.62
1002.999	2864.62
1003.218	2807.62
1003.436	2772.62
1003.655	2814.62
1003.874	2752.62
1004.092	2753.62
1004.311	2790.62
1004.53	2724.62
1004.748	2795.62
1004.966	2727.62
1005.185	2744.62
1005.403	2739.62
1005.622	2672.62
1005.84	2766.62
1006.058	2652.62
1006.276	2705.62
1006.494	3143.62
1006.712	2683.62
1006.931	2705.62
1007.149	2628.62
1007.367	2667.62
1007.584	2692.62
1007.802	2715.62
1008.02	2691.62
1008.238	2742.62
1008.456	2779.62
1008.673	2624.62
1008.891	2720.62
1009.109	2724.62
1009.326	2769.62
1009.544	2868.62
1009.761	2806.62
1009.979	2894.62
1010.196	2959.62
1010.413	3092.62
1010.631	3200.62
1010.848	3242.62
1011.065	3253.62
1011.282	3205.62
1011.5	3154.62
1011.717	3252.62
1011.934	3184.62
1012.151	3182.62
1012.368	3153.62
1012.585	3087.62
1012.801	3115.62
1013.018	3123.62
1013.235	3054.62
1013.452	3092.62
1013.669	3123.62
1013.885	3085.62
1014.102	3156.62
1014.318	3113.62
1014.535	3058.62
1014.751	3075.62
1014.968	3058.62
1015.184	3072.62
1015.401	2958.62
1015.617	2977.62
1015.833	2916.62
1016.049	2897.62
1016.266	2856.62
1016.482	2837.62
1016.698	2748.62
1016.914	2781.62
1017.13	2722.62
1017.346	2713.62
1017.562	2742.62
1017.778	2663.62
1017.993	2624.62
1018.209	2639.62
1018.425	2657.62
1018.641	2614.62
1018.856	2601.62
1019.072	2618.62
1019.288	2644.62
1019.503	2616.62
1019.719	2522.62
1019.934	2494.62
1020.149	2577.62
1020.365	2500.62
1020.58	2434.62
1020.795	2455.62
1021.011	2348.62
1021.226	2358.62
1021.441	2310.62
1021.656	2218.62
1021.871	2130.62
1022.086	2144.62
1022.301	2076.62
1022.516	2052.62
1022.731	2084.62
1022.946	2036.62
1023.16	1962.62
1023.375	1917.62
1023.59	1889.62
1023.804	1827.62
1024.019	1930.62
1024.234	1763.62
1024.448	1835.62
1024.663	1705.62
1024.877	1707.62
1025.092	1698.62
1025.306	1714.62
1025.52	1579.62
1025.734	1655.62
1025.949	1550.62
1026.163	1526.62
1026.377	1435.62
1026.591	1476.62
1026.805	1406.62
1027.019	1384.62
1027.233	1347.62
1027.447	1269.62
1027.661	1368.62
1027.875	1313.62
1028.088	1270.62
1028.302	1194.62
1028.516	1142.62
1028.73	1176.62
1028.943	1138.62
1029.157	1060.62
1029.37	999.62
1029.584	-5.38
1029.797	-2.38
1030.011	-3.38
1030.224	0.62
