Data from QEP037381__172__14-54-55-841.txt Node

Date: Fri Dec 16 14:54:55 EST 2022
User: dcclab
Spectrometer: QEP03738
Trigger mode: 4
Integration Time (sec): 1.000000E1
Scans to average: 1
Electric dark correction enabled: true
Nonlinearity correction enabled: false
Boxcar width: 0
XAxis mode: Wavelengths
Number of Pixels in Spectrum: 1044
>>>>>Begin Spectral Data<<<<<
784.041	12.75
784.3	-0.25
784.558	-3.25
784.817	-3.25
785.075	109978.75
785.334	19216.75
785.592	9089.75
785.851	6260.75
786.109	4694.75
786.368	3707.75
786.626	2955.75
786.884	2479.75
787.143	2082.75
787.401	1725.75
787.659	1564.75
787.917	1322.75
788.175	1211.75
788.433	1036.75
788.691	952.75
788.949	895.75
789.207	848.75
789.465	755.75
789.723	707.75
789.98	664.75
790.238	690.75
790.496	666.75
790.753	621.75
791.011	673.75
791.268	604.75
791.526	589.75
791.783	604.75
792.041	581.75
792.298	499.75
792.556	576.75
792.813	552.75
793.07	533.75
793.327	513.75
793.584	583.75
793.841	510.75
794.099	534.75
794.356	584.75
794.613	497.75
794.869	518.75
795.126	490.75
795.383	485.75
795.64	492.75
795.897	463.75
796.153	519.75
796.41	513.75
796.667	506.75
796.923	498.75
797.18	508.75
797.436	533.75
797.693	505.75
797.949	558.75
798.206	588.75
798.462	502.75
798.718	583.75
798.974	537.75
799.231	612.75
799.487	582.75
799.743	615.75
799.999	651.75
800.255	662.75
800.511	664.75
800.767	742.75
801.023	719.75
801.279	793.75
801.534	874.75
801.79	974.75
802.046	1046.75
802.302	1326.75
802.557	1544.75
802.813	1992.75
803.068	2666.75
803.324	3757.75
803.579	5237.75
803.835	7404.75
804.09	10244.75
804.345	13467.75
804.601	17262.75
804.856	20717.75
805.111	24079.75
805.366	26717.75
805.621	28523.75
805.876	29872.75
806.131	30793.75
806.386	31532.75
806.641	32029.75
806.896	32581.75
807.151	33189.75
807.406	33771.75
807.661	34404.75
807.915	34848.75
808.17	35496.75
808.425	35771.75
808.679	36227.75
808.934	36644.75
809.188	36962.75
809.443	37281.75
809.697	37731.75
809.951	37953.75
810.206	38301.75
810.46	38691.75
810.714	39094.75
810.968	39321.75
811.223	39748.75
811.477	40007.75
811.731	40301.75
811.985	40693.75
812.239	40834.75
812.493	40936.75
812.747	41174.75
813	41321.75
813.254	41443.75
813.508	41707.75
813.762	41715.75
814.015	42069.75
814.269	42379.75
814.522	42637.75
814.776	43109.75
815.03	43695.75
815.283	44323.75
815.536	45079.75
815.79	45827.75
816.043	46383.75
816.296	47087.75
816.55	47759.75
816.803	48310.75
817.056	48718.75
817.309	49213.75
817.562	49517.75
817.815	50086.75
818.068	50616.75
818.321	50998.75
818.574	51649.75
818.827	52386.75
819.079	52909.75
819.332	53793.75
819.585	54279.75
819.838	55032.75
820.09	55275.75
820.343	55827.75
820.595	56153.75
820.848	56528.75
821.1	56683.75
821.353	56719.75
821.605	56688.75
821.857	56698.75
822.11	56291.75
822.362	56443.75
822.614	56254.75
822.866	56526.75
823.118	56349.75
823.37	56503.75
823.622	56592.75
823.874	56712.75
824.126	56958.75
824.378	56953.75
824.63	57192.75
824.882	57422.75
825.134	57312.75
825.385	57396.75
825.637	57333.75
825.888	57324.75
826.14	56977.75
826.392	56807.75
826.643	56695.75
826.895	56255.75
827.146	56133.75
827.397	56101.75
827.649	56228.75
827.9	56183.75
828.151	56169.75
828.402	56290.75
828.653	56456.75
828.905	56493.75
829.156	56692.75
829.407	56691.75
829.658	56632.75
829.909	56834.75
830.159	56746.75
830.41	56216.75
830.661	56118.75
830.912	55762.75
831.162	55451.75
831.413	55289.75
831.664	55351.75
831.914	55218.75
832.165	55323.75
832.415	55350.75
832.666	55290.75
832.916	55263.75
833.167	55260.75
833.417	55159.75
833.667	55147.75
833.917	54890.75
834.168	54815.75
834.418	54614.75
834.668	54366.75
834.918	54034.75
835.168	53995.75
835.418	53825.75
835.668	53654.75
835.918	53487.75
836.167	53496.75
836.417	53187.75
836.667	53168.75
836.917	53200.75
837.166	52998.75
837.416	53247.75
837.666	53150.75
837.915	53117.75
838.165	52870.75
838.414	52584.75
838.663	52631.75
838.913	52449.75
839.162	52319.75
839.411	52244.75
839.661	51986.75
839.91	52009.75
840.159	51866.75
840.408	51795.75
840.657	51787.75
840.906	51845.75
841.155	51724.75
841.404	51765.75
841.653	51756.75
841.902	51713.75
842.15	51966.75
842.399	51883.75
842.648	51694.75
842.897	51643.75
843.145	51246.75
843.394	51163.75
843.642	50716.75
843.891	50682.75
844.139	50357.75
844.388	49985.75
844.636	49614.75
844.884	49787.75
845.133	49750.75
845.381	49645.75
845.629	49489.75
845.877	49669.75
846.125	49585.75
846.373	49460.75
846.621	49330.75
846.869	49002.75
847.117	48695.75
847.365	48602.75
847.613	48459.75
847.861	48086.75
848.108	48147.75
848.356	47906.75
848.604	48000.75
848.851	47964.75
849.099	48045.75
849.346	47918.75
849.594	48291.75
849.841	48375.75
850.089	48399.75
850.336	48563.75
850.583	48475.75
850.831	48223.75
851.078	47892.75
851.325	47886.75
851.572	47645.75
851.819	47179.75
852.066	46674.75
852.313	46157.75
852.56	45843.75
852.807	45632.75
853.054	45414.75
853.301	45313.75
853.548	45424.75
853.794	45613.75
854.041	45658.75
854.288	45833.75
854.534	46342.75
854.781	46202.75
855.028	45972.75
855.274	45781.75
855.52	45718.75
855.767	45405.75
856.013	45387.75
856.26	45623.75
856.506	44986.75
856.752	44929.75
856.998	44921.75
857.244	45104.75
857.49	45228.75
857.736	45329.75
857.982	45246.75
858.228	45183.75
858.474	44860.75
858.72	44667.75
858.966	44232.75
859.212	43878.75
859.458	43511.75
859.703	43010.75
859.949	42600.75
860.195	42276.75
860.44	41966.75
860.686	41858.75
860.931	41809.75
861.177	41632.75
861.422	41398.75
861.667	41403.75
861.913	41377.75
862.158	41518.75
862.403	41558.75
862.648	41727.75
862.893	41632.75
863.138	41543.75
863.384	41503.75
863.629	41429.75
863.873	41479.75
864.118	41295.75
864.363	40921.75
864.608	40945.75
864.853	40702.75
865.098	40571.75
865.342	40537.75
865.587	40401.75
865.832	40217.75
866.076	40138.75
866.321	39848.75
866.565	39757.75
866.81	39624.75
867.054	39555.75
867.298	39343.75
867.543	39319.75
867.787	39312.75
868.031	39083.75
868.275	39031.75
868.519	39006.75
868.764	38930.75
869.008	38815.75
869.252	38696.75
869.496	38417.75
869.739	38410.75
869.983	38434.75
870.227	38314.75
870.471	38380.75
870.715	38333.75
870.958	38512.75
871.202	38472.75
871.446	38563.75
871.689	38561.75
871.933	38479.75
872.176	38581.75
872.42	38445.75
872.663	38306.75
872.906	38198.75
873.15	38105.75
873.393	37782.75
873.636	37760.75
873.879	37436.75
874.122	37060.75
874.366	36616.75
874.609	36318.75
874.852	36092.75
875.095	35994.75
875.337	35882.75
875.58	35493.75
875.823	35544.75
876.066	35577.75
876.309	35276.75
876.551	35020.75
876.794	35060.75
877.037	34865.75
877.279	34673.75
877.522	34785.75
877.764	34760.75
878.007	34822.75
878.249	34743.75
878.491	34680.75
878.734	34732.75
878.976	34542.75
879.218	34304.75
879.46	34188.75
879.702	33888.75
879.945	33635.75
880.187	33476.75
880.429	33130.75
880.671	32994.75
880.912	32919.75
881.154	32866.75
881.396	32763.75
881.638	32669.75
881.88	32661.75
882.121	32628.75
882.363	32454.75
882.605	32516.75
882.846	32259.75
883.088	32232.75
883.329	32142.75
883.571	32125.75
883.812	32334.75
884.053	32663.75
884.295	32906.75
884.536	33115.75
884.777	32855.75
885.018	32694.75
885.259	32569.75
885.5	32542.75
885.742	32712.75
885.982	32433.75
886.223	32294.75
886.464	32120.75
886.705	31792.75
886.946	31668.75
887.187	31240.75
887.428	31088.75
887.668	30707.75
887.909	30358.75
888.15	29892.75
888.39	29929.75
888.631	29606.75
888.871	29389.75
889.111	29339.75
889.352	29040.75
889.592	28909.75
889.833	28733.75
890.073	28497.75
890.313	28394.75
890.553	28041.75
890.793	28033.75
891.033	27796.75
891.273	27695.75
891.513	27478.75
891.753	27548.75
891.993	27553.75
892.233	27502.75
892.473	27630.75
892.713	27541.75
892.952	27586.75
893.192	27472.75
893.432	27483.75
893.671	27567.75
893.911	27310.75
894.15	27093.75
894.39	26930.75
894.629	26838.75
894.869	26649.75
895.108	26552.75
895.347	26464.75
895.587	26370.75
895.826	26225.75
896.065	26217.75
896.304	26167.75
896.543	26017.75
896.782	26059.75
897.021	25911.75
897.26	25761.75
897.499	25824.75
897.738	25664.75
897.977	25481.75
898.216	25302.75
898.454	25123.75
898.693	24877.75
898.932	24803.75
899.17	24680.75
899.409	24640.75
899.647	24532.75
899.886	24470.75
900.124	24587.75
900.363	24517.75
900.601	24478.75
900.839	24533.75
901.078	24520.75
901.316	24568.75
901.554	24624.75
901.792	24635.75
902.03	24706.75
902.268	24591.75
902.506	24541.75
902.744	24411.75
902.982	24242.75
903.22	23920.75
903.458	23670.75
903.695	23554.75
903.933	23202.75
904.171	22769.75
904.409	22437.75
904.646	22283.75
904.884	21922.75
905.121	21824.75
905.359	21591.75
905.596	21316.75
905.833	21228.75
906.071	21063.75
906.308	21080.75
906.545	20998.75
906.783	20886.75
907.02	20771.75
907.257	20783.75
907.494	20730.75
907.731	20612.75
907.968	20497.75
908.205	20497.75
908.442	20268.75
908.679	20169.75
908.915	20028.75
909.152	19877.75
909.389	19710.75
909.626	19551.75
909.862	19446.75
910.099	19341.75
910.335	19288.75
910.572	19174.75
910.808	19106.75
911.045	19097.75
911.281	18917.75
911.518	18936.75
911.754	18718.75
911.99	18692.75
912.226	18565.75
912.463	18406.75
912.699	18167.75
912.935	18127.75
913.171	18033.75
913.407	17721.75
913.643	17779.75
913.879	17577.75
914.114	17400.75
914.35	17167.75
914.586	17051.75
914.822	16910.75
915.057	16915.75
915.293	16706.75
915.529	16599.75
915.764	16644.75
916	16563.75
916.235	16493.75
916.471	16486.75
916.706	16254.75
916.941	16364.75
917.177	16316.75
917.412	16246.75
917.647	16233.75
917.882	16224.75
918.117	16115.75
918.352	16156.75
918.588	16032.75
918.823	15909.75
919.057	15822.75
919.292	15622.75
919.527	15461.75
919.762	15274.75
919.997	15231.75
920.232	15034.75
920.466	14996.75
920.701	14753.75
920.935	14659.75
921.17	14653.75
921.405	14418.75
921.639	14402.75
921.873	14393.75
922.108	14301.75
922.342	14327.75
922.576	14165.75
922.811	14073.75
923.045	14071.75
923.279	14079.75
923.513	13856.75
923.747	13875.75
923.981	13777.75
924.215	13638.75
924.449	13523.75
924.683	13495.75
924.917	13383.75
925.151	13415.75
925.385	13337.75
925.618	13279.75
925.852	13252.75
926.086	13135.75
926.319	13121.75
926.553	13155.75
926.786	13146.75
927.02	13125.75
927.253	13095.75
927.486	13014.75
927.72	12986.75
927.953	13025.75
928.186	12935.75
928.42	12875.75
928.653	12841.75
928.886	12717.75
929.119	12749.75
929.352	12559.75
929.585	12500.75
929.818	12470.75
930.051	12353.75
930.284	12228.75
930.516	12076.75
930.749	12043.75
930.982	11987.75
931.215	12009.75
931.447	11814.75
931.68	11838.75
931.912	11814.75
932.145	11786.75
932.377	11695.75
932.61	11899.75
932.842	11695.75
933.074	11720.75
933.307	11699.75
933.539	11742.75
933.771	11682.75
934.003	11564.75
934.236	11667.75
934.468	11702.75
934.7	11595.75
934.932	11600.75
935.164	11474.75
935.395	11441.75
935.627	11425.75
935.859	11400.75
936.091	11296.75
936.323	11310.75
936.554	11248.75
936.786	11171.75
937.017	11077.75
937.249	11071.75
937.481	10975.75
937.712	11046.75
937.943	11027.75
938.175	10961.75
938.406	10953.75
938.637	10983.75
938.869	10876.75
939.1	10889.75
939.331	10820.75
939.562	10798.75
939.793	10800.75
940.024	10638.75
940.255	10613.75
940.486	10572.75
940.717	10495.75
940.948	10488.75
941.179	10387.75
941.409	10437.75
941.64	10380.75
941.871	10469.75
942.102	10318.75
942.332	10321.75
942.563	10375.75
942.793	10354.75
943.024	10226.75
943.254	10340.75
943.484	10364.75
943.715	10320.75
943.945	10276.75
944.175	10217.75
944.405	10091.75
944.636	10147.75
944.866	10219.75
945.096	10164.75
945.326	10007.75
945.556	10070.75
945.786	10013.75
946.016	10082.75
946.245	9792.75
946.475	9772.75
946.705	9773.75
946.935	9657.75
947.164	9637.75
947.394	9499.75
947.624	9508.75
947.853	9575.75
948.083	9497.75
948.312	9369.75
948.542	9269.75
948.771	9268.75
949	9259.75
949.23	9230.75
949.459	9185.75
949.688	9278.75
949.917	9182.75
950.146	9224.75
950.375	9104.75
950.604	9059.75
950.833	9147.75
951.062	9073.75
951.291	9050.75
951.52	9082.75
951.749	9007.75
951.978	8925.75
952.206	8970.75
952.435	8906.75
952.664	8912.75
952.892	8840.75
953.121	8829.75
953.349	8799.75
953.578	8817.75
953.806	8712.75
954.035	8632.75
954.263	8614.75
954.491	8554.75
954.719	8495.75
954.948	8468.75
955.176	8408.75
955.404	8298.75
955.632	8324.75
955.86	8311.75
956.088	8233.75
956.316	8243.75
956.544	8247.75
956.772	8064.75
956.999	8088.75
957.227	8106.75
957.455	8024.75
957.683	7900.75
957.91	7852.75
958.138	7807.75
958.365	7805.75
958.593	7743.75
958.82	7692.75
959.048	7711.75
959.275	7644.75
959.502	7647.75
959.73	7656.75
959.957	7621.75
960.184	7580.75
960.411	7531.75
960.638	7564.75
960.865	7525.75
961.092	7549.75
961.319	7440.75
961.546	7511.75
961.773	7524.75
962	7478.75
962.227	7474.75
962.454	7418.75
962.68	7392.75
962.907	7398.75
963.134	7249.75
963.36	7269.75
963.587	7232.75
963.813	7137.75
964.04	7064.75
964.266	7047.75
964.493	7103.75
964.719	6998.75
964.945	7006.75
965.171	6860.75
965.398	6903.75
965.624	6837.75
965.85	6776.75
966.076	6683.75
966.302	6791.75
966.528	6665.75
966.754	6739.75
966.98	6722.75
967.206	6598.75
967.431	6622.75
967.657	6626.75
967.883	6583.75
968.109	6550.75
968.334	6488.75
968.56	6442.75
968.785	6482.75
969.011	6361.75
969.236	6352.75
969.462	6344.75
969.687	6378.75
969.912	6422.75
970.138	6359.75
970.363	6281.75
970.588	6308.75
970.813	6243.75
971.038	6151.75
971.263	6142.75
971.488	6158.75
971.713	6163.75
971.938	6067.75
972.163	5980.75
972.388	6093.75
972.613	5929.75
972.838	6031.75
973.062	5938.75
973.287	5965.75
973.512	5824.75
973.736	5871.75
973.961	5870.75
974.185	5732.75
974.41	5770.75
974.634	5684.75
974.858	5649.75
975.083	5646.75
975.307	5644.75
975.531	5539.75
975.755	5489.75
975.98	5430.75
976.204	5405.75
976.428	5365.75
976.652	5324.75
976.876	5334.75
977.1	5352.75
977.324	5266.75
977.547	5301.75
977.771	5316.75
977.995	5288.75
978.219	5178.75
978.442	5250.75
978.666	5188.75
978.89	5210.75
979.113	5156.75
979.337	5096.75
979.56	5047.75
979.783	5124.75
980.007	5047.75
980.23	5027.75
980.453	4999.75
980.677	5010.75
980.9	4973.75
981.123	4831.75
981.346	4976.75
981.569	4889.75
981.792	4859.75
982.015	4891.75
982.238	4782.75
982.461	4787.75
982.684	4745.75
982.907	4685.75
983.129	4618.75
983.352	4685.75
983.575	4628.75
983.797	4669.75
984.02	4564.75
984.242	4558.75
984.465	4510.75
984.687	4532.75
984.91	4520.75
985.132	4438.75
985.354	4470.75
985.577	4406.75
985.799	4387.75
986.021	4321.75
986.243	4349.75
986.465	4341.75
986.687	4368.75
986.909	4385.75
987.131	4317.75
987.353	4264.75
987.575	4267.75
987.797	4247.75
988.019	4150.75
988.241	4228.75
988.462	4152.75
988.684	4197.75
988.906	4198.75
989.127	4234.75
989.349	4096.75
989.57	4065.75
989.792	4139.75
990.013	4114.75
990.234	4133.75
990.456	4095.75
990.677	4111.75
990.898	3990.75
991.119	3993.75
991.341	4004.75
991.562	3932.75
991.783	3952.75
992.004	3847.75
992.225	3851.75
992.446	3873.75
992.667	3754.75
992.887	3834.75
993.108	3689.75
993.329	3806.75
993.55	3703.75
993.77	3657.75
993.991	3687.75
994.212	3669.75
994.432	3638.75
994.653	3622.75
994.873	3605.75
995.093	3495.75
995.314	3543.75
995.534	3558.75
995.754	3564.75
995.975	3588.75
996.195	3439.75
996.415	3506.75
996.635	3465.75
996.855	3511.75
997.075	3450.75
997.295	3429.75
997.515	3416.75
997.735	3491.75
997.955	3439.75
998.174	3438.75
998.394	3375.75
998.614	3408.75
998.834	3391.75
999.053	3397.75
999.273	3390.75
999.492	3363.75
999.712	3315.75
999.931	3259.75
1000.151	3313.75
1000.37	3242.75
1000.589	3293.75
1000.809	3208.75
1001.028	3279.75
1001.247	3191.75
1001.466	3077.75
1001.685	3205.75
1001.904	3143.75
1002.123	3119.75
1002.342	3049.75
1002.561	3061.75
1002.78	3060.75
1002.999	3085.75
1003.218	3017.75
1003.436	2973.75
1003.655	3034.75
1003.874	2921.75
1004.092	2952.75
1004.311	3016.75
1004.53	2968.75
1004.748	3000.75
1004.966	2916.75
1005.185	2937.75
1005.403	2925.75
1005.622	2882.75
1005.84	2965.75
1006.058	2892.75
1006.276	2887.75
1006.494	3336.75
1006.712	2845.75
1006.931	2868.75
1007.149	2778.75
1007.367	2846.75
1007.584	2839.75
1007.802	2897.75
1008.02	2830.75
1008.238	2934.75
1008.456	2938.75
1008.673	2828.75
1008.891	2937.75
1009.109	2877.75
1009.326	2942.75
1009.544	3017.75
1009.761	2967.75
1009.979	3105.75
1010.196	3152.75
1010.413	3260.75
1010.631	3322.75
1010.848	3398.75
1011.065	3393.75
1011.282	3354.75
1011.5	3280.75
1011.717	3369.75
1011.934	3269.75
1012.151	3319.75
1012.368	3279.75
1012.585	3169.75
1012.801	3229.75
1013.018	3224.75
1013.235	3184.75
1013.452	3173.75
1013.669	3194.75
1013.885	3245.75
1014.102	3242.75
1014.318	3216.75
1014.535	3153.75
1014.751	3166.75
1014.968	3160.75
1015.184	3175.75
1015.401	3070.75
1015.617	3065.75
1015.833	2979.75
1016.049	2989.75
1016.266	2948.75
1016.482	2938.75
1016.698	2839.75
1016.914	2912.75
1017.13	2806.75
1017.346	2822.75
1017.562	2867.75
1017.778	2750.75
1017.993	2726.75
1018.209	2794.75
1018.425	2801.75
1018.641	2686.75
1018.856	2689.75
1019.072	2717.75
1019.288	2718.75
1019.503	2674.75
1019.719	2604.75
1019.934	2607.75
1020.149	2711.75
1020.365	2572.75
1020.58	2540.75
1020.795	2546.75
1021.011	2446.75
1021.226	2399.75
1021.441	2426.75
1021.656	2313.75
1021.871	2248.75
1022.086	2239.75
1022.301	2192.75
1022.516	2203.75
1022.731	2202.75
1022.946	2101.75
1023.16	2102.75
1023.375	2033.75
1023.59	2023.75
1023.804	1943.75
1024.019	2022.75
1024.234	1897.75
1024.448	1917.75
1024.663	1796.75
1024.877	1798.75
1025.092	1827.75
1025.306	1770.75
1025.52	1677.75
1025.734	1753.75
1025.949	1661.75
1026.163	1592.75
1026.377	1557.75
1026.591	1560.75
1026.805	1473.75
1027.019	1453.75
1027.233	1431.75
1027.447	1363.75
1027.661	1449.75
1027.875	1364.75
1028.088	1357.75
1028.302	1261.75
1028.516	1257.75
1028.73	1232.75
1028.943	1195.75
1029.157	1127.75
1029.37	1057.75
1029.584	1.75
1029.797	-0.25
1030.011	-5.25
1030.224	-2.25
