Data from QEP037381__190__14-57-55-844.txt Node

Date: Fri Dec 16 14:57:55 EST 2022
User: dcclab
Spectrometer: QEP03738
Trigger mode: 4
Integration Time (sec): 1.000000E1
Scans to average: 1
Electric dark correction enabled: true
Nonlinearity correction enabled: false
Boxcar width: 0
XAxis mode: Wavelengths
Number of Pixels in Spectrum: 1044
>>>>>Begin Spectral Data<<<<<
784.041	9.62
784.3	-0.38
784.558	-3.38
784.817	-2.38
785.075	114961.62
785.334	19928.62
785.592	9338.62
785.851	6456.62
786.109	4851.62
786.368	3796.62
786.626	3067.62
786.884	2539.62
787.143	2112.62
787.401	1773.62
787.659	1580.62
787.917	1361.62
788.175	1238.62
788.433	1060.62
788.691	975.62
788.949	899.62
789.207	866.62
789.465	753.62
789.723	727.62
789.98	659.62
790.238	699.62
790.496	652.62
790.753	603.62
791.011	678.62
791.268	615.62
791.526	591.62
791.783	603.62
792.041	583.62
792.298	499.62
792.556	558.62
792.813	535.62
793.07	508.62
793.327	503.62
793.584	582.62
793.841	526.62
794.099	523.62
794.356	571.62
794.613	489.62
794.869	528.62
795.126	484.62
795.383	475.62
795.64	493.62
795.897	450.62
796.153	517.62
796.41	507.62
796.667	485.62
796.923	497.62
797.18	492.62
797.436	526.62
797.693	480.62
797.949	547.62
798.206	579.62
798.462	496.62
798.718	568.62
798.974	523.62
799.231	592.62
799.487	582.62
799.743	593.62
799.999	623.62
800.255	631.62
800.511	632.62
800.767	683.62
801.023	694.62
801.279	753.62
801.534	815.62
801.79	892.62
802.046	995.62
802.302	1211.62
802.557	1477.62
802.813	1850.62
803.068	2465.62
803.324	3485.62
803.579	4836.62
803.835	6766.62
804.09	9311.62
804.345	12310.62
804.601	15606.62
804.856	18845.62
805.111	21820.62
805.366	24145.62
805.621	25784.62
805.876	26984.62
806.131	27889.62
806.386	28397.62
806.641	28779.62
806.896	29350.62
807.151	29913.62
807.406	30430.62
807.661	30914.62
807.915	31417.62
808.17	31940.62
808.425	32231.62
808.679	32565.62
808.934	32871.62
809.188	33070.62
809.443	33558.62
809.697	33960.62
809.951	34209.62
810.206	34395.62
810.46	34806.62
810.714	35069.62
810.968	35336.62
811.223	35631.62
811.477	35905.62
811.731	36271.62
811.985	36417.62
812.239	36676.62
812.493	36886.62
812.747	36915.62
813	37065.62
813.254	37248.62
813.508	37503.62
813.762	37591.62
814.015	37787.62
814.269	38059.62
814.522	38361.62
814.776	38772.62
815.03	39268.62
815.283	39859.62
815.536	40409.62
815.79	41141.62
816.043	41774.62
816.296	42221.62
816.55	42702.62
816.803	43165.62
817.056	43675.62
817.309	44206.62
817.562	44439.62
817.815	44972.62
818.068	45398.62
818.321	45785.62
818.574	46351.62
818.827	46759.62
819.079	47370.62
819.332	48263.62
819.585	48689.62
819.838	49219.62
820.09	49705.62
820.343	50072.62
820.595	50386.62
820.848	50633.62
821.1	50722.62
821.353	50772.62
821.605	50896.62
821.857	50647.62
822.11	50588.62
822.362	50514.62
822.614	50345.62
822.866	50474.62
823.118	50494.62
823.37	50685.62
823.622	50707.62
823.874	50904.62
824.126	51018.62
824.378	51054.62
824.63	51136.62
824.882	51409.62
825.134	51407.62
825.385	51387.62
825.637	51380.62
825.888	51119.62
826.14	50883.62
826.392	50836.62
826.643	50743.62
826.895	50343.62
827.146	50212.62
827.397	50044.62
827.649	50256.62
827.9	50244.62
828.151	50149.62
828.402	50468.62
828.653	50529.62
828.905	50600.62
829.156	50656.62
829.407	50557.62
829.658	50703.62
829.909	50783.62
830.159	50641.62
830.41	50463.62
830.661	49919.62
830.912	49801.62
831.162	49751.62
831.413	49628.62
831.664	49556.62
831.914	49469.62
832.165	49503.62
832.415	49554.62
832.666	49518.62
832.916	49518.62
833.167	49285.62
833.417	49387.62
833.667	49301.62
833.917	49067.62
834.168	48883.62
834.418	48837.62
834.668	48644.62
834.918	48411.62
835.168	48228.62
835.418	48223.62
835.668	47939.62
835.918	47753.62
836.167	47659.62
836.417	47582.62
836.667	47569.62
836.917	47574.62
837.166	47385.62
837.416	47500.62
837.666	47305.62
837.915	47348.62
838.165	47360.62
838.414	47220.62
838.663	46939.62
838.913	46912.62
839.162	46967.62
839.411	46822.62
839.661	46506.62
839.91	46452.62
840.159	46236.62
840.408	46466.62
840.657	46406.62
840.906	46435.62
841.155	46396.62
841.404	46256.62
841.653	46285.62
841.902	46295.62
842.15	46304.62
842.399	46523.62
842.648	46335.62
842.897	46257.62
843.145	45947.62
843.394	45626.62
843.642	45403.62
843.891	45286.62
844.139	44942.62
844.388	44773.62
844.636	44487.62
844.884	44582.62
845.133	44512.62
845.381	44283.62
845.629	44299.62
845.877	44439.62
846.125	44286.62
846.373	44214.62
846.621	44040.62
846.869	44063.62
847.117	43545.62
847.365	43481.62
847.613	43147.62
847.861	42975.62
848.108	43100.62
848.356	42987.62
848.604	42800.62
848.851	42834.62
849.099	42866.62
849.346	42944.62
849.594	43267.62
849.841	43199.62
850.089	43232.62
850.336	43287.62
850.583	43293.62
850.831	43112.62
851.078	42840.62
851.325	42673.62
851.572	42535.62
851.819	42355.62
852.066	41589.62
852.313	41247.62
852.56	40947.62
852.807	40798.62
853.054	40725.62
853.301	40495.62
853.548	40569.62
853.794	40674.62
854.041	40882.62
854.288	41097.62
854.534	41349.62
854.781	41278.62
855.028	41064.62
855.274	41086.62
855.52	40763.62
855.767	40558.62
856.013	40656.62
856.26	40893.62
856.506	40127.62
856.752	40093.62
856.998	40304.62
857.244	40351.62
857.49	40335.62
857.736	40472.62
857.982	40619.62
858.228	40245.62
858.474	39981.62
858.72	39806.62
858.966	39435.62
859.212	39202.62
859.458	38792.62
859.703	38407.62
859.949	38124.62
860.195	37842.62
860.44	37609.62
860.686	37546.62
860.931	37454.62
861.177	37213.62
861.422	37043.62
861.667	36983.62
861.913	36957.62
862.158	37104.62
862.403	37060.62
862.648	37239.62
862.893	37208.62
863.138	37084.62
863.384	37079.62
863.629	37052.62
863.873	36950.62
864.118	36825.62
864.363	36682.62
864.608	36505.62
864.853	36502.62
865.098	36268.62
865.342	36045.62
865.587	35975.62
865.832	36015.62
866.076	35785.62
866.321	35657.62
866.565	35584.62
866.81	35319.62
867.054	35291.62
867.298	35157.62
867.543	35004.62
867.787	35100.62
868.031	34890.62
868.275	34835.62
868.519	34796.62
868.764	34684.62
869.008	34508.62
869.252	34559.62
869.496	34223.62
869.739	34327.62
869.983	34107.62
870.227	34173.62
870.471	34148.62
870.715	34313.62
870.958	34322.62
871.202	34459.62
871.446	34447.62
871.689	34478.62
871.933	34419.62
872.176	34385.62
872.42	34190.62
872.663	34291.62
872.906	34184.62
873.15	34007.62
873.393	33898.62
873.636	34015.62
873.879	33429.62
874.122	33199.62
874.366	32855.62
874.609	32540.62
874.852	32271.62
875.095	32195.62
875.337	32011.62
875.58	31796.62
875.823	31694.62
876.066	31654.62
876.309	31594.62
876.551	31244.62
876.794	31154.62
877.037	31167.62
877.279	31062.62
877.522	31062.62
877.764	30952.62
878.007	31064.62
878.249	31040.62
878.491	30821.62
878.734	30951.62
878.976	30768.62
879.218	30616.62
879.46	30438.62
879.702	30121.62
879.945	30044.62
880.187	29725.62
880.429	29638.62
880.671	29472.62
880.912	29381.62
881.154	29162.62
881.396	29088.62
881.638	29077.62
881.88	29126.62
882.121	29000.62
882.363	28947.62
882.605	28927.62
882.846	28803.62
883.088	28767.62
883.329	28651.62
883.571	28793.62
883.812	28893.62
884.053	29238.62
884.295	29592.62
884.536	29813.62
884.777	29556.62
885.018	29374.62
885.259	29306.62
885.5	29139.62
885.742	29476.62
885.982	28977.62
886.223	28832.62
886.464	28693.62
886.705	28463.62
886.946	28413.62
887.187	27851.62
887.428	27617.62
887.668	27296.62
887.909	27025.62
888.15	26734.62
888.39	26600.62
888.631	26534.62
888.871	26308.62
889.111	26002.62
889.352	25902.62
889.592	25677.62
889.833	25602.62
890.073	25385.62
890.313	25218.62
890.553	25019.62
890.793	24921.62
891.033	24707.62
891.273	24605.62
891.513	24674.62
891.753	24587.62
891.993	24437.62
892.233	24490.62
892.473	24561.62
892.713	24587.62
892.952	24430.62
893.192	24515.62
893.432	24479.62
893.671	24354.62
893.911	24264.62
894.15	24235.62
894.39	23997.62
894.629	23900.62
894.869	23698.62
895.108	23637.62
895.347	23471.62
895.587	23513.62
895.826	23322.62
896.065	23322.62
896.304	23260.62
896.543	23273.62
896.782	23042.62
897.021	23081.62
897.26	22990.62
897.499	23011.62
897.738	22910.62
897.977	22790.62
898.216	22495.62
898.454	22262.62
898.693	22190.62
898.932	22128.62
899.17	21981.62
899.409	21882.62
899.647	21874.62
899.886	21814.62
900.124	22018.62
900.363	21914.62
900.601	21862.62
900.839	21942.62
901.078	21939.62
901.316	21817.62
901.554	22063.62
901.792	22110.62
902.03	22002.62
902.268	21979.62
902.506	21973.62
902.744	21854.62
902.982	21648.62
903.22	21411.62
903.458	21201.62
903.695	20819.62
903.933	20682.62
904.171	20379.62
904.409	20083.62
904.646	19825.62
904.884	19633.62
905.121	19480.62
905.359	19197.62
905.596	18955.62
905.833	18864.62
906.071	18780.62
906.308	18709.62
906.545	18740.62
906.783	18560.62
907.02	18604.62
907.257	18489.62
907.494	18457.62
907.731	18414.62
907.968	18329.62
908.205	18198.62
908.442	18017.62
908.679	18019.62
908.915	17784.62
909.152	17812.62
909.389	17516.62
909.626	17424.62
909.862	17210.62
910.099	17227.62
910.335	17202.62
910.572	17067.62
910.808	17060.62
911.045	16983.62
911.281	16817.62
911.518	16836.62
911.754	16698.62
911.99	16633.62
912.226	16544.62
912.463	16359.62
912.699	16244.62
912.935	16165.62
913.171	16048.62
913.407	15840.62
913.643	15757.62
913.879	15586.62
914.114	15417.62
914.35	15345.62
914.586	15229.62
914.822	14968.62
915.057	15032.62
915.293	14807.62
915.529	14835.62
915.764	14780.62
916	14735.62
916.235	14668.62
916.471	14661.62
916.706	14574.62
916.941	14551.62
917.177	14539.62
917.412	14470.62
917.647	14477.62
917.882	14383.62
918.117	14377.62
918.352	14385.62
918.588	14303.62
918.823	14173.62
919.057	14040.62
919.292	13777.62
919.527	13849.62
919.762	13599.62
919.997	13544.62
920.232	13379.62
920.466	13347.62
920.701	13072.62
920.935	13134.62
921.17	12992.62
921.405	12837.62
921.639	12864.62
921.873	12810.62
922.108	12810.62
922.342	12825.62
922.576	12639.62
922.811	12639.62
923.045	12575.62
923.279	12565.62
923.513	12324.62
923.747	12400.62
923.981	12245.62
924.215	12169.62
924.449	12128.62
924.683	11958.62
924.917	11893.62
925.151	11976.62
925.385	11915.62
925.618	11872.62
925.852	11816.62
926.086	11686.62
926.319	11700.62
926.553	11678.62
926.786	11728.62
927.02	11653.62
927.253	11742.62
927.486	11663.62
927.72	11542.62
927.953	11619.62
928.186	11522.62
928.42	11541.62
928.653	11378.62
928.886	11391.62
929.119	11257.62
929.352	11274.62
929.585	11136.62
929.818	11086.62
930.051	11071.62
930.284	10890.62
930.516	10787.62
930.749	10740.62
930.982	10692.62
931.215	10644.62
931.447	10522.62
931.68	10443.62
931.912	10561.62
932.145	10492.62
932.377	10537.62
932.61	10592.62
932.842	10391.62
933.074	10477.62
933.307	10395.62
933.539	10436.62
933.771	10449.62
934.003	10428.62
934.236	10402.62
934.468	10444.62
934.7	10291.62
934.932	10325.62
935.164	10180.62
935.395	10222.62
935.627	10202.62
935.859	10160.62
936.091	10139.62
936.323	10072.62
936.554	10088.62
936.786	9956.62
937.017	9915.62
937.249	9900.62
937.481	9860.62
937.712	9870.62
937.943	9794.62
938.175	9815.62
938.406	9743.62
938.637	9848.62
938.869	9695.62
939.1	9736.62
939.331	9670.62
939.562	9668.62
939.793	9579.62
940.024	9605.62
940.255	9508.62
940.486	9450.62
940.717	9415.62
940.948	9387.62
941.179	9246.62
941.409	9393.62
941.64	9201.62
941.871	9334.62
942.102	9201.62
942.332	9215.62
942.563	9276.62
942.793	9255.62
943.024	9180.62
943.254	9192.62
943.484	9230.62
943.715	9233.62
943.945	9093.62
944.175	9180.62
944.405	9053.62
944.636	9069.62
944.866	9073.62
945.096	9101.62
945.326	8995.62
945.556	9042.62
945.786	8947.62
946.016	8893.62
946.245	8732.62
946.475	8755.62
946.705	8709.62
946.935	8657.62
947.164	8615.62
947.394	8560.62
947.624	8524.62
947.853	8485.62
948.083	8457.62
948.312	8385.62
948.542	8270.62
948.771	8350.62
949	8302.62
949.23	8291.62
949.459	8225.62
949.688	8267.62
949.917	8189.62
950.146	8183.62
950.375	8287.62
950.604	8160.62
950.833	8183.62
951.062	8192.62
951.291	8096.62
951.52	8016.62
951.749	8061.62
951.978	8022.62
952.206	7998.62
952.435	7947.62
952.664	7953.62
952.892	7989.62
953.121	7792.62
953.349	7907.62
953.578	7823.62
953.806	7832.62
954.035	7746.62
954.263	7687.62
954.491	7544.62
954.719	7627.62
954.948	7569.62
955.176	7568.62
955.404	7437.62
955.632	7430.62
955.86	7405.62
956.088	7354.62
956.316	7338.62
956.544	7314.62
956.772	7289.62
956.999	7204.62
957.227	7266.62
957.455	7156.62
957.683	7069.62
957.91	7011.62
958.138	7016.62
958.365	6953.62
958.593	6968.62
958.82	6849.62
959.048	6936.62
959.275	6793.62
959.502	6828.62
959.73	6813.62
959.957	6783.62
960.184	6797.62
960.411	6730.62
960.638	6784.62
960.865	6692.62
961.092	6759.62
961.319	6623.62
961.546	6748.62
961.773	6691.62
962	6684.62
962.227	6700.62
962.454	6630.62
962.68	6554.62
962.907	6579.62
963.134	6502.62
963.36	6504.62
963.587	6514.62
963.813	6356.62
964.04	6405.62
964.266	6293.62
964.493	6349.62
964.719	6284.62
964.945	6278.62
965.171	6120.62
965.398	6192.62
965.624	6169.62
965.85	6042.62
966.076	6027.62
966.302	6066.62
966.528	6020.62
966.754	6013.62
966.98	5973.62
967.206	5950.62
967.431	5893.62
967.657	5909.62
967.883	5928.62
968.109	5860.62
968.334	5815.62
968.56	5801.62
968.785	5771.62
969.011	5718.62
969.236	5743.62
969.462	5687.62
969.687	5691.62
969.912	5752.62
970.138	5753.62
970.363	5601.62
970.588	5612.62
970.813	5582.62
971.038	5534.62
971.263	5574.62
971.488	5551.62
971.713	5491.62
971.938	5526.62
972.163	5372.62
972.388	5401.62
972.613	5371.62
972.838	5327.62
973.062	5299.62
973.287	5284.62
973.512	5233.62
973.736	5245.62
973.961	5217.62
974.185	5164.62
974.41	5157.62
974.634	5053.62
974.858	5027.62
975.083	5078.62
975.307	5048.62
975.531	4993.62
975.755	4902.62
975.98	4899.62
976.204	4786.62
976.428	4825.62
976.652	4827.62
976.876	4772.62
977.1	4834.62
977.324	4729.62
977.547	4757.62
977.771	4778.62
977.995	4719.62
978.219	4689.62
978.442	4710.62
978.666	4680.62
978.89	4658.62
979.113	4613.62
979.337	4629.62
979.56	4552.62
979.783	4629.62
980.007	4509.62
980.23	4537.62
980.453	4492.62
980.677	4553.62
980.9	4447.62
981.123	4406.62
981.346	4439.62
981.569	4405.62
981.792	4461.62
982.015	4347.62
982.238	4265.62
982.461	4331.62
982.684	4260.62
982.907	4224.62
983.129	4163.62
983.352	4245.62
983.575	4200.62
983.797	4182.62
984.02	4122.62
984.242	4082.62
984.465	4059.62
984.687	4119.62
984.91	4127.62
985.132	4072.62
985.354	4045.62
985.577	4025.62
985.799	3976.62
986.021	3853.62
986.243	3923.62
986.465	3889.62
986.687	3933.62
986.909	3972.62
987.131	3870.62
987.353	3850.62
987.575	3857.62
987.797	3820.62
988.019	3757.62
988.241	3794.62
988.462	3731.62
988.684	3790.62
988.906	3838.62
989.127	3849.62
989.349	3715.62
989.57	3712.62
989.792	3738.62
990.013	3730.62
990.234	3762.62
990.456	3693.62
990.677	3701.62
990.898	3651.62
991.119	3604.62
991.341	3608.62
991.562	3592.62
991.783	3578.62
992.004	3522.62
992.225	3448.62
992.446	3510.62
992.667	3419.62
992.887	3459.62
993.108	3347.62
993.329	3450.62
993.55	3390.62
993.77	3309.62
993.991	3298.62
994.212	3345.62
994.432	3301.62
994.653	3296.62
994.873	3303.62
995.093	3178.62
995.314	3219.62
995.534	3245.62
995.754	3266.62
995.975	3246.62
996.195	3135.62
996.415	3169.62
996.635	3127.62
996.855	3186.62
997.075	3106.62
997.295	3109.62
997.515	3128.62
997.735	3145.62
997.955	3110.62
998.174	3102.62
998.394	3054.62
998.614	3086.62
998.834	3041.62
999.053	3117.62
999.273	3073.62
999.492	3107.62
999.712	3015.62
999.931	2943.62
1000.151	2974.62
1000.37	3015.62
1000.589	3019.62
1000.809	2889.62
1001.028	3010.62
1001.247	2943.62
1001.466	2826.62
1001.685	2948.62
1001.904	2891.62
1002.123	2849.62
1002.342	2851.62
1002.561	2767.62
1002.78	2806.62
1002.999	2833.62
1003.218	2772.62
1003.436	2754.62
1003.655	2760.62
1003.874	2699.62
1004.092	2709.62
1004.311	2711.62
1004.53	2691.62
1004.748	2736.62
1004.966	2670.62
1005.185	2718.62
1005.403	2701.62
1005.622	2678.62
1005.84	2738.62
1006.058	2631.62
1006.276	2644.62
1006.494	3130.62
1006.712	2621.62
1006.931	2686.62
1007.149	2592.62
1007.367	2594.62
1007.584	2649.62
1007.802	2692.62
1008.02	2598.62
1008.238	2705.62
1008.456	2719.62
1008.673	2580.62
1008.891	2723.62
1009.109	2679.62
1009.326	2766.62
1009.544	2868.62
1009.761	2775.62
1009.979	2913.62
1010.196	2932.62
1010.413	3083.62
1010.631	3152.62
1010.848	3236.62
1011.065	3237.62
1011.282	3163.62
1011.5	3098.62
1011.717	3221.62
1011.934	3086.62
1012.151	3146.62
1012.368	3113.62
1012.585	3067.62
1012.801	3071.62
1013.018	3018.62
1013.235	3021.62
1013.452	3035.62
1013.669	3059.62
1013.885	3045.62
1014.102	3112.62
1014.318	3077.62
1014.535	3022.62
1014.751	3043.62
1014.968	3027.62
1015.184	3010.62
1015.401	2923.62
1015.617	2931.62
1015.833	2857.62
1016.049	2850.62
1016.266	2790.62
1016.482	2820.62
1016.698	2706.62
1016.914	2725.62
1017.13	2657.62
1017.346	2608.62
1017.562	2706.62
1017.778	2642.62
1017.993	2631.62
1018.209	2625.62
1018.425	2613.62
1018.641	2579.62
1018.856	2539.62
1019.072	2568.62
1019.288	2595.62
1019.503	2566.62
1019.719	2497.62
1019.934	2451.62
1020.149	2556.62
1020.365	2495.62
1020.58	2374.62
1020.795	2430.62
1021.011	2344.62
1021.226	2272.62
1021.441	2281.62
1021.656	2193.62
1021.871	2109.62
1022.086	2089.62
1022.301	2076.62
1022.516	2045.62
1022.731	2085.62
1022.946	1980.62
1023.16	1949.62
1023.375	1901.62
1023.59	1880.62
1023.804	1828.62
1024.019	1911.62
1024.234	1734.62
1024.448	1773.62
1024.663	1699.62
1024.877	1672.62
1025.092	1711.62
1025.306	1671.62
1025.52	1580.62
1025.734	1636.62
1025.949	1542.62
1026.163	1510.62
1026.377	1406.62
1026.591	1453.62
1026.805	1385.62
1027.019	1355.62
1027.233	1314.62
1027.447	1255.62
1027.661	1348.62
1027.875	1283.62
1028.088	1300.62
1028.302	1206.62
1028.516	1178.62
1028.73	1125.62
1028.943	1134.62
1029.157	1049.62
1029.37	985.62
1029.584	-2.38
1029.797	-0.38
1030.011	1.62
1030.224	-2.38
