Data from QEP037381__154__14-51-55-839.txt Node

Date: Fri Dec 16 14:51:55 EST 2022
User: dcclab
Spectrometer: QEP03738
Trigger mode: 4
Integration Time (sec): 1.000000E1
Scans to average: 1
Electric dark correction enabled: true
Nonlinearity correction enabled: false
Boxcar width: 0
XAxis mode: Wavelengths
Number of Pixels in Spectrum: 1044
>>>>>Begin Spectral Data<<<<<
784.041	13.12
784.3	0.12
784.558	-0.88
784.817	2.12
785.075	118495.12
785.334	20364.12
785.592	9470.12
785.851	6648.12
786.109	4951.12
786.368	3847.12
786.626	3074.12
786.884	2537.12
787.143	2153.12
787.401	1801.12
787.659	1615.12
787.917	1370.12
788.175	1264.12
788.433	1100.12
788.691	1024.12
788.949	951.12
789.207	862.12
789.465	763.12
789.723	747.12
789.98	688.12
790.238	704.12
790.496	662.12
790.753	648.12
791.011	694.12
791.268	626.12
791.526	591.12
791.783	619.12
792.041	616.12
792.298	514.12
792.556	575.12
792.813	577.12
793.07	546.12
793.327	527.12
793.584	599.12
793.841	527.12
794.099	551.12
794.356	600.12
794.613	503.12
794.869	556.12
795.126	517.12
795.383	502.12
795.64	538.12
795.897	482.12
796.153	543.12
796.41	526.12
796.667	507.12
796.923	515.12
797.18	516.12
797.436	554.12
797.693	518.12
797.949	595.12
798.206	624.12
798.462	537.12
798.718	596.12
798.974	597.12
799.231	634.12
799.487	633.12
799.743	658.12
799.999	672.12
800.255	696.12
800.511	687.12
800.767	753.12
801.023	766.12
801.279	847.12
801.534	911.12
801.79	1039.12
802.046	1153.12
802.302	1415.12
802.557	1695.12
802.813	2223.12
803.068	2929.12
803.324	4160.12
803.579	5881.12
803.835	8247.12
804.09	11414.12
804.345	15197.12
804.601	19290.12
804.856	23436.12
805.111	27098.12
805.366	29927.12
805.621	32215.12
805.876	33716.12
806.131	34740.12
806.386	35457.12
806.641	36006.12
806.896	36639.12
807.151	37347.12
807.406	37980.12
807.661	38675.12
807.915	39264.12
808.17	39936.12
808.425	40415.12
808.679	40848.12
808.934	41141.12
809.188	41563.12
809.443	42087.12
809.697	42511.12
809.951	42773.12
810.206	43042.12
810.46	43569.12
810.714	43914.12
810.968	44440.12
811.223	44615.12
811.477	45042.12
811.731	45318.12
811.985	45784.12
812.239	45972.12
812.493	46285.12
812.747	46462.12
813	46545.12
813.254	46622.12
813.508	46903.12
813.762	47196.12
814.015	47317.12
814.269	47746.12
814.522	48210.12
814.776	48656.12
815.03	49367.12
815.283	50032.12
815.536	50787.12
815.79	51640.12
816.043	52393.12
816.296	52912.12
816.55	53679.12
816.803	54135.12
817.056	54888.12
817.309	55448.12
817.562	56029.12
817.815	56612.12
818.068	56837.12
818.321	57554.12
818.574	58255.12
818.827	58943.12
819.079	59572.12
819.332	60516.12
819.585	61193.12
819.838	61835.12
820.09	62289.12
820.343	62959.12
820.595	63189.12
820.848	63787.12
821.1	63944.12
821.353	63951.12
821.605	63882.12
821.857	63945.12
822.11	63689.12
822.362	63672.12
822.614	63555.12
822.866	63564.12
823.118	63597.12
823.37	63678.12
823.622	63689.12
823.874	63900.12
824.126	64162.12
824.378	64463.12
824.63	64662.12
824.882	64833.12
825.134	64658.12
825.385	64667.12
825.637	64679.12
825.888	64409.12
826.14	64354.12
826.392	64176.12
826.643	63703.12
826.895	63452.12
827.146	63384.12
827.397	63190.12
827.649	63415.12
827.9	63223.12
828.151	63242.12
828.402	63396.12
828.653	63672.12
828.905	63716.12
829.156	63877.12
829.407	63889.12
829.658	63695.12
829.909	63866.12
830.159	63761.12
830.41	63329.12
830.661	63152.12
830.912	62733.12
831.162	62471.12
831.413	62405.12
831.664	62294.12
831.914	62332.12
832.165	62321.12
832.415	62350.12
832.666	62378.12
832.916	62404.12
833.167	62331.12
833.417	62327.12
833.667	62175.12
833.917	61896.12
834.168	61617.12
834.418	61448.12
834.668	61216.12
834.918	60907.12
835.168	60784.12
835.418	60588.12
835.668	60472.12
835.918	60388.12
836.167	60167.12
836.417	60294.12
836.667	60075.12
836.917	59880.12
837.166	60009.12
837.416	59826.12
837.666	59716.12
837.915	59827.12
838.165	59593.12
838.414	59685.12
838.663	59178.12
838.913	59286.12
839.162	58922.12
839.411	58857.12
839.661	58573.12
839.91	58331.12
840.159	58379.12
840.408	58193.12
840.657	58422.12
840.906	58280.12
841.155	58184.12
841.404	58017.12
841.653	58288.12
841.902	58289.12
842.15	58279.12
842.399	58287.12
842.648	58217.12
842.897	57966.12
843.145	57659.12
843.394	57455.12
843.642	57156.12
843.891	57013.12
844.139	56662.12
844.388	56402.12
844.636	56235.12
844.884	56085.12
845.133	56052.12
845.381	55956.12
845.629	55891.12
845.877	55772.12
846.125	55770.12
846.373	55600.12
846.621	55231.12
846.869	55244.12
847.117	54912.12
847.365	54687.12
847.613	54555.12
847.861	54157.12
848.108	54204.12
848.356	53960.12
848.604	53967.12
848.851	53850.12
849.099	53911.12
849.346	54202.12
849.594	54108.12
849.841	54453.12
850.089	54614.12
850.336	54718.12
850.583	54465.12
850.831	54266.12
851.078	53928.12
851.325	53754.12
851.572	53631.12
851.819	53081.12
852.066	52402.12
852.313	51686.12
852.56	51607.12
852.807	51195.12
853.054	51071.12
853.301	51103.12
853.548	51118.12
853.794	51191.12
854.041	51353.12
854.288	51707.12
854.534	51864.12
854.781	51747.12
855.028	51815.12
855.274	51624.12
855.52	51393.12
855.767	51007.12
856.013	50936.12
856.26	51047.12
856.506	50447.12
856.752	50469.12
856.998	50455.12
857.244	50638.12
857.49	50858.12
857.736	50810.12
857.982	50824.12
858.228	50738.12
858.474	50346.12
858.72	50029.12
858.966	49557.12
859.212	49322.12
859.458	48632.12
859.703	48247.12
859.949	47743.12
860.195	47455.12
860.44	47145.12
860.686	47188.12
860.931	46942.12
861.177	46637.12
861.422	46594.12
861.667	46634.12
861.913	46498.12
862.158	46631.12
862.403	46727.12
862.648	46766.12
862.893	46796.12
863.138	46653.12
863.384	46762.12
863.629	46652.12
863.873	46547.12
864.118	46442.12
864.363	46285.12
864.608	46107.12
864.853	45627.12
865.098	45761.12
865.342	45523.12
865.587	45206.12
865.832	45100.12
866.076	45085.12
866.321	44745.12
866.565	44751.12
866.81	44570.12
867.054	44644.12
867.298	44360.12
867.543	44191.12
867.787	43859.12
868.031	43869.12
868.275	43827.12
868.519	43839.12
868.764	43656.12
869.008	43461.12
869.252	43528.12
869.496	43273.12
869.739	42952.12
869.983	43056.12
870.227	42865.12
870.471	42753.12
870.715	42903.12
870.958	42915.12
871.202	43071.12
871.446	43150.12
871.689	43278.12
871.933	43122.12
872.176	43183.12
872.42	42862.12
872.663	42928.12
872.906	42840.12
873.15	42518.12
873.393	42220.12
873.636	42155.12
873.879	41685.12
874.122	41486.12
874.366	40883.12
874.609	40768.12
874.852	40499.12
875.095	40303.12
875.337	40079.12
875.58	39727.12
875.823	39836.12
876.066	39736.12
876.309	39480.12
876.551	39285.12
876.794	38930.12
877.037	39148.12
877.279	38909.12
877.522	38920.12
877.764	39015.12
878.007	38846.12
878.249	38846.12
878.491	38798.12
878.734	38811.12
878.976	38679.12
879.218	38436.12
879.46	38212.12
879.702	37998.12
879.945	37860.12
880.187	37515.12
880.429	37244.12
880.671	36992.12
880.912	36982.12
881.154	36715.12
881.396	36686.12
881.638	36672.12
881.88	36541.12
882.121	36463.12
882.363	36552.12
882.605	36314.12
882.846	36344.12
883.088	36200.12
883.329	35937.12
883.571	35769.12
883.812	35980.12
884.053	36288.12
884.295	36697.12
884.536	36804.12
884.777	36545.12
885.018	36437.12
885.259	36342.12
885.5	36140.12
885.742	36389.12
885.982	36055.12
886.223	35850.12
886.464	35712.12
886.705	35405.12
886.946	35212.12
887.187	34780.12
887.428	34616.12
887.668	34218.12
887.909	33816.12
888.15	33479.12
888.39	33418.12
888.631	33126.12
888.871	32894.12
889.111	32673.12
889.352	32437.12
889.592	32332.12
889.833	31957.12
890.073	31900.12
890.313	31686.12
890.553	31417.12
890.793	31353.12
891.033	31280.12
891.273	31059.12
891.513	30874.12
891.753	30831.12
891.993	30760.12
892.233	30709.12
892.473	30885.12
892.713	30816.12
892.952	30716.12
893.192	30788.12
893.432	30742.12
893.671	30788.12
893.911	30541.12
894.15	30507.12
894.39	30135.12
894.629	29963.12
894.869	29778.12
895.108	29690.12
895.347	29466.12
895.587	29357.12
895.826	29279.12
896.065	29158.12
896.304	29124.12
896.543	29070.12
896.782	28959.12
897.021	28883.12
897.26	28828.12
897.499	28733.12
897.738	28623.12
897.977	28447.12
898.216	28136.12
898.454	28024.12
898.693	27787.12
898.932	27700.12
899.17	27439.12
899.409	27416.12
899.647	27271.12
899.886	27327.12
900.124	27177.12
900.363	27281.12
900.601	27296.12
900.839	27210.12
901.078	27271.12
901.316	27240.12
901.554	27331.12
901.792	27352.12
902.03	27204.12
902.268	27127.12
902.506	27183.12
902.744	26964.12
902.982	26965.12
903.22	26634.12
903.458	26257.12
903.695	26091.12
903.933	25685.12
904.171	25253.12
904.409	25061.12
904.646	24726.12
904.884	24393.12
905.121	24223.12
905.359	23939.12
905.596	23622.12
905.833	23702.12
906.071	23413.12
906.308	23400.12
906.545	23320.12
906.783	23214.12
907.02	23183.12
907.257	23054.12
907.494	22984.12
907.731	22959.12
907.968	22866.12
908.205	22646.12
908.442	22483.12
908.679	22350.12
908.915	22108.12
909.152	22042.12
909.389	21806.12
909.626	21696.12
909.862	21557.12
910.099	21566.12
910.335	21277.12
910.572	21219.12
910.808	21186.12
911.045	21107.12
911.281	20960.12
911.518	21107.12
911.754	20865.12
911.99	20766.12
912.226	20541.12
912.463	20444.12
912.699	20185.12
912.935	20155.12
913.171	19956.12
913.407	19734.12
913.643	19704.12
913.879	19519.12
914.114	19303.12
914.35	19148.12
914.586	18962.12
914.822	18697.12
915.057	18664.12
915.293	18404.12
915.529	18375.12
915.764	18446.12
916	18339.12
916.235	18319.12
916.471	18314.12
916.706	18092.12
916.941	18188.12
917.177	18070.12
917.412	18076.12
917.647	18090.12
917.882	17863.12
918.117	17885.12
918.352	17939.12
918.588	17788.12
918.823	17672.12
919.057	17479.12
919.292	17327.12
919.527	17207.12
919.762	16799.12
919.997	16858.12
920.232	16586.12
920.466	16489.12
920.701	16325.12
920.935	16320.12
921.17	16089.12
921.405	15976.12
921.639	16053.12
921.873	15890.12
922.108	15811.12
922.342	15768.12
922.576	15747.12
922.811	15611.12
923.045	15661.12
923.279	15451.12
923.513	15310.12
923.747	15298.12
923.981	15244.12
924.215	15081.12
924.449	15016.12
924.683	14815.12
924.917	14797.12
925.151	14743.12
925.385	14755.12
925.618	14666.12
925.852	14667.12
926.086	14509.12
926.319	14581.12
926.553	14548.12
926.786	14549.12
927.02	14504.12
927.253	14422.12
927.486	14416.12
927.72	14313.12
927.953	14338.12
928.186	14252.12
928.42	14255.12
928.653	14146.12
928.886	13992.12
929.119	13993.12
929.352	13899.12
929.585	13842.12
929.818	13683.12
930.051	13645.12
930.284	13516.12
930.516	13307.12
930.749	13309.12
930.982	13239.12
931.215	13108.12
931.447	13019.12
931.68	12968.12
931.912	12944.12
932.145	12907.12
932.377	12955.12
932.61	13068.12
932.842	12901.12
933.074	12971.12
933.307	12875.12
933.539	12925.12
933.771	12842.12
934.003	12781.12
934.236	12869.12
934.468	12835.12
934.7	12745.12
934.932	12813.12
935.164	12674.12
935.395	12591.12
935.627	12565.12
935.859	12502.12
936.091	12428.12
936.323	12500.12
936.554	12380.12
936.786	12296.12
937.017	12228.12
937.249	12294.12
937.481	12137.12
937.712	12117.12
937.943	12130.12
938.175	12140.12
938.406	11998.12
938.637	12018.12
938.869	12010.12
939.1	12026.12
939.331	11872.12
939.562	11893.12
939.793	11724.12
940.024	11744.12
940.255	11744.12
940.486	11615.12
940.717	11560.12
940.948	11512.12
941.179	11460.12
941.409	11391.12
941.64	11379.12
941.871	11453.12
942.102	11382.12
942.332	11358.12
942.563	11464.12
942.793	11444.12
943.024	11315.12
943.254	11310.12
943.484	11310.12
943.715	11353.12
943.945	11287.12
944.175	11190.12
944.405	11196.12
944.636	11192.12
944.866	11200.12
945.096	11171.12
945.326	11026.12
945.556	11060.12
945.786	11038.12
946.016	10932.12
946.245	10809.12
946.475	10801.12
946.705	10612.12
946.935	10652.12
947.164	10645.12
947.394	10497.12
947.624	10494.12
947.853	10463.12
948.083	10417.12
948.312	10306.12
948.542	10216.12
948.771	10173.12
949	10146.12
949.23	10169.12
949.459	10144.12
949.688	10193.12
949.917	10077.12
950.146	10159.12
950.375	10134.12
950.604	9993.12
950.833	10059.12
951.062	10078.12
951.291	10034.12
951.52	9902.12
951.749	9905.12
951.978	9765.12
952.206	9765.12
952.435	9764.12
952.664	9765.12
952.892	9745.12
953.121	9665.12
953.349	9622.12
953.578	9540.12
953.806	9568.12
954.035	9401.12
954.263	9497.12
954.491	9350.12
954.719	9311.12
954.948	9265.12
955.176	9146.12
955.404	9113.12
955.632	9155.12
955.86	9144.12
956.088	9012.12
956.316	9041.12
956.544	8963.12
956.772	8910.12
956.999	8852.12
957.227	8856.12
957.455	8675.12
957.683	8708.12
957.91	8621.12
958.138	8564.12
958.365	8545.12
958.593	8498.12
958.82	8395.12
959.048	8446.12
959.275	8395.12
959.502	8367.12
959.73	8341.12
959.957	8351.12
960.184	8336.12
960.411	8237.12
960.638	8255.12
960.865	8212.12
961.092	8250.12
961.319	8130.12
961.546	8169.12
961.773	8246.12
962	8125.12
962.227	8144.12
962.454	8124.12
962.68	8062.12
962.907	8062.12
963.134	7938.12
963.36	7847.12
963.587	7905.12
963.813	7790.12
964.04	7738.12
964.266	7690.12
964.493	7716.12
964.719	7660.12
964.945	7654.12
965.171	7472.12
965.398	7477.12
965.624	7521.12
965.85	7392.12
966.076	7324.12
966.302	7348.12
966.528	7319.12
966.754	7287.12
966.98	7230.12
967.206	7210.12
967.431	7161.12
967.657	7202.12
967.883	7143.12
968.109	7147.12
968.334	7040.12
968.56	7035.12
968.785	7043.12
969.011	7005.12
969.236	7049.12
969.462	6921.12
969.687	6921.12
969.912	6957.12
970.138	6904.12
970.363	6874.12
970.588	6740.12
970.813	6781.12
971.038	6728.12
971.263	6743.12
971.488	6725.12
971.713	6710.12
971.938	6725.12
972.163	6558.12
972.388	6469.12
972.613	6476.12
972.838	6467.12
973.062	6472.12
973.287	6475.12
973.512	6357.12
973.736	6390.12
973.961	6302.12
974.185	6275.12
974.41	6280.12
974.634	6139.12
974.858	6195.12
975.083	6152.12
975.307	6145.12
975.531	6043.12
975.755	5955.12
975.98	5923.12
976.204	5898.12
976.428	5856.12
976.652	5867.12
976.876	5773.12
977.1	5829.12
977.324	5778.12
977.547	5747.12
977.771	5759.12
977.995	5747.12
978.219	5637.12
978.442	5737.12
978.666	5658.12
978.89	5606.12
979.113	5637.12
979.337	5561.12
979.56	5528.12
979.783	5603.12
980.007	5486.12
980.23	5494.12
980.453	5407.12
980.677	5428.12
980.9	5413.12
981.123	5304.12
981.346	5389.12
981.569	5292.12
981.792	5334.12
982.015	5222.12
982.238	5161.12
982.461	5214.12
982.684	5130.12
982.907	5063.12
983.129	5029.12
983.352	5060.12
983.575	5008.12
983.797	5024.12
984.02	4913.12
984.242	4922.12
984.465	4933.12
984.687	4910.12
984.91	4918.12
985.132	4831.12
985.354	4876.12
985.577	4824.12
985.799	4745.12
986.021	4686.12
986.243	4707.12
986.465	4695.12
986.687	4731.12
986.909	4761.12
987.131	4662.12
987.353	4591.12
987.575	4591.12
987.797	4560.12
988.019	4530.12
988.241	4592.12
988.462	4474.12
988.684	4548.12
988.906	4546.12
989.127	4597.12
989.349	4401.12
989.57	4465.12
989.792	4449.12
990.013	4450.12
990.234	4444.12
990.456	4490.12
990.677	4402.12
990.898	4323.12
991.119	4247.12
991.341	4335.12
991.562	4217.12
991.783	4270.12
992.004	4194.12
992.225	4115.12
992.446	4169.12
992.667	4026.12
992.887	4126.12
993.108	4020.12
993.329	4118.12
993.55	4033.12
993.77	3970.12
993.991	3923.12
994.212	3938.12
994.432	3919.12
994.653	3890.12
994.873	3907.12
995.093	3769.12
995.314	3809.12
995.534	3825.12
995.754	3844.12
995.975	3818.12
996.195	3734.12
996.415	3761.12
996.635	3716.12
996.855	3744.12
997.075	3699.12
997.295	3656.12
997.515	3653.12
997.735	3697.12
997.955	3668.12
998.174	3658.12
998.394	3615.12
998.614	3635.12
998.834	3573.12
999.053	3657.12
999.273	3603.12
999.492	3607.12
999.712	3557.12
999.931	3494.12
1000.151	3534.12
1000.37	3503.12
1000.589	3517.12
1000.809	3432.12
1001.028	3511.12
1001.247	3442.12
1001.466	3349.12
1001.685	3373.12
1001.904	3347.12
1002.123	3336.12
1002.342	3309.12
1002.561	3262.12
1002.78	3256.12
1002.999	3307.12
1003.218	3232.12
1003.436	3213.12
1003.655	3247.12
1003.874	3140.12
1004.092	3164.12
1004.311	3182.12
1004.53	3142.12
1004.748	3217.12
1004.966	3087.12
1005.185	3170.12
1005.403	3126.12
1005.622	3099.12
1005.84	3155.12
1006.058	3057.12
1006.276	3044.12
1006.494	3566.12
1006.712	3035.12
1006.931	3104.12
1007.149	3015.12
1007.367	3028.12
1007.584	3038.12
1007.802	3048.12
1008.02	3061.12
1008.238	3089.12
1008.456	3090.12
1008.673	2970.12
1008.891	3119.12
1009.109	3041.12
1009.326	3100.12
1009.544	3171.12
1009.761	3125.12
1009.979	3243.12
1010.196	3253.12
1010.413	3398.12
1010.631	3478.12
1010.848	3534.12
1011.065	3535.12
1011.282	3493.12
1011.5	3389.12
1011.717	3494.12
1011.934	3399.12
1012.151	3442.12
1012.368	3384.12
1012.585	3316.12
1012.801	3407.12
1013.018	3328.12
1013.235	3314.12
1013.452	3337.12
1013.669	3382.12
1013.885	3333.12
1014.102	3335.12
1014.318	3367.12
1014.535	3270.12
1014.751	3295.12
1014.968	3276.12
1015.184	3286.12
1015.401	3166.12
1015.617	3190.12
1015.833	3121.12
1016.049	3105.12
1016.266	3083.12
1016.482	3071.12
1016.698	3002.12
1016.914	2983.12
1017.13	2933.12
1017.346	2913.12
1017.562	2972.12
1017.778	2898.12
1017.993	2871.12
1018.209	2893.12
1018.425	2858.12
1018.641	2847.12
1018.856	2814.12
1019.072	2806.12
1019.288	2861.12
1019.503	2831.12
1019.719	2724.12
1019.934	2692.12
1020.149	2775.12
1020.365	2712.12
1020.58	2631.12
1020.795	2676.12
1021.011	2584.12
1021.226	2509.12
1021.441	2556.12
1021.656	2458.12
1021.871	2345.12
1022.086	2316.12
1022.301	2279.12
1022.516	2267.12
1022.731	2303.12
1022.946	2183.12
1023.16	2163.12
1023.375	2151.12
1023.59	2107.12
1023.804	2055.12
1024.019	2153.12
1024.234	1945.12
1024.448	1995.12
1024.663	1893.12
1024.877	1896.12
1025.092	1915.12
1025.306	1864.12
1025.52	1769.12
1025.734	1849.12
1025.949	1738.12
1026.163	1689.12
1026.377	1616.12
1026.591	1627.12
1026.805	1540.12
1027.019	1526.12
1027.233	1486.12
1027.447	1412.12
1027.661	1521.12
1027.875	1449.12
1028.088	1434.12
1028.302	1355.12
1028.516	1296.12
1028.73	1282.12
1028.943	1257.12
1029.157	1160.12
1029.37	1125.12
1029.584	-2.88
1029.797	-4.88
1030.011	-3.88
1030.224	-2.88
