Data from QEP037381__196__14-58-55-845.txt Node

Date: Fri Dec 16 14:58:55 EST 2022
User: dcclab
Spectrometer: QEP03738
Trigger mode: 4
Integration Time (sec): 1.000000E1
Scans to average: 1
Electric dark correction enabled: true
Nonlinearity correction enabled: false
Boxcar width: 0
XAxis mode: Wavelengths
Number of Pixels in Spectrum: 1044
>>>>>Begin Spectral Data<<<<<
784.041	14.5
784.3	-1.5
784.558	1.5
784.817	-3.5
785.075	111797.5
785.334	19550.5
785.592	9191.5
785.851	6373.5
786.109	4839.5
786.368	3716.5
786.626	3015.5
786.884	2501.5
787.143	2126.5
787.401	1765.5
787.659	1591.5
787.917	1364.5
788.175	1236.5
788.433	1108.5
788.691	965.5
788.949	899.5
789.207	867.5
789.465	763.5
789.723	729.5
789.98	677.5
790.238	701.5
790.496	670.5
790.753	639.5
791.011	678.5
791.268	616.5
791.526	582.5
791.783	615.5
792.041	604.5
792.298	522.5
792.556	562.5
792.813	552.5
793.07	543.5
793.327	519.5
793.584	602.5
793.841	530.5
794.099	543.5
794.356	591.5
794.613	514.5
794.869	556.5
795.126	533.5
795.383	504.5
795.64	526.5
795.897	473.5
796.153	542.5
796.41	508.5
796.667	506.5
796.923	518.5
797.18	517.5
797.436	555.5
797.693	510.5
797.949	576.5
798.206	618.5
798.462	533.5
798.718	605.5
798.974	571.5
799.231	622.5
799.487	618.5
799.743	632.5
799.999	675.5
800.255	689.5
800.511	679.5
800.767	754.5
801.023	784.5
801.279	840.5
801.534	919.5
801.79	1032.5
802.046	1133.5
802.302	1397.5
802.557	1663.5
802.813	2180.5
803.068	2926.5
803.324	4117.5
803.579	5789.5
803.835	8184.5
804.09	11332.5
804.345	15019.5
804.601	19094.5
804.856	23117.5
805.111	26757.5
805.366	29550.5
805.621	31662.5
805.876	33180.5
806.131	33958.5
806.386	34832.5
806.641	35503.5
806.896	36029.5
807.151	36761.5
807.406	37423.5
807.661	38022.5
807.915	38745.5
808.17	39305.5
808.425	39627.5
808.679	40241.5
808.934	40644.5
809.188	41044.5
809.443	41461.5
809.697	41960.5
809.951	42261.5
810.206	42637.5
810.46	43037.5
810.714	43416.5
810.968	43766.5
811.223	44122.5
811.477	44503.5
811.731	44889.5
811.985	45209.5
812.239	45513.5
812.493	45660.5
812.747	45995.5
813	46013.5
813.254	46105.5
813.508	46427.5
813.762	46592.5
814.015	46824.5
814.269	47242.5
814.522	47631.5
814.776	48199.5
815.03	48957.5
815.283	49429.5
815.536	50195.5
815.79	51136.5
816.043	51828.5
816.296	52563.5
816.55	53272.5
816.803	53789.5
817.056	54480.5
817.309	55042.5
817.562	55461.5
817.815	56106.5
818.068	56536.5
818.321	57165.5
818.574	57667.5
818.827	58444.5
819.079	59267.5
819.332	60156.5
819.585	60785.5
819.838	61645.5
820.09	62147.5
820.343	62454.5
820.595	62962.5
820.848	63320.5
821.1	63535.5
821.353	63558.5
821.605	63541.5
821.857	63644.5
822.11	63269.5
822.362	63157.5
822.614	63010.5
822.866	63097.5
823.118	62962.5
823.37	63206.5
823.622	63420.5
823.874	63563.5
824.126	63681.5
824.378	64033.5
824.63	64207.5
824.882	64110.5
825.134	64165.5
825.385	64267.5
825.637	64130.5
825.888	64084.5
826.14	63810.5
826.392	63747.5
826.643	63471.5
826.895	63088.5
827.146	62949.5
827.397	62995.5
827.649	63001.5
827.9	62664.5
828.151	62975.5
828.402	63148.5
828.653	63399.5
828.905	63388.5
829.156	63414.5
829.407	63355.5
829.658	63397.5
829.909	63444.5
830.159	63449.5
830.41	63121.5
830.661	62693.5
830.912	62397.5
831.162	62230.5
831.413	61856.5
831.664	62044.5
831.914	61853.5
832.165	61690.5
832.415	61793.5
832.666	61795.5
832.916	61993.5
833.167	61647.5
833.417	61787.5
833.667	61716.5
833.917	61585.5
834.168	61425.5
834.418	61152.5
834.668	60887.5
834.918	60533.5
835.168	60265.5
835.418	60072.5
835.668	59975.5
835.918	59809.5
836.167	59645.5
836.417	59600.5
836.667	59463.5
836.917	59358.5
837.166	59315.5
837.416	59221.5
837.666	59405.5
837.915	59219.5
838.165	59158.5
838.414	58949.5
838.663	58937.5
838.913	58675.5
839.162	58681.5
839.411	58553.5
839.661	58340.5
839.91	58029.5
840.159	57934.5
840.408	57801.5
840.657	57861.5
840.906	57864.5
841.155	57942.5
841.404	57662.5
841.653	57893.5
841.902	58070.5
842.15	58014.5
842.399	58020.5
842.648	57921.5
842.897	57602.5
843.145	57382.5
843.394	56842.5
843.642	56581.5
843.891	56396.5
844.139	56290.5
844.388	55934.5
844.636	55651.5
844.884	55583.5
845.133	55568.5
845.381	55514.5
845.629	55450.5
845.877	55389.5
846.125	55263.5
846.373	55107.5
846.621	54809.5
846.869	54751.5
847.117	54331.5
847.365	54182.5
847.613	54033.5
847.861	53647.5
848.108	53618.5
848.356	53552.5
848.604	53257.5
848.851	53422.5
849.099	53432.5
849.346	53531.5
849.594	53787.5
849.841	54020.5
850.089	54097.5
850.336	54062.5
850.583	53987.5
850.831	53597.5
851.078	53423.5
851.325	53195.5
851.572	53072.5
851.819	52635.5
852.066	51897.5
852.313	51361.5
852.56	51160.5
852.807	50939.5
853.054	50743.5
853.301	50460.5
853.548	50370.5
853.794	50794.5
854.041	50876.5
854.288	51106.5
854.534	51528.5
854.781	51374.5
855.028	51126.5
855.274	51189.5
855.52	50836.5
855.767	50491.5
856.013	50328.5
856.26	50775.5
856.506	50107.5
856.752	49921.5
856.998	50043.5
857.244	50003.5
857.49	50234.5
857.736	50355.5
857.982	50393.5
858.228	50285.5
858.474	49920.5
858.72	49575.5
858.966	49120.5
859.212	48839.5
859.458	48357.5
859.703	47763.5
859.949	47210.5
860.195	47041.5
860.44	46760.5
860.686	46438.5
860.931	46457.5
861.177	46241.5
861.422	46059.5
861.667	46159.5
861.913	46063.5
862.158	46218.5
862.403	46176.5
862.648	46138.5
862.893	46253.5
863.138	46183.5
863.384	46100.5
863.629	45996.5
863.873	45998.5
864.118	45903.5
864.363	45626.5
864.608	45410.5
864.853	45172.5
865.098	45001.5
865.342	44858.5
865.587	44715.5
865.832	44497.5
866.076	44473.5
866.321	44439.5
866.565	44167.5
866.81	43999.5
867.054	43829.5
867.298	43661.5
867.543	43552.5
867.787	43534.5
868.031	43452.5
868.275	43179.5
868.519	43216.5
868.764	43083.5
869.008	42856.5
869.252	42880.5
869.496	42545.5
869.739	42507.5
869.983	42534.5
870.227	42301.5
870.471	42409.5
870.715	42431.5
870.958	42552.5
871.202	42704.5
871.446	42739.5
871.689	42617.5
871.933	42650.5
872.176	42556.5
872.42	42465.5
872.663	42400.5
872.906	42347.5
873.15	41998.5
873.393	41747.5
873.636	41664.5
873.879	41239.5
874.122	40766.5
874.366	40432.5
874.609	40148.5
874.852	39970.5
875.095	39660.5
875.337	39641.5
875.58	39357.5
875.823	39373.5
876.066	39203.5
876.309	38915.5
876.551	38684.5
876.794	38517.5
877.037	38539.5
877.279	38445.5
877.522	38487.5
877.764	38425.5
878.007	38352.5
878.249	38426.5
878.491	38293.5
878.734	38119.5
878.976	38123.5
879.218	37936.5
879.46	37644.5
879.702	37535.5
879.945	37190.5
880.187	36856.5
880.429	36685.5
880.671	36417.5
880.912	36280.5
881.154	36225.5
881.396	36169.5
881.638	36140.5
881.88	36020.5
882.121	35943.5
882.363	35950.5
882.605	35860.5
882.846	35529.5
883.088	35456.5
883.329	35424.5
883.571	35424.5
883.812	35607.5
884.053	35722.5
884.295	36171.5
884.536	36358.5
884.777	36183.5
885.018	36020.5
885.259	35865.5
885.5	35621.5
885.742	36022.5
885.982	35518.5
886.223	35273.5
886.464	35197.5
886.705	34938.5
886.946	34693.5
887.187	34267.5
887.428	34120.5
887.668	33700.5
887.909	33350.5
888.15	33012.5
888.39	32990.5
888.631	32855.5
888.871	32426.5
889.111	32180.5
889.352	31998.5
889.592	31773.5
889.833	31474.5
890.073	31275.5
890.313	31156.5
890.553	30823.5
890.793	30783.5
891.033	30672.5
891.273	30541.5
891.513	30388.5
891.753	30433.5
891.993	30218.5
892.233	30307.5
892.473	30438.5
892.713	30227.5
892.952	30302.5
893.192	30332.5
893.432	30180.5
893.671	30215.5
893.911	30061.5
894.15	29712.5
894.39	29625.5
894.629	29425.5
894.869	29349.5
895.108	29096.5
895.347	29038.5
895.587	28974.5
895.826	28746.5
896.065	28677.5
896.304	28644.5
896.543	28651.5
896.782	28477.5
897.021	28408.5
897.26	28354.5
897.499	28344.5
897.738	28288.5
897.977	27842.5
898.216	27635.5
898.454	27487.5
898.693	27204.5
898.932	27285.5
899.17	27122.5
899.409	27029.5
899.647	26936.5
899.886	26833.5
900.124	26905.5
900.363	26907.5
900.601	26925.5
900.839	26846.5
901.078	26983.5
901.316	26938.5
901.554	27057.5
901.792	26984.5
902.03	26833.5
902.268	26829.5
902.506	26821.5
902.744	26673.5
902.982	26579.5
903.22	26116.5
903.458	25882.5
903.695	25617.5
903.933	25280.5
904.171	24905.5
904.409	24533.5
904.646	24285.5
904.884	24150.5
905.121	23782.5
905.359	23574.5
905.596	23290.5
905.833	23191.5
906.071	23136.5
906.308	23035.5
906.545	22842.5
906.783	22814.5
907.02	22729.5
907.257	22762.5
907.494	22636.5
907.731	22591.5
907.968	22443.5
908.205	22311.5
908.442	22057.5
908.679	22074.5
908.915	21746.5
909.152	21706.5
909.389	21440.5
909.626	21397.5
909.862	21132.5
910.099	21101.5
910.335	21045.5
910.572	20829.5
910.808	20836.5
911.045	20719.5
911.281	20690.5
911.518	20770.5
911.754	20462.5
911.99	20289.5
912.226	20152.5
912.463	20063.5
912.699	19884.5
912.935	19722.5
913.171	19595.5
913.407	19435.5
913.643	19360.5
913.879	19050.5
914.114	18956.5
914.35	18744.5
914.586	18573.5
914.822	18371.5
915.057	18386.5
915.293	18125.5
915.529	17982.5
915.764	18118.5
916	18020.5
916.235	17955.5
916.471	17854.5
916.706	17793.5
916.941	17832.5
917.177	17687.5
917.412	17696.5
917.647	17720.5
917.882	17647.5
918.117	17624.5
918.352	17532.5
918.588	17521.5
918.823	17244.5
919.057	17246.5
919.292	16857.5
919.527	16913.5
919.762	16620.5
919.997	16507.5
920.232	16290.5
920.466	16288.5
920.701	15980.5
920.935	15964.5
921.17	15851.5
921.405	15789.5
921.639	15690.5
921.873	15602.5
922.108	15588.5
922.342	15488.5
922.576	15465.5
922.811	15373.5
923.045	15294.5
923.279	15247.5
923.513	15004.5
923.747	15143.5
923.981	14981.5
924.215	14833.5
924.449	14749.5
924.683	14603.5
924.917	14558.5
925.151	14484.5
925.385	14502.5
925.618	14374.5
925.852	14345.5
926.086	14242.5
926.319	14238.5
926.553	14240.5
926.786	14279.5
927.02	14176.5
927.253	14224.5
927.486	14159.5
927.72	14096.5
927.953	14107.5
928.186	13995.5
928.42	14024.5
928.653	13864.5
928.886	13816.5
929.119	13819.5
929.352	13699.5
929.585	13578.5
929.818	13526.5
930.051	13356.5
930.284	13308.5
930.516	13082.5
930.749	12955.5
930.982	13035.5
931.215	12990.5
931.447	12861.5
931.68	12786.5
931.912	12706.5
932.145	12729.5
932.377	12712.5
932.61	12903.5
932.842	12605.5
933.074	12656.5
933.307	12589.5
933.539	12598.5
933.771	12719.5
934.003	12601.5
934.236	12622.5
934.468	12562.5
934.7	12499.5
934.932	12529.5
935.164	12455.5
935.395	12388.5
935.627	12424.5
935.859	12307.5
936.091	12240.5
936.323	12243.5
936.554	12186.5
936.786	12098.5
937.017	11990.5
937.249	12031.5
937.481	11960.5
937.712	11949.5
937.943	11813.5
938.175	11899.5
938.406	11787.5
938.637	11888.5
938.869	11724.5
939.1	11826.5
939.331	11722.5
939.562	11659.5
939.793	11527.5
940.024	11615.5
940.255	11522.5
940.486	11475.5
940.717	11416.5
940.948	11362.5
941.179	11335.5
941.409	11230.5
941.64	11244.5
941.871	11258.5
942.102	11160.5
942.332	11109.5
942.563	11217.5
942.793	11145.5
943.024	11070.5
943.254	11204.5
943.484	11181.5
943.715	11168.5
943.945	11149.5
944.175	11009.5
944.405	10976.5
944.636	10973.5
944.866	11091.5
945.096	11020.5
945.326	10837.5
945.556	10871.5
945.786	10881.5
946.016	10706.5
946.245	10601.5
946.475	10538.5
946.705	10470.5
946.935	10392.5
947.164	10332.5
947.394	10293.5
947.624	10299.5
947.853	10234.5
948.083	10206.5
948.312	10067.5
948.542	10049.5
948.771	9993.5
949	9950.5
949.23	10035.5
949.459	9986.5
949.688	9961.5
949.917	9869.5
950.146	9884.5
950.375	9933.5
950.604	9826.5
950.833	9897.5
951.062	9890.5
951.291	9772.5
951.52	9674.5
951.749	9788.5
951.978	9671.5
952.206	9633.5
952.435	9527.5
952.664	9540.5
952.892	9566.5
953.121	9442.5
953.349	9473.5
953.578	9446.5
953.806	9379.5
954.035	9297.5
954.263	9271.5
954.491	9187.5
954.719	9202.5
954.948	9044.5
955.176	9067.5
955.404	8946.5
955.632	9038.5
955.86	8870.5
956.088	8903.5
956.316	8879.5
956.544	8849.5
956.772	8710.5
956.999	8708.5
957.227	8652.5
957.455	8540.5
957.683	8530.5
957.91	8495.5
958.138	8499.5
958.365	8422.5
958.593	8395.5
958.82	8270.5
959.048	8319.5
959.275	8287.5
959.502	8239.5
959.73	8198.5
959.957	8225.5
960.184	8215.5
960.411	8061.5
960.638	8249.5
960.865	8068.5
961.092	8158.5
961.319	7992.5
961.546	8172.5
961.773	8079.5
962	8036.5
962.227	8079.5
962.454	7990.5
962.68	7933.5
962.907	7944.5
963.134	7768.5
963.36	7756.5
963.587	7839.5
963.813	7741.5
964.04	7648.5
964.266	7569.5
964.493	7613.5
964.719	7545.5
964.945	7516.5
965.171	7349.5
965.398	7462.5
965.624	7347.5
965.85	7211.5
966.076	7219.5
966.302	7249.5
966.528	7192.5
966.754	7237.5
966.98	7151.5
967.206	7154.5
967.431	6966.5
967.657	7062.5
967.883	7086.5
968.109	7022.5
968.334	6990.5
968.56	6940.5
968.785	6938.5
969.011	6883.5
969.236	6913.5
969.462	6856.5
969.687	6812.5
969.912	6816.5
970.138	6810.5
970.363	6767.5
970.588	6785.5
970.813	6646.5
971.038	6519.5
971.263	6647.5
971.488	6598.5
971.713	6610.5
971.938	6555.5
972.163	6465.5
972.388	6462.5
972.613	6429.5
972.838	6390.5
973.062	6376.5
973.287	6320.5
973.512	6226.5
973.736	6252.5
973.961	6238.5
974.185	6181.5
974.41	6209.5
974.634	6027.5
974.858	6049.5
975.083	5989.5
975.307	6009.5
975.531	5962.5
975.755	5869.5
975.98	5899.5
976.204	5735.5
976.428	5728.5
976.652	5737.5
976.876	5777.5
977.1	5707.5
977.324	5610.5
977.547	5713.5
977.771	5679.5
977.995	5670.5
978.219	5537.5
978.442	5675.5
978.666	5561.5
978.89	5508.5
979.113	5524.5
979.337	5501.5
979.56	5482.5
979.783	5574.5
980.007	5428.5
980.23	5394.5
980.453	5295.5
980.677	5385.5
980.9	5291.5
981.123	5246.5
981.346	5311.5
981.569	5241.5
981.792	5222.5
982.015	5201.5
982.238	5105.5
982.461	5100.5
982.684	5084.5
982.907	5013.5
983.129	4930.5
983.352	5007.5
983.575	4974.5
983.797	4949.5
984.02	4887.5
984.242	4851.5
984.465	4803.5
984.687	4862.5
984.91	4858.5
985.132	4832.5
985.354	4795.5
985.577	4716.5
985.799	4704.5
986.021	4586.5
986.243	4595.5
986.465	4594.5
986.687	4636.5
986.909	4658.5
987.131	4586.5
987.353	4567.5
987.575	4512.5
987.797	4501.5
988.019	4442.5
988.241	4473.5
988.462	4432.5
988.684	4454.5
988.906	4518.5
989.127	4482.5
989.349	4389.5
989.57	4366.5
989.792	4386.5
990.013	4421.5
990.234	4396.5
990.456	4424.5
990.677	4346.5
990.898	4303.5
991.119	4288.5
991.341	4249.5
991.562	4216.5
991.783	4231.5
992.004	4145.5
992.225	4080.5
992.446	4077.5
992.667	4030.5
992.887	4109.5
993.108	3924.5
993.329	4063.5
993.55	4007.5
993.77	3897.5
993.991	3835.5
994.212	3925.5
994.432	3842.5
994.653	3865.5
994.873	3846.5
995.093	3686.5
995.314	3719.5
995.534	3833.5
995.754	3793.5
995.975	3812.5
996.195	3699.5
996.415	3706.5
996.635	3698.5
996.855	3696.5
997.075	3635.5
997.295	3671.5
997.515	3622.5
997.735	3671.5
997.955	3653.5
998.174	3611.5
998.394	3591.5
998.614	3622.5
998.834	3552.5
999.053	3611.5
999.273	3542.5
999.492	3627.5
999.712	3510.5
999.931	3429.5
1000.151	3499.5
1000.37	3447.5
1000.589	3520.5
1000.809	3407.5
1001.028	3477.5
1001.247	3368.5
1001.466	3299.5
1001.685	3406.5
1001.904	3283.5
1002.123	3287.5
1002.342	3274.5
1002.561	3230.5
1002.78	3213.5
1002.999	3267.5
1003.218	3183.5
1003.436	3162.5
1003.655	3185.5
1003.874	3101.5
1004.092	3133.5
1004.311	3180.5
1004.53	3157.5
1004.748	3180.5
1004.966	3068.5
1005.185	3139.5
1005.403	3118.5
1005.622	3077.5
1005.84	3139.5
1006.058	3022.5
1006.276	3037.5
1006.494	3528.5
1006.712	3025.5
1006.931	3065.5
1007.149	2988.5
1007.367	2991.5
1007.584	3033.5
1007.802	3050.5
1008.02	3015.5
1008.238	3128.5
1008.456	3114.5
1008.673	2987.5
1008.891	3083.5
1009.109	3042.5
1009.326	3098.5
1009.544	3204.5
1009.761	3163.5
1009.979	3245.5
1010.196	3280.5
1010.413	3469.5
1010.631	3520.5
1010.848	3593.5
1011.065	3585.5
1011.282	3591.5
1011.5	3502.5
1011.717	3583.5
1011.934	3507.5
1012.151	3504.5
1012.368	3493.5
1012.585	3415.5
1012.801	3438.5
1013.018	3424.5
1013.235	3415.5
1013.452	3429.5
1013.669	3455.5
1013.885	3433.5
1014.102	3439.5
1014.318	3434.5
1014.535	3389.5
1014.751	3407.5
1014.968	3336.5
1015.184	3376.5
1015.401	3262.5
1015.617	3287.5
1015.833	3218.5
1016.049	3216.5
1016.266	3183.5
1016.482	3137.5
1016.698	3041.5
1016.914	3065.5
1017.13	3012.5
1017.346	3005.5
1017.562	3032.5
1017.778	2946.5
1017.993	2908.5
1018.209	2958.5
1018.425	2914.5
1018.641	2896.5
1018.856	2853.5
1019.072	2897.5
1019.288	2905.5
1019.503	2864.5
1019.719	2820.5
1019.934	2780.5
1020.149	2860.5
1020.365	2761.5
1020.58	2658.5
1020.795	2720.5
1021.011	2619.5
1021.226	2552.5
1021.441	2551.5
1021.656	2467.5
1021.871	2380.5
1022.086	2377.5
1022.301	2347.5
1022.516	2309.5
1022.731	2293.5
1022.946	2217.5
1023.16	2200.5
1023.375	2163.5
1023.59	2121.5
1023.804	2050.5
1024.019	2140.5
1024.234	1970.5
1024.448	1952.5
1024.663	1902.5
1024.877	1904.5
1025.092	1889.5
1025.306	1881.5
1025.52	1762.5
1025.734	1852.5
1025.949	1687.5
1026.163	1671.5
1026.377	1599.5
1026.591	1651.5
1026.805	1582.5
1027.019	1545.5
1027.233	1496.5
1027.447	1446.5
1027.661	1544.5
1027.875	1427.5
1028.088	1447.5
1028.302	1324.5
1028.516	1310.5
1028.73	1284.5
1028.943	1272.5
1029.157	1186.5
1029.37	1106.5
1029.584	-3.5
1029.797	-0.5
1030.011	-0.5
1030.224	-6.5
