Data from QEP037381__198__14-59-15-844.txt Node

Date: Fri Dec 16 14:59:15 EST 2022
User: dcclab
Spectrometer: QEP03738
Trigger mode: 4
Integration Time (sec): 1.000000E1
Scans to average: 1
Electric dark correction enabled: true
Nonlinearity correction enabled: false
Boxcar width: 0
XAxis mode: Wavelengths
Number of Pixels in Spectrum: 1044
>>>>>Begin Spectral Data<<<<<
784.041	11.25
784.3	-2.75
784.558	-0.75
784.817	-7.75
785.075	113732.25
785.334	19912.25
785.592	9371.25
785.851	6463.25
786.109	4895.25
786.368	3798.25
786.626	3086.25
786.884	2555.25
787.143	2134.25
787.401	1788.25
787.659	1594.25
787.917	1355.25
788.175	1253.25
788.433	1109.25
788.691	980.25
788.949	924.25
789.207	870.25
789.465	762.25
789.723	730.25
789.98	682.25
790.238	721.25
790.496	644.25
790.753	628.25
791.011	671.25
791.268	615.25
791.526	588.25
791.783	616.25
792.041	583.25
792.298	503.25
792.556	560.25
792.813	555.25
793.07	513.25
793.327	519.25
793.584	596.25
793.841	514.25
794.099	545.25
794.356	577.25
794.613	478.25
794.869	532.25
795.126	494.25
795.383	498.25
795.64	506.25
795.897	457.25
796.153	516.25
796.41	513.25
796.667	495.25
796.923	503.25
797.18	507.25
797.436	525.25
797.693	496.25
797.949	556.25
798.206	576.25
798.462	515.25
798.718	557.25
798.974	557.25
799.231	611.25
799.487	588.25
799.743	607.25
799.999	642.25
800.255	653.25
800.511	656.25
800.767	716.25
801.023	733.25
801.279	791.25
801.534	842.25
801.79	940.25
802.046	1042.25
802.302	1274.25
802.557	1544.25
802.813	1988.25
803.068	2605.25
803.324	3740.25
803.579	5214.25
803.835	7297.25
804.09	10102.25
804.345	13301.25
804.601	16861.25
804.856	20430.25
805.111	23476.25
805.366	26054.25
805.621	27890.25
805.876	29114.25
806.131	30050.25
806.386	30522.25
806.641	31155.25
806.896	31697.25
807.151	32252.25
807.406	32803.25
807.661	33326.25
807.915	33853.25
808.17	34426.25
808.425	34876.25
808.679	35160.25
808.934	35496.25
809.188	35838.25
809.443	36282.25
809.697	36691.25
809.951	36762.25
810.206	37223.25
810.46	37514.25
810.714	37873.25
810.968	38252.25
811.223	38502.25
811.477	38747.25
811.731	39139.25
811.985	39379.25
812.239	39445.25
812.493	39765.25
812.747	39862.25
813	40064.25
813.254	40198.25
813.508	40375.25
813.762	40601.25
814.015	40862.25
814.269	41159.25
814.522	41313.25
814.776	41824.25
815.03	42463.25
815.283	43043.25
815.536	43734.25
815.79	44273.25
816.043	44961.25
816.296	45513.25
816.55	46006.25
816.803	46535.25
817.056	47205.25
817.309	47581.25
817.562	48046.25
817.815	48572.25
818.068	48874.25
818.321	49497.25
818.574	49907.25
818.827	50497.25
819.079	51189.25
819.332	51781.25
819.585	52546.25
819.838	53180.25
820.09	53518.25
820.343	54037.25
820.595	54177.25
820.848	54579.25
821.1	54844.25
821.353	54992.25
821.605	54712.25
821.857	54808.25
822.11	54485.25
822.362	54467.25
822.614	54397.25
822.866	54250.25
823.118	54315.25
823.37	54521.25
823.622	54667.25
823.874	54784.25
824.126	54986.25
824.378	54999.25
824.63	55233.25
824.882	55374.25
825.134	55246.25
825.385	55373.25
825.637	55279.25
825.888	55055.25
826.14	55015.25
826.392	54764.25
826.643	54552.25
826.895	54158.25
827.146	54239.25
827.397	53896.25
827.649	54122.25
827.9	54002.25
828.151	54115.25
828.402	54509.25
828.653	54571.25
828.905	54778.25
829.156	54644.25
829.407	54785.25
829.658	54716.25
829.909	54739.25
830.159	54743.25
830.41	54320.25
830.661	54168.25
830.912	53775.25
831.162	53640.25
831.413	53365.25
831.664	53521.25
831.914	53308.25
832.165	53442.25
832.415	53394.25
832.666	53523.25
832.916	53356.25
833.167	53308.25
833.417	53295.25
833.667	53189.25
833.917	53163.25
834.168	52895.25
834.418	52740.25
834.668	52607.25
834.918	52226.25
835.168	51973.25
835.418	51840.25
835.668	51701.25
835.918	51708.25
836.167	51579.25
836.417	51484.25
836.667	51332.25
836.917	51342.25
837.166	51310.25
837.416	51216.25
837.666	51279.25
837.915	51048.25
838.165	50988.25
838.414	50737.25
838.663	50780.25
838.913	50706.25
839.162	50583.25
839.411	50481.25
839.661	50313.25
839.91	50156.25
840.159	50033.25
840.408	50014.25
840.657	50006.25
840.906	49978.25
841.155	50116.25
841.404	49906.25
841.653	50084.25
841.902	50044.25
842.15	50303.25
842.399	50233.25
842.648	50048.25
842.897	49837.25
843.145	49510.25
843.394	49525.25
843.642	49043.25
843.891	48805.25
844.139	48456.25
844.388	48408.25
844.636	48269.25
844.884	48092.25
845.133	48125.25
845.381	48005.25
845.629	48021.25
845.877	48061.25
846.125	47874.25
846.373	47869.25
846.621	47637.25
846.869	47333.25
847.117	47119.25
847.365	46949.25
847.613	46748.25
847.861	46636.25
848.108	46525.25
848.356	46411.25
848.604	46225.25
848.851	46323.25
849.099	46424.25
849.346	46463.25
849.594	46748.25
849.841	46864.25
850.089	46862.25
850.336	47019.25
850.583	46754.25
850.831	46702.25
851.078	46465.25
851.325	46207.25
851.572	46034.25
851.819	45701.25
852.066	45200.25
852.313	44699.25
852.56	44379.25
852.807	44188.25
853.054	44170.25
853.301	44110.25
853.548	44146.25
853.794	44401.25
854.041	44338.25
854.288	44608.25
854.534	44829.25
854.781	44851.25
855.028	44734.25
855.274	44588.25
855.52	44236.25
855.767	44188.25
856.013	44278.25
856.26	44275.25
856.506	43711.25
856.752	43669.25
856.998	43680.25
857.244	43828.25
857.49	44008.25
857.736	44137.25
857.982	44036.25
858.228	43799.25
858.474	43541.25
858.72	43251.25
858.966	43041.25
859.212	42597.25
859.458	42189.25
859.703	41999.25
859.949	41317.25
860.195	41228.25
860.44	41152.25
860.686	40776.25
860.931	40530.25
861.177	40380.25
861.422	40485.25
861.667	40414.25
861.913	40533.25
862.158	40421.25
862.403	40520.25
862.648	40552.25
862.893	40631.25
863.138	40698.25
863.384	40494.25
863.629	40439.25
863.873	40226.25
864.118	40327.25
864.363	40016.25
864.608	39835.25
864.853	39684.25
865.098	39546.25
865.342	39383.25
865.587	39243.25
865.832	39343.25
866.076	39276.25
866.321	38971.25
866.565	39067.25
866.81	38686.25
867.054	38646.25
867.298	38528.25
867.543	38381.25
867.787	38364.25
868.031	38347.25
868.275	38269.25
868.519	37992.25
868.764	38035.25
869.008	37813.25
869.252	37715.25
869.496	37644.25
869.739	37752.25
869.983	37579.25
870.227	37593.25
870.471	37367.25
870.715	37495.25
870.958	37634.25
871.202	37903.25
871.446	37831.25
871.689	37708.25
871.933	37666.25
872.176	37618.25
872.42	37665.25
872.663	37576.25
872.906	37523.25
873.15	37416.25
873.393	37263.25
873.636	37135.25
873.879	36733.25
874.122	36398.25
874.366	36102.25
874.609	35627.25
874.852	35504.25
875.095	35427.25
875.337	35108.25
875.58	35009.25
875.823	34846.25
876.066	34678.25
876.309	34721.25
876.551	34428.25
876.794	34230.25
877.037	34237.25
877.279	34206.25
877.522	34116.25
877.764	34298.25
878.007	34040.25
878.249	34113.25
878.491	34062.25
878.734	34030.25
878.976	33813.25
879.218	33746.25
879.46	33503.25
879.702	33317.25
879.945	33072.25
880.187	32839.25
880.429	32756.25
880.671	32473.25
880.912	32369.25
881.154	32233.25
881.396	32110.25
881.638	32131.25
881.88	32146.25
882.121	32102.25
882.363	32011.25
882.605	31932.25
882.846	31827.25
883.088	31740.25
883.329	31795.25
883.571	31785.25
883.812	31879.25
884.053	32298.25
884.295	32497.25
884.536	32629.25
884.777	32627.25
885.018	32313.25
885.259	32262.25
885.5	32101.25
885.742	32398.25
885.982	32065.25
886.223	31865.25
886.464	31616.25
886.705	31483.25
886.946	31137.25
887.187	31002.25
887.428	30659.25
887.668	30260.25
887.909	29841.25
888.15	29599.25
888.39	29374.25
888.631	29143.25
888.871	28928.25
889.111	28823.25
889.352	28639.25
889.592	28492.25
889.833	28274.25
890.073	28118.25
890.313	27971.25
890.553	27700.25
890.793	27631.25
891.033	27465.25
891.273	27295.25
891.513	27247.25
891.753	27249.25
891.993	27201.25
892.233	27148.25
892.473	27337.25
892.713	27314.25
892.952	27201.25
893.192	27211.25
893.432	27269.25
893.671	27137.25
893.911	26952.25
894.15	26840.25
894.39	26619.25
894.629	26506.25
894.869	26295.25
895.108	26216.25
895.347	26156.25
895.587	26131.25
895.826	25937.25
896.065	25879.25
896.304	25806.25
896.543	25780.25
896.782	25579.25
897.021	25601.25
897.26	25512.25
897.499	25431.25
897.738	25308.25
897.977	25246.25
898.216	25027.25
898.454	24854.25
898.693	24645.25
898.932	24593.25
899.17	24416.25
899.409	24401.25
899.647	24332.25
899.886	24351.25
900.124	24352.25
900.363	24171.25
900.601	24211.25
900.839	24247.25
901.078	24281.25
901.316	24189.25
901.554	24313.25
901.792	24515.25
902.03	24393.25
902.268	24371.25
902.506	24358.25
902.744	24138.25
902.982	24019.25
903.22	23666.25
903.458	23473.25
903.695	23093.25
903.933	22928.25
904.171	22634.25
904.409	22276.25
904.646	22004.25
904.884	21738.25
905.121	21671.25
905.359	21395.25
905.596	21259.25
905.833	21044.25
906.071	20841.25
906.308	20849.25
906.545	20804.25
906.783	20693.25
907.02	20633.25
907.257	20647.25
907.494	20530.25
907.731	20503.25
907.968	20430.25
908.205	20215.25
908.442	19994.25
908.679	19901.25
908.915	19809.25
909.152	19678.25
909.389	19451.25
909.626	19389.25
909.862	19265.25
910.099	19214.25
910.335	19119.25
910.572	19011.25
910.808	18900.25
911.045	18855.25
911.281	18762.25
911.518	18746.25
911.754	18569.25
911.99	18625.25
912.226	18331.25
912.463	18164.25
912.699	17981.25
912.935	17997.25
913.171	17858.25
913.407	17584.25
913.643	17593.25
913.879	17356.25
914.114	17175.25
914.35	16962.25
914.586	16893.25
914.822	16782.25
915.057	16692.25
915.293	16435.25
915.529	16384.25
915.764	16476.25
916	16439.25
916.235	16328.25
916.471	16325.25
916.706	16188.25
916.941	16085.25
917.177	16153.25
917.412	16151.25
917.647	16115.25
917.882	16088.25
918.117	16017.25
918.352	15944.25
918.588	15932.25
918.823	15746.25
919.057	15621.25
919.292	15271.25
919.527	15285.25
919.762	15096.25
919.997	15105.25
920.232	14845.25
920.466	14760.25
920.701	14591.25
920.935	14533.25
921.17	14408.25
921.405	14401.25
921.639	14335.25
921.873	14247.25
922.108	14244.25
922.342	14236.25
922.576	14051.25
922.811	13997.25
923.045	14003.25
923.279	13947.25
923.513	13725.25
923.747	13788.25
923.981	13676.25
924.215	13553.25
924.449	13546.25
924.683	13378.25
924.917	13295.25
925.151	13242.25
925.385	13294.25
925.618	13132.25
925.852	13208.25
926.086	13050.25
926.319	13021.25
926.553	13034.25
926.786	12968.25
927.02	12989.25
927.253	12938.25
927.486	12961.25
927.72	12857.25
927.953	12892.25
928.186	12828.25
928.42	12840.25
928.653	12689.25
928.886	12600.25
929.119	12602.25
929.352	12509.25
929.585	12399.25
929.818	12340.25
930.051	12257.25
930.284	12161.25
930.516	11913.25
930.749	11937.25
930.982	11923.25
931.215	11763.25
931.447	11719.25
931.68	11742.25
931.912	11756.25
932.145	11775.25
932.377	11708.25
932.61	11751.25
932.842	11562.25
933.074	11626.25
933.307	11578.25
933.539	11617.25
933.771	11597.25
934.003	11623.25
934.236	11649.25
934.468	11628.25
934.7	11472.25
934.932	11459.25
935.164	11444.25
935.395	11322.25
935.627	11395.25
935.859	11330.25
936.091	11185.25
936.323	11212.25
936.554	11182.25
936.786	11101.25
937.017	10997.25
937.249	11098.25
937.481	10993.25
937.712	11015.25
937.943	10958.25
938.175	10883.25
938.406	10830.25
938.637	10942.25
938.869	10789.25
939.1	10762.25
939.331	10711.25
939.562	10701.25
939.793	10689.25
940.024	10724.25
940.255	10649.25
940.486	10485.25
940.717	10509.25
940.948	10472.25
941.179	10427.25
941.409	10362.25
941.64	10315.25
941.871	10369.25
942.102	10295.25
942.332	10381.25
942.563	10267.25
942.793	10287.25
943.024	10234.25
943.254	10246.25
943.484	10309.25
943.715	10302.25
943.945	10192.25
944.175	10092.25
944.405	10154.25
944.636	10118.25
944.866	10168.25
945.096	10110.25
945.326	10061.25
945.556	10079.25
945.786	9956.25
946.016	9902.25
946.245	9861.25
946.475	9716.25
946.705	9701.25
946.935	9620.25
947.164	9660.25
947.394	9489.25
947.624	9383.25
947.853	9563.25
948.083	9416.25
948.312	9348.25
948.542	9188.25
948.771	9238.25
949	9219.25
949.23	9263.25
949.459	9229.25
949.688	9224.25
949.917	9166.25
950.146	9175.25
950.375	9195.25
950.604	9064.25
950.833	9148.25
951.062	9129.25
951.291	9038.25
951.52	8954.25
951.749	8886.25
951.978	8907.25
952.206	8799.25
952.435	8865.25
952.664	8832.25
952.892	8884.25
953.121	8849.25
953.349	8786.25
953.578	8760.25
953.806	8717.25
954.035	8549.25
954.263	8542.25
954.491	8460.25
954.719	8530.25
954.948	8438.25
955.176	8346.25
955.404	8309.25
955.632	8297.25
955.86	8276.25
956.088	8224.25
956.316	8267.25
956.544	8191.25
956.772	8111.25
956.999	7988.25
957.227	8106.25
957.455	8008.25
957.683	7912.25
957.91	7851.25
958.138	7808.25
958.365	7799.25
958.593	7708.25
958.82	7656.25
959.048	7722.25
959.275	7614.25
959.502	7562.25
959.73	7608.25
959.957	7625.25
960.184	7590.25
960.411	7520.25
960.638	7631.25
960.865	7500.25
961.092	7569.25
961.319	7421.25
961.546	7482.25
961.773	7490.25
962	7488.25
962.227	7424.25
962.454	7355.25
962.68	7313.25
962.907	7313.25
963.134	7212.25
963.36	7192.25
963.587	7205.25
963.813	7077.25
964.04	7124.25
964.266	6954.25
964.493	7044.25
964.719	6948.25
964.945	7009.25
965.171	6820.25
965.398	6877.25
965.624	6866.25
965.85	6713.25
966.076	6709.25
966.302	6716.25
966.528	6683.25
966.754	6687.25
966.98	6620.25
967.206	6700.25
967.431	6563.25
967.657	6620.25
967.883	6570.25
968.109	6536.25
968.334	6457.25
968.56	6474.25
968.785	6432.25
969.011	6393.25
969.236	6452.25
969.462	6407.25
969.687	6382.25
969.912	6305.25
970.138	6339.25
970.363	6294.25
970.588	6250.25
970.813	6217.25
971.038	6183.25
971.263	6184.25
971.488	6126.25
971.713	6199.25
971.938	6091.25
972.163	5986.25
972.388	6032.25
972.613	5981.25
972.838	6002.25
973.062	5962.25
973.287	5919.25
973.512	5814.25
973.736	5814.25
973.961	5766.25
974.185	5735.25
974.41	5785.25
974.634	5604.25
974.858	5674.25
975.083	5608.25
975.307	5624.25
975.531	5534.25
975.755	5435.25
975.98	5464.25
976.204	5348.25
976.428	5413.25
976.652	5364.25
976.876	5335.25
977.1	5381.25
977.324	5327.25
977.547	5321.25
977.771	5279.25
977.995	5219.25
978.219	5108.25
978.442	5287.25
978.666	5228.25
978.89	5172.25
979.113	5127.25
979.337	5187.25
979.56	5122.25
979.783	5173.25
980.007	5027.25
980.23	5088.25
980.453	5029.25
980.677	5000.25
980.9	4936.25
981.123	4871.25
981.346	4889.25
981.569	4877.25
981.792	4920.25
982.015	4845.25
982.238	4765.25
982.461	4745.25
982.684	4685.25
982.907	4665.25
983.129	4672.25
983.352	4699.25
983.575	4620.25
983.797	4582.25
984.02	4520.25
984.242	4562.25
984.465	4542.25
984.687	4519.25
984.91	4540.25
985.132	4449.25
985.354	4500.25
985.577	4416.25
985.799	4411.25
986.021	4344.25
986.243	4323.25
986.465	4320.25
986.687	4389.25
986.909	4342.25
987.131	4328.25
987.353	4231.25
987.575	4300.25
987.797	4208.25
988.019	4145.25
988.241	4192.25
988.462	4144.25
988.684	4203.25
988.906	4238.25
989.127	4212.25
989.349	4084.25
989.57	4116.25
989.792	4166.25
990.013	4141.25
990.234	4110.25
990.456	4132.25
990.677	4056.25
990.898	4025.25
991.119	4034.25
991.341	4059.25
991.562	3975.25
991.783	3981.25
992.004	3841.25
992.225	3864.25
992.446	3874.25
992.667	3727.25
992.887	3828.25
993.108	3741.25
993.329	3829.25
993.55	3750.25
993.77	3681.25
993.991	3701.25
994.212	3636.25
994.432	3653.25
994.653	3670.25
994.873	3619.25
995.093	3510.25
995.314	3525.25
995.534	3587.25
995.754	3594.25
995.975	3595.25
996.195	3466.25
996.415	3502.25
996.635	3460.25
996.855	3506.25
997.075	3494.25
997.295	3459.25
997.515	3425.25
997.735	3510.25
997.955	3466.25
998.174	3396.25
998.394	3371.25
998.614	3400.25
998.834	3374.25
999.053	3408.25
999.273	3351.25
999.492	3363.25
999.712	3327.25
999.931	3296.25
1000.151	3291.25
1000.37	3243.25
1000.589	3317.25
1000.809	3222.25
1001.028	3307.25
1001.247	3205.25
1001.466	3132.25
1001.685	3241.25
1001.904	3129.25
1002.123	3106.25
1002.342	3104.25
1002.561	3033.25
1002.78	3066.25
1002.999	3093.25
1003.218	3034.25
1003.436	2986.25
1003.655	3045.25
1003.874	2937.25
1004.092	3014.25
1004.311	2970.25
1004.53	2964.25
1004.748	3039.25
1004.966	2903.25
1005.185	2944.25
1005.403	2972.25
1005.622	2911.25
1005.84	2972.25
1006.058	2894.25
1006.276	2869.25
1006.494	3393.25
1006.712	2855.25
1006.931	2900.25
1007.149	2852.25
1007.367	2837.25
1007.584	2890.25
1007.802	2942.25
1008.02	2892.25
1008.238	2986.25
1008.456	2964.25
1008.673	2825.25
1008.891	2925.25
1009.109	2929.25
1009.326	2987.25
1009.544	3094.25
1009.761	3037.25
1009.979	3093.25
1010.196	3183.25
1010.413	3281.25
1010.631	3419.25
1010.848	3461.25
1011.065	3498.25
1011.282	3442.25
1011.5	3342.25
1011.717	3431.25
1011.934	3381.25
1012.151	3367.25
1012.368	3349.25
1012.585	3269.25
1012.801	3321.25
1013.018	3295.25
1013.235	3287.25
1013.452	3289.25
1013.669	3278.25
1013.885	3279.25
1014.102	3333.25
1014.318	3269.25
1014.535	3273.25
1014.751	3279.25
1014.968	3278.25
1015.184	3265.25
1015.401	3155.25
1015.617	3163.25
1015.833	3060.25
1016.049	3051.25
1016.266	3030.25
1016.482	3017.25
1016.698	2923.25
1016.914	2941.25
1017.13	2895.25
1017.346	2883.25
1017.562	2950.25
1017.778	2831.25
1017.993	2813.25
1018.209	2813.25
1018.425	2800.25
1018.641	2790.25
1018.856	2758.25
1019.072	2812.25
1019.288	2851.25
1019.503	2772.25
1019.719	2683.25
1019.934	2691.25
1020.149	2744.25
1020.365	2647.25
1020.58	2642.25
1020.795	2627.25
1021.011	2519.25
1021.226	2481.25
1021.441	2478.25
1021.656	2384.25
1021.871	2275.25
1022.086	2280.25
1022.301	2272.25
1022.516	2208.25
1022.731	2223.25
1022.946	2119.25
1023.16	2119.25
1023.375	2060.25
1023.59	2047.25
1023.804	1977.25
1024.019	2061.25
1024.234	1927.25
1024.448	1945.25
1024.663	1846.25
1024.877	1836.25
1025.092	1832.25
1025.306	1842.25
1025.52	1701.25
1025.734	1781.25
1025.949	1681.25
1026.163	1620.25
1026.377	1541.25
1026.591	1582.25
1026.805	1482.25
1027.019	1452.25
1027.233	1423.25
1027.447	1383.25
1027.661	1472.25
1027.875	1382.25
1028.088	1391.25
1028.302	1311.25
1028.516	1271.25
1028.73	1246.25
1028.943	1235.25
1029.157	1129.25
1029.37	1080.25
1029.584	1.25
1029.797	0.25
1030.011	-0.75
1030.224	-0.75
