Data from QEP037381__174__14-55-15-842.txt Node

Date: Fri Dec 16 14:55:15 EST 2022
User: dcclab
Spectrometer: QEP03738
Trigger mode: 4
Integration Time (sec): 1.000000E1
Scans to average: 1
Electric dark correction enabled: true
Nonlinearity correction enabled: false
Boxcar width: 0
XAxis mode: Wavelengths
Number of Pixels in Spectrum: 1044
>>>>>Begin Spectral Data<<<<<
784.041	12.62
784.3	1.62
784.558	-0.38
784.817	-5.38
785.075	112397.62
785.334	19579.62
785.592	9305.62
785.851	6406.62
786.109	4872.62
786.368	3751.62
786.626	3030.62
786.884	2516.62
787.143	2150.62
787.401	1772.62
787.659	1572.62
787.917	1349.62
788.175	1243.62
788.433	1085.62
788.691	970.62
788.949	898.62
789.207	858.62
789.465	759.62
789.723	744.62
789.98	666.62
790.238	703.62
790.496	662.62
790.753	638.62
791.011	693.62
791.268	615.62
791.526	596.62
791.783	609.62
792.041	580.62
792.298	522.62
792.556	573.62
792.813	555.62
793.07	521.62
793.327	512.62
793.584	608.62
793.841	515.62
794.099	540.62
794.356	599.62
794.613	501.62
794.869	539.62
795.126	488.62
795.383	479.62
795.64	503.62
795.897	451.62
796.153	512.62
796.41	504.62
796.667	496.62
796.923	513.62
797.18	517.62
797.436	538.62
797.693	503.62
797.949	563.62
798.206	598.62
798.462	500.62
798.718	580.62
798.974	560.62
799.231	616.62
799.487	616.62
799.743	625.62
799.999	663.62
800.255	664.62
800.511	655.62
800.767	711.62
801.023	726.62
801.279	801.62
801.534	879.62
801.79	968.62
802.046	1091.62
802.302	1313.62
802.557	1599.62
802.813	2093.62
803.068	2712.62
803.324	3903.62
803.579	5428.62
803.835	7681.62
804.09	10580.62
804.345	13913.62
804.601	17684.62
804.856	21562.62
805.111	24858.62
805.366	27403.62
805.621	29410.62
805.876	30855.62
806.131	31579.62
806.386	32321.62
806.641	32895.62
806.896	33522.62
807.151	34169.62
807.406	34465.62
807.661	35403.62
807.915	35938.62
808.17	36565.62
808.425	36831.62
808.679	37076.62
808.934	37597.62
809.188	37970.62
809.443	38423.62
809.697	38834.62
809.951	39183.62
810.206	39491.62
810.46	39895.62
810.714	40061.62
810.968	40644.62
811.223	40764.62
811.477	41269.62
811.731	41484.62
811.985	41723.62
812.239	41976.62
812.493	42412.62
812.747	42447.62
813	42582.62
813.254	42880.62
813.508	43078.62
813.762	43303.62
814.015	43298.62
814.269	43728.62
814.522	44222.62
814.776	44611.62
815.03	45193.62
815.283	45785.62
815.536	46543.62
815.79	47274.62
816.043	48009.62
816.296	48600.62
816.55	49173.62
816.803	49757.62
817.056	50409.62
817.309	50795.62
817.562	51373.62
817.815	51953.62
818.068	52296.62
818.321	52746.62
818.574	53554.62
818.827	54073.62
819.079	54834.62
819.332	55703.62
819.585	56157.62
819.838	56999.62
820.09	57289.62
820.343	57883.62
820.595	58074.62
820.848	58535.62
821.1	58883.62
821.353	58801.62
821.605	58864.62
821.857	58976.62
822.11	58590.62
822.362	58612.62
822.614	58499.62
822.866	58619.62
823.118	58368.62
823.37	58783.62
823.622	58737.62
823.874	58963.62
824.126	59099.62
824.378	59230.62
824.63	59420.62
824.882	59570.62
825.134	59572.62
825.385	59435.62
825.637	59432.62
825.888	59421.62
826.14	59120.62
826.392	58927.62
826.643	58713.62
826.895	58630.62
827.146	58331.62
827.397	58254.62
827.649	58394.62
827.9	58290.62
828.151	58420.62
828.402	58593.62
828.653	58633.62
828.905	58815.62
829.156	59001.62
829.407	58838.62
829.658	58876.62
829.909	58913.62
830.159	58896.62
830.41	58728.62
830.661	58342.62
830.912	58002.62
831.162	57677.62
831.413	57561.62
831.664	57568.62
831.914	57542.62
832.165	57474.62
832.415	57512.62
832.666	57692.62
832.916	57717.62
833.167	57642.62
833.417	57436.62
833.667	57387.62
833.917	57069.62
834.168	57012.62
834.418	56821.62
834.668	56465.62
834.918	56252.62
835.168	56049.62
835.418	56209.62
835.668	55804.62
835.918	55774.62
836.167	55703.62
836.417	55612.62
836.667	55486.62
836.917	55384.62
837.166	55286.62
837.416	55415.62
837.666	55217.62
837.915	55315.62
838.165	55187.62
838.414	55170.62
838.663	54923.62
838.913	54862.62
839.162	54691.62
839.411	54639.62
839.661	54330.62
839.91	54130.62
840.159	54003.62
840.408	53999.62
840.657	54209.62
840.906	53980.62
841.155	54083.62
841.404	53861.62
841.653	54299.62
841.902	54228.62
842.15	54254.62
842.399	54259.62
842.648	54316.62
842.897	54037.62
843.145	53722.62
843.394	53398.62
843.642	52930.62
843.891	52707.62
844.139	52523.62
844.388	52250.62
844.636	52092.62
844.884	52014.62
845.133	51887.62
845.381	51884.62
845.629	51853.62
845.877	52017.62
846.125	51706.62
846.373	51563.62
846.621	51439.62
846.869	51395.62
847.117	51150.62
847.365	50964.62
847.613	50565.62
847.861	50459.62
848.108	50281.62
848.356	50292.62
848.604	50216.62
848.851	50087.62
849.099	50247.62
849.346	50370.62
849.594	50405.62
849.841	50650.62
850.089	50630.62
850.336	50728.62
850.583	50699.62
850.831	50444.62
851.078	50146.62
851.325	50025.62
851.572	49874.62
851.819	49515.62
852.066	48816.62
852.313	48257.62
852.56	47972.62
852.807	47809.62
853.054	47626.62
853.301	47520.62
853.548	47565.62
853.794	47783.62
854.041	48043.62
854.288	48241.62
854.534	48461.62
854.781	48347.62
855.028	48380.62
855.274	48179.62
855.52	47837.62
855.767	47674.62
856.013	47669.62
856.26	47751.62
856.506	47164.62
856.752	47144.62
856.998	47144.62
857.244	47032.62
857.49	47519.62
857.736	47468.62
857.982	47644.62
858.228	47326.62
858.474	47131.62
858.72	46859.62
858.966	46491.62
859.212	46025.62
859.458	45627.62
859.703	45174.62
859.949	44731.62
860.195	44304.62
860.44	44181.62
860.686	44105.62
860.931	43880.62
861.177	43709.62
861.422	43616.62
861.667	43362.62
861.913	43541.62
862.158	43595.62
862.403	43638.62
862.648	43805.62
862.893	43682.62
863.138	43778.62
863.384	43656.62
863.629	43517.62
863.873	43509.62
864.118	43361.62
864.363	43260.62
864.608	43020.62
864.853	42891.62
865.098	42619.62
865.342	42578.62
865.587	42347.62
865.832	42301.62
866.076	42227.62
866.321	42074.62
866.565	41886.62
866.81	41751.62
867.054	41492.62
867.298	41476.62
867.543	41368.62
867.787	41394.62
868.031	41205.62
868.275	41161.62
868.519	41018.62
868.764	40884.62
869.008	40866.62
869.252	40700.62
869.496	40458.62
869.739	40434.62
869.983	40349.62
870.227	40259.62
870.471	40365.62
870.715	40353.62
870.958	40562.62
871.202	40446.62
871.446	40537.62
871.689	40726.62
871.933	40501.62
872.176	40579.62
872.42	40454.62
872.663	40294.62
872.906	40301.62
873.15	40052.62
873.393	39952.62
873.636	39643.62
873.879	39293.62
874.122	38974.62
874.366	38462.62
874.609	38083.62
874.852	38148.62
875.095	37800.62
875.337	37790.62
875.58	37604.62
875.823	37370.62
876.066	37339.62
876.309	37153.62
876.551	37138.62
876.794	36817.62
877.037	36770.62
877.279	36634.62
877.522	36723.62
877.764	36771.62
878.007	36621.62
878.249	36549.62
878.491	36463.62
878.734	36554.62
878.976	36478.62
879.218	36157.62
879.46	36039.62
879.702	35716.62
879.945	35452.62
880.187	35264.62
880.429	35163.62
880.671	34883.62
880.912	34780.62
881.154	34559.62
881.396	34498.62
881.638	34591.62
881.88	34564.62
882.121	34433.62
882.363	34334.62
882.605	34245.62
882.846	34217.62
883.088	34073.62
883.329	33930.62
883.571	34045.62
883.812	34095.62
884.053	34496.62
884.295	34726.62
884.536	34930.62
884.777	34757.62
885.018	34424.62
885.259	34478.62
885.5	34228.62
885.742	34636.62
885.982	34158.62
886.223	34064.62
886.464	33953.62
886.705	33724.62
886.946	33487.62
887.187	33091.62
887.428	32735.62
887.668	32426.62
887.909	32037.62
888.15	31675.62
888.39	31572.62
888.631	31444.62
888.871	31137.62
889.111	30994.62
889.352	30786.62
889.592	30577.62
889.833	30378.62
890.073	29984.62
890.313	30018.62
890.553	29680.62
890.793	29710.62
891.033	29486.62
891.273	29280.62
891.513	29276.62
891.753	29285.62
891.993	29031.62
892.233	29122.62
892.473	29265.62
892.713	29209.62
892.952	29181.62
893.192	29166.62
893.432	29095.62
893.671	29024.62
893.911	28838.62
894.15	28793.62
894.39	28556.62
894.629	28411.62
894.869	28380.62
895.108	28149.62
895.347	27929.62
895.587	27889.62
895.826	27830.62
896.065	27679.62
896.304	27650.62
896.543	27746.62
896.782	27525.62
897.021	27458.62
897.26	27320.62
897.499	27252.62
897.738	27200.62
897.977	27068.62
898.216	26824.62
898.454	26679.62
898.693	26345.62
898.932	26240.62
899.17	26199.62
899.409	26134.62
899.647	26110.62
899.886	26032.62
900.124	25968.62
900.363	25950.62
900.601	26004.62
900.839	26049.62
901.078	26028.62
901.316	26027.62
901.554	26111.62
901.792	26195.62
902.03	26067.62
902.268	25962.62
902.506	25945.62
902.744	25843.62
902.982	25799.62
903.22	25409.62
903.458	25159.62
903.695	24991.62
903.933	24574.62
904.171	24141.62
904.409	23936.62
904.646	23674.62
904.884	23320.62
905.121	23228.62
905.359	22949.62
905.596	22749.62
905.833	22567.62
906.071	22407.62
906.308	22335.62
906.545	22295.62
906.783	22226.62
907.02	22284.62
907.257	22083.62
907.494	22055.62
907.731	22089.62
907.968	21893.62
908.205	21638.62
908.442	21566.62
908.679	21445.62
908.915	21298.62
909.152	21167.62
909.389	20916.62
909.626	20848.62
909.862	20696.62
910.099	20674.62
910.335	20591.62
910.572	20438.62
910.808	20368.62
911.045	20293.62
911.281	20244.62
911.518	20174.62
911.754	20065.62
911.99	19856.62
912.226	19830.62
912.463	19666.62
912.699	19498.62
912.935	19315.62
913.171	19181.62
913.407	18926.62
913.643	18843.62
913.879	18751.62
914.114	18483.62
914.35	18336.62
914.586	18270.62
914.822	18115.62
915.057	18059.62
915.293	17751.62
915.529	17660.62
915.764	17684.62
916	17656.62
916.235	17653.62
916.471	17504.62
916.706	17353.62
916.941	17404.62
917.177	17402.62
917.412	17473.62
917.647	17326.62
917.882	17333.62
918.117	17304.62
918.352	17255.62
918.588	17195.62
918.823	17049.62
919.057	16881.62
919.292	16650.62
919.527	16635.62
919.762	16277.62
919.997	16152.62
920.232	15993.62
920.466	15993.62
920.701	15676.62
920.935	15628.62
921.17	15565.62
921.405	15489.62
921.639	15487.62
921.873	15303.62
922.108	15293.62
922.342	15277.62
922.576	15196.62
922.811	15134.62
923.045	15143.62
923.279	15039.62
923.513	14882.62
923.747	14854.62
923.981	14770.62
924.215	14654.62
924.449	14591.62
924.683	14380.62
924.917	14343.62
925.151	14301.62
925.385	14287.62
925.618	14185.62
925.852	14137.62
926.086	14052.62
926.319	13973.62
926.553	14084.62
926.786	14029.62
927.02	13945.62
927.253	14013.62
927.486	13985.62
927.72	13917.62
927.953	13954.62
928.186	13814.62
928.42	13760.62
928.653	13620.62
928.886	13545.62
929.119	13592.62
929.352	13583.62
929.585	13440.62
929.818	13345.62
930.051	13264.62
930.284	13070.62
930.516	12953.62
930.749	12903.62
930.982	12899.62
931.215	12765.62
931.447	12646.62
931.68	12695.62
931.912	12610.62
932.145	12532.62
932.377	12645.62
932.61	12748.62
932.842	12449.62
933.074	12478.62
933.307	12553.62
933.539	12523.62
933.771	12630.62
934.003	12402.62
934.236	12570.62
934.468	12560.62
934.7	12435.62
934.932	12414.62
935.164	12318.62
935.395	12360.62
935.627	12221.62
935.859	12270.62
936.091	12125.62
936.323	12064.62
936.554	12073.62
936.786	12023.62
937.017	11918.62
937.249	11881.62
937.481	11792.62
937.712	11895.62
937.943	11799.62
938.175	11816.62
938.406	11698.62
938.637	11784.62
938.869	11648.62
939.1	11706.62
939.331	11562.62
939.562	11645.62
939.793	11612.62
940.024	11519.62
940.255	11457.62
940.486	11324.62
940.717	11309.62
940.948	11274.62
941.179	11169.62
941.409	11224.62
941.64	11145.62
941.871	11149.62
942.102	11150.62
942.332	11084.62
942.563	11161.62
942.793	11133.62
943.024	11081.62
943.254	11091.62
943.484	11134.62
943.715	11037.62
943.945	11023.62
944.175	10878.62
944.405	10960.62
944.636	10903.62
944.866	10923.62
945.096	10911.62
945.326	10788.62
945.556	10837.62
945.786	10849.62
946.016	10675.62
946.245	10524.62
946.475	10533.62
946.705	10472.62
946.935	10373.62
947.164	10382.62
947.394	10259.62
947.624	10252.62
947.853	10229.62
948.083	10190.62
948.312	10118.62
948.542	9967.62
948.771	10024.62
949	9985.62
949.23	9955.62
949.459	9933.62
949.688	10027.62
949.917	9849.62
950.146	9916.62
950.375	9927.62
950.604	9813.62
950.833	9889.62
951.062	9795.62
951.291	9790.62
951.52	9722.62
951.749	9711.62
951.978	9656.62
952.206	9555.62
952.435	9585.62
952.664	9604.62
952.892	9534.62
953.121	9465.62
953.349	9516.62
953.578	9354.62
953.806	9317.62
954.035	9247.62
954.263	9273.62
954.491	9158.62
954.719	9199.62
954.948	9129.62
955.176	9078.62
955.404	8928.62
955.632	9037.62
955.86	8983.62
956.088	8824.62
956.316	8878.62
956.544	8908.62
956.772	8746.62
956.999	8711.62
957.227	8679.62
957.455	8502.62
957.683	8567.62
957.91	8487.62
958.138	8422.62
958.365	8410.62
958.593	8343.62
958.82	8288.62
959.048	8316.62
959.275	8271.62
959.502	8245.62
959.73	8257.62
959.957	8218.62
960.184	8155.62
960.411	8112.62
960.638	8172.62
960.865	8056.62
961.092	8081.62
961.319	7973.62
961.546	8132.62
961.773	8146.62
962	8023.62
962.227	8080.62
962.454	7971.62
962.68	7918.62
962.907	7924.62
963.134	7867.62
963.36	7763.62
963.587	7827.62
963.813	7638.62
964.04	7660.62
964.266	7580.62
964.493	7651.62
964.719	7572.62
964.945	7466.62
965.171	7305.62
965.398	7424.62
965.624	7384.62
965.85	7272.62
966.076	7176.62
966.302	7206.62
966.528	7215.62
966.754	7164.62
966.98	7114.62
967.206	7113.62
967.431	7051.62
967.657	7127.62
967.883	7004.62
968.109	7038.62
968.334	6957.62
968.56	6946.62
968.785	6969.62
969.011	6844.62
969.236	6922.62
969.462	6853.62
969.687	6876.62
969.912	6905.62
970.138	6808.62
970.363	6790.62
970.588	6790.62
970.813	6661.62
971.038	6639.62
971.263	6683.62
971.488	6669.62
971.713	6665.62
971.938	6631.62
972.163	6475.62
972.388	6436.62
972.613	6483.62
972.838	6391.62
973.062	6413.62
973.287	6345.62
973.512	6292.62
973.736	6306.62
973.961	6219.62
974.185	6209.62
974.41	6200.62
974.634	6058.62
974.858	6122.62
975.083	6135.62
975.307	6099.62
975.531	5983.62
975.755	5924.62
975.98	5884.62
976.204	5881.62
976.428	5801.62
976.652	5775.62
976.876	5755.62
977.1	5706.62
977.324	5690.62
977.547	5763.62
977.771	5694.62
977.995	5626.62
978.219	5601.62
978.442	5689.62
978.666	5606.62
978.89	5581.62
979.113	5523.62
979.337	5551.62
979.56	5479.62
979.783	5601.62
980.007	5414.62
980.23	5419.62
980.453	5388.62
980.677	5414.62
980.9	5380.62
981.123	5274.62
981.346	5302.62
981.569	5337.62
981.792	5307.62
982.015	5194.62
982.238	5118.62
982.461	5234.62
982.684	5114.62
982.907	5055.62
983.129	5047.62
983.352	5047.62
983.575	4990.62
983.797	4994.62
984.02	4896.62
984.242	4870.62
984.465	4899.62
984.687	4870.62
984.91	4895.62
985.132	4823.62
985.354	4818.62
985.577	4821.62
985.799	4748.62
986.021	4669.62
986.243	4704.62
986.465	4684.62
986.687	4662.62
986.909	4736.62
987.131	4594.62
987.353	4616.62
987.575	4582.62
987.797	4531.62
988.019	4466.62
988.241	4557.62
988.462	4513.62
988.684	4533.62
988.906	4505.62
989.127	4527.62
989.349	4402.62
989.57	4394.62
989.792	4453.62
990.013	4445.62
990.234	4411.62
990.456	4427.62
990.677	4376.62
990.898	4315.62
991.119	4316.62
991.341	4295.62
991.562	4196.62
991.783	4231.62
992.004	4160.62
992.225	4058.62
992.446	4149.62
992.667	4044.62
992.887	4124.62
993.108	3985.62
993.329	4092.62
993.55	4020.62
993.77	3987.62
993.991	3921.62
994.212	3910.62
994.432	3882.62
994.653	3915.62
994.873	3872.62
995.093	3732.62
995.314	3808.62
995.534	3821.62
995.754	3868.62
995.975	3821.62
996.195	3709.62
996.415	3755.62
996.635	3743.62
996.855	3754.62
997.075	3696.62
997.295	3674.62
997.515	3658.62
997.735	3677.62
997.955	3682.62
998.174	3650.62
998.394	3602.62
998.614	3640.62
998.834	3593.62
999.053	3663.62
999.273	3610.62
999.492	3624.62
999.712	3542.62
999.931	3462.62
1000.151	3505.62
1000.37	3463.62
1000.589	3506.62
1000.809	3393.62
1001.028	3492.62
1001.247	3440.62
1001.466	3300.62
1001.685	3421.62
1001.904	3312.62
1002.123	3345.62
1002.342	3343.62
1002.561	3286.62
1002.78	3285.62
1002.999	3311.62
1003.218	3227.62
1003.436	3208.62
1003.655	3246.62
1003.874	3149.62
1004.092	3150.62
1004.311	3165.62
1004.53	3130.62
1004.748	3222.62
1004.966	3083.62
1005.185	3175.62
1005.403	3108.62
1005.622	3107.62
1005.84	3157.62
1006.058	3070.62
1006.276	3059.62
1006.494	3573.62
1006.712	3037.62
1006.931	3125.62
1007.149	2984.62
1007.367	3006.62
1007.584	3053.62
1007.802	3091.62
1008.02	2991.62
1008.238	3123.62
1008.456	3121.62
1008.673	2934.62
1008.891	3109.62
1009.109	3063.62
1009.326	3112.62
1009.544	3226.62
1009.761	3135.62
1009.979	3270.62
1010.196	3296.62
1010.413	3430.62
1010.631	3515.62
1010.848	3600.62
1011.065	3585.62
1011.282	3496.62
1011.5	3449.62
1011.717	3553.62
1011.934	3425.62
1012.151	3524.62
1012.368	3463.62
1012.585	3431.62
1012.801	3452.62
1013.018	3377.62
1013.235	3357.62
1013.452	3392.62
1013.669	3385.62
1013.885	3373.62
1014.102	3428.62
1014.318	3418.62
1014.535	3330.62
1014.751	3368.62
1014.968	3333.62
1015.184	3334.62
1015.401	3206.62
1015.617	3266.62
1015.833	3170.62
1016.049	3154.62
1016.266	3122.62
1016.482	3081.62
1016.698	2997.62
1016.914	3047.62
1017.13	2942.62
1017.346	2926.62
1017.562	2990.62
1017.778	2907.62
1017.993	2870.62
1018.209	2943.62
1018.425	2903.62
1018.641	2874.62
1018.856	2802.62
1019.072	2847.62
1019.288	2867.62
1019.503	2814.62
1019.719	2774.62
1019.934	2757.62
1020.149	2768.62
1020.365	2793.62
1020.58	2665.62
1020.795	2681.62
1021.011	2566.62
1021.226	2559.62
1021.441	2544.62
1021.656	2432.62
1021.871	2386.62
1022.086	2316.62
1022.301	2322.62
1022.516	2305.62
1022.731	2317.62
1022.946	2212.62
1023.16	2166.62
1023.375	2137.62
1023.59	2130.62
1023.804	2078.62
1024.019	2115.62
1024.234	2002.62
1024.448	1976.62
1024.663	1903.62
1024.877	1871.62
1025.092	1896.62
1025.306	1895.62
1025.52	1759.62
1025.734	1860.62
1025.949	1757.62
1026.163	1722.62
1026.377	1656.62
1026.591	1654.62
1026.805	1536.62
1027.019	1541.62
1027.233	1505.62
1027.447	1424.62
1027.661	1515.62
1027.875	1443.62
1028.088	1460.62
1028.302	1349.62
1028.516	1305.62
1028.73	1279.62
1028.943	1259.62
1029.157	1186.62
1029.37	1098.62
1029.584	-3.38
1029.797	-0.38
1030.011	-3.38
1030.224	-1.38
