Data from QEP037381__201__14-59-45-845.txt Node

Date: Fri Dec 16 14:59:45 EST 2022
User: dcclab
Spectrometer: QEP03738
Trigger mode: 4
Integration Time (sec): 1.000000E1
Scans to average: 1
Electric dark correction enabled: true
Nonlinearity correction enabled: false
Boxcar width: 0
XAxis mode: Wavelengths
Number of Pixels in Spectrum: 1044
>>>>>Begin Spectral Data<<<<<
784.041	11.62
784.3	-3.38
784.558	-1.38
784.817	-1.38
785.075	113542.62
785.334	19726.62
785.592	9254.62
785.851	6402.62
786.109	4839.62
786.368	3692.62
786.626	3066.62
786.884	2493.62
787.143	2142.62
787.401	1743.62
787.659	1574.62
787.917	1356.62
788.175	1232.62
788.433	1089.62
788.691	963.62
788.949	884.62
789.207	868.62
789.465	755.62
789.723	718.62
789.98	664.62
790.238	696.62
790.496	657.62
790.753	613.62
791.011	666.62
791.268	608.62
791.526	581.62
791.783	600.62
792.041	585.62
792.298	502.62
792.556	575.62
792.813	542.62
793.07	511.62
793.327	493.62
793.584	569.62
793.841	510.62
794.099	521.62
794.356	577.62
794.613	484.62
794.869	523.62
795.126	506.62
795.383	470.62
795.64	501.62
795.897	445.62
796.153	501.62
796.41	473.62
796.667	469.62
796.923	479.62
797.18	493.62
797.436	531.62
797.693	479.62
797.949	544.62
798.206	564.62
798.462	487.62
798.718	545.62
798.974	529.62
799.231	588.62
799.487	600.62
799.743	596.62
799.999	635.62
800.255	632.62
800.511	632.62
800.767	693.62
801.023	689.62
801.279	751.62
801.534	823.62
801.79	914.62
802.046	979.62
802.302	1213.62
802.557	1447.62
802.813	1879.62
803.068	2374.62
803.324	3422.62
803.579	4768.62
803.835	6720.62
804.09	9228.62
804.345	12120.62
804.601	15404.62
804.856	18696.62
805.111	21636.62
805.366	23914.62
805.621	25541.62
805.876	26835.62
806.131	27562.62
806.386	28249.62
806.641	28618.62
806.896	29215.62
807.151	29646.62
807.406	30174.62
807.661	30731.62
807.915	31290.62
808.17	31626.62
808.425	32109.62
808.679	32297.62
808.934	32594.62
809.188	32964.62
809.443	33395.62
809.697	33649.62
809.951	33902.62
810.206	34103.62
810.46	34553.62
810.714	34780.62
810.968	35191.62
811.223	35543.62
811.477	35641.62
811.731	35880.62
811.985	36067.62
812.239	36411.62
812.493	36605.62
812.747	36773.62
813	36677.62
813.254	36847.62
813.508	37116.62
813.762	37216.62
814.015	37535.62
814.269	37551.62
814.522	38071.62
814.776	38487.62
815.03	38971.62
815.283	39451.62
815.536	40213.62
815.79	40692.62
816.043	41223.62
816.296	41748.62
816.55	42333.62
816.803	42823.62
817.056	43363.62
817.309	43778.62
817.562	44149.62
817.815	44553.62
818.068	44890.62
818.321	45528.62
818.574	45940.62
818.827	46589.62
819.079	47083.62
819.332	47886.62
819.585	48374.62
819.838	49029.62
820.09	49282.62
820.343	49609.62
820.595	49941.62
820.848	50363.62
821.1	50519.62
821.353	50432.62
821.605	50577.62
821.857	50560.62
822.11	50175.62
822.362	50162.62
822.614	50075.62
822.866	50091.62
823.118	49889.62
823.37	50093.62
823.622	50277.62
823.874	50447.62
824.126	50686.62
824.378	50729.62
824.63	50750.62
824.882	50930.62
825.134	50887.62
825.385	50926.62
825.637	50826.62
825.888	50593.62
826.14	50559.62
826.392	50408.62
826.643	50148.62
826.895	49969.62
827.146	49933.62
827.397	49760.62
827.649	49728.62
827.9	49682.62
828.151	49843.62
828.402	50134.62
828.653	50305.62
828.905	50289.62
829.156	50442.62
829.407	50140.62
829.658	50127.62
829.909	50405.62
830.159	50269.62
830.41	49836.62
830.661	49585.62
830.912	49444.62
831.162	49028.62
831.413	49166.62
831.664	49103.62
831.914	48986.62
832.165	48965.62
832.415	49063.62
832.666	49134.62
832.916	49152.62
833.167	49068.62
833.417	49340.62
833.667	49194.62
833.917	49176.62
834.168	48886.62
834.418	48666.62
834.668	48296.62
834.918	48086.62
835.168	47968.62
835.418	47689.62
835.668	47586.62
835.918	47532.62
836.167	47437.62
836.417	47418.62
836.667	47264.62
836.917	47224.62
837.166	47141.62
837.416	47222.62
837.666	47149.62
837.915	47044.62
838.165	46999.62
838.414	46772.62
838.663	46611.62
838.913	46730.62
839.162	46432.62
839.411	46377.62
839.661	46080.62
839.91	45999.62
840.159	45918.62
840.408	45880.62
840.657	45818.62
840.906	45814.62
841.155	46022.62
841.404	45971.62
841.653	46071.62
841.902	46100.62
842.15	46163.62
842.399	46119.62
842.648	46136.62
842.897	45671.62
843.145	45534.62
843.394	45440.62
843.642	45093.62
843.891	44934.62
844.139	44819.62
844.388	44557.62
844.636	44350.62
844.884	44227.62
845.133	44151.62
845.381	44282.62
845.629	44184.62
845.877	44077.62
846.125	44252.62
846.373	44057.62
846.621	43943.62
846.869	43675.62
847.117	43572.62
847.365	43273.62
847.613	42947.62
847.861	42974.62
848.108	42756.62
848.356	42803.62
848.604	42644.62
848.851	42667.62
849.099	42726.62
849.346	42778.62
849.594	43122.62
849.841	43107.62
850.089	43106.62
850.336	43307.62
850.583	43130.62
850.831	43060.62
851.078	42844.62
851.325	42692.62
851.572	42736.62
851.819	42391.62
852.066	41552.62
852.313	41103.62
852.56	40768.62
852.807	40661.62
853.054	40344.62
853.301	40502.62
853.548	40575.62
853.794	40593.62
854.041	40598.62
854.288	40888.62
854.534	41120.62
854.781	41075.62
855.028	40759.62
855.274	40802.62
855.52	40544.62
855.767	40448.62
856.013	40379.62
856.26	40460.62
856.506	40112.62
856.752	40122.62
856.998	40088.62
857.244	40193.62
857.49	40377.62
857.736	40292.62
857.982	40262.62
858.228	40279.62
858.474	39972.62
858.72	39731.62
858.966	39422.62
859.212	39159.62
859.458	38772.62
859.703	38463.62
859.949	38146.62
860.195	37954.62
860.44	37795.62
860.686	37491.62
860.931	37509.62
861.177	37432.62
861.422	37188.62
861.667	37014.62
861.913	37019.62
862.158	37052.62
862.403	37180.62
862.648	37190.62
862.893	37243.62
863.138	37194.62
863.384	37116.62
863.629	37000.62
863.873	37056.62
864.118	36967.62
864.363	36714.62
864.608	36550.62
864.853	36379.62
865.098	36088.62
865.342	36040.62
865.587	35906.62
865.832	35940.62
866.076	35817.62
866.321	35635.62
866.565	35773.62
866.81	35632.62
867.054	35674.62
867.298	35424.62
867.543	35512.62
867.787	35397.62
868.031	35620.62
868.275	35367.62
868.519	34966.62
868.764	34890.62
869.008	34774.62
869.252	34704.62
869.496	34496.62
869.739	34425.62
869.983	34384.62
870.227	34320.62
870.471	34301.62
870.715	34470.62
870.958	34310.62
871.202	34393.62
871.446	34471.62
871.689	34436.62
871.933	34425.62
872.176	34492.62
872.42	34484.62
872.663	34393.62
872.906	34145.62
873.15	33979.62
873.393	33967.62
873.636	33805.62
873.879	33490.62
874.122	33328.62
874.366	32907.62
874.609	32731.62
874.852	32572.62
875.095	32192.62
875.337	32280.62
875.58	32086.62
875.823	32071.62
876.066	31997.62
876.309	31889.62
876.551	31580.62
876.794	31465.62
877.037	31437.62
877.279	31283.62
877.522	31301.62
877.764	31394.62
878.007	31195.62
878.249	31131.62
878.491	31058.62
878.734	30946.62
878.976	31035.62
879.218	30832.62
879.46	30572.62
879.702	30491.62
879.945	30148.62
880.187	29970.62
880.429	29725.62
880.671	29589.62
880.912	29598.62
881.154	29487.62
881.396	29270.62
881.638	29206.62
881.88	29308.62
882.121	29173.62
882.363	29135.62
882.605	29038.62
882.846	28887.62
883.088	28877.62
883.329	28840.62
883.571	28891.62
883.812	28866.62
884.053	29134.62
884.295	29525.62
884.536	29734.62
884.777	29480.62
885.018	29285.62
885.259	29413.62
885.5	29178.62
885.742	29458.62
885.982	29125.62
886.223	28833.62
886.464	28732.62
886.705	28568.62
886.946	28401.62
887.187	27864.62
887.428	27618.62
887.668	27356.62
887.909	27072.62
888.15	26733.62
888.39	26670.62
888.631	26491.62
888.871	26204.62
889.111	26110.62
889.352	25964.62
889.592	25687.62
889.833	25657.62
890.073	25397.62
890.313	25420.62
890.553	25107.62
890.793	25003.62
891.033	24973.62
891.273	24973.62
891.513	24768.62
891.753	24848.62
891.993	24863.62
892.233	25010.62
892.473	25131.62
892.713	25335.62
892.952	25328.62
893.192	25298.62
893.432	25280.62
893.671	25273.62
893.911	24984.62
894.15	24953.62
894.39	24668.62
894.629	24586.62
894.869	24441.62
895.108	24115.62
895.347	24001.62
895.587	24005.62
895.826	23842.62
896.065	23787.62
896.304	23768.62
896.543	23629.62
896.782	23528.62
897.021	23497.62
897.26	23461.62
897.499	23515.62
897.738	23426.62
897.977	23170.62
898.216	23079.62
898.454	22844.62
898.693	22658.62
898.932	22812.62
899.17	22638.62
899.409	22413.62
899.647	22363.62
899.886	22234.62
900.124	22284.62
900.363	22193.62
900.601	22285.62
900.839	22163.62
901.078	22058.62
901.316	22099.62
901.554	22146.62
901.792	22095.62
902.03	22126.62
902.268	21997.62
902.506	21917.62
902.744	21772.62
902.982	21702.62
903.22	21377.62
903.458	21085.62
903.695	20773.62
903.933	20671.62
904.171	20400.62
904.409	20044.62
904.646	19889.62
904.884	19616.62
905.121	19414.62
905.359	19149.62
905.596	18923.62
905.833	18879.62
906.071	18745.62
906.308	18658.62
906.545	18601.62
906.783	18506.62
907.02	18506.62
907.257	18366.62
907.494	18423.62
907.731	18311.62
907.968	18239.62
908.205	18149.62
908.442	17915.62
908.679	17787.62
908.915	17775.62
909.152	17693.62
909.389	17405.62
909.626	17392.62
909.862	17326.62
910.099	17128.62
910.335	17150.62
910.572	16986.62
910.808	16984.62
911.045	16898.62
911.281	16851.62
911.518	16781.62
911.754	16539.62
911.99	16576.62
912.226	16356.62
912.463	16339.62
912.699	16123.62
912.935	16049.62
913.171	15842.62
913.407	15714.62
913.643	15656.62
913.879	15531.62
914.114	15323.62
914.35	15214.62
914.586	15032.62
914.822	14972.62
915.057	14952.62
915.293	14729.62
915.529	14646.62
915.764	14742.62
916	14719.62
916.235	14601.62
916.471	14570.62
916.706	14493.62
916.941	14541.62
917.177	14415.62
917.412	14473.62
917.647	14419.62
917.882	14260.62
918.117	14375.62
918.352	14325.62
918.588	14227.62
918.823	14141.62
919.057	13959.62
919.292	13733.62
919.527	13819.62
919.762	13481.62
919.997	13482.62
920.232	13245.62
920.466	13207.62
920.701	13034.62
920.935	12962.62
921.17	12880.62
921.405	12875.62
921.639	12901.62
921.873	12757.62
922.108	12661.62
922.342	12724.62
922.576	12589.62
922.811	12511.62
923.045	12514.62
923.279	12441.62
923.513	12218.62
923.747	12291.62
923.981	12180.62
924.215	12146.62
924.449	12052.62
924.683	11964.62
924.917	11874.62
925.151	11813.62
925.385	11877.62
925.618	11740.62
925.852	11749.62
926.086	11688.62
926.319	11709.62
926.553	11695.62
926.786	11670.62
927.02	11608.62
927.253	11679.62
927.486	11692.62
927.72	11469.62
927.953	11488.62
928.186	11434.62
928.42	11453.62
928.653	11384.62
928.886	11253.62
929.119	11300.62
929.352	11161.62
929.585	11115.62
929.818	10988.62
930.051	10980.62
930.284	10936.62
930.516	10717.62
930.749	10677.62
930.982	10676.62
931.215	10576.62
931.447	10487.62
931.68	10476.62
931.912	10421.62
932.145	10498.62
932.377	10436.62
932.61	10608.62
932.842	10367.62
933.074	10405.62
933.307	10319.62
933.539	10395.62
933.771	10338.62
934.003	10384.62
934.236	10437.62
934.468	10392.62
934.7	10247.62
934.932	10290.62
935.164	10161.62
935.395	10059.62
935.627	10189.62
935.859	10113.62
936.091	10101.62
936.323	10051.62
936.554	10074.62
936.786	9938.62
937.017	9798.62
937.249	9812.62
937.481	9794.62
937.712	9806.62
937.943	9787.62
938.175	9756.62
938.406	9701.62
938.637	9709.62
938.869	9638.62
939.1	9671.62
939.331	9538.62
939.562	9556.62
939.793	9554.62
940.024	9541.62
940.255	9442.62
940.486	9313.62
940.717	9302.62
940.948	9332.62
941.179	9265.62
941.409	9264.62
941.64	9191.62
941.871	9171.62
942.102	9140.62
942.332	9221.62
942.563	9255.62
942.793	9185.62
943.024	9144.62
943.254	9192.62
943.484	9168.62
943.715	9189.62
943.945	9154.62
944.175	9076.62
944.405	8992.62
944.636	8990.62
944.866	9015.62
945.096	9006.62
945.326	8917.62
945.556	8971.62
945.786	8885.62
946.016	8886.62
946.245	8748.62
946.475	8680.62
946.705	8636.62
946.935	8604.62
947.164	8540.62
947.394	8509.62
947.624	8461.62
947.853	8533.62
948.083	8458.62
948.312	8384.62
948.542	8272.62
948.771	8220.62
949	8287.62
949.23	8277.62
949.459	8215.62
949.688	8258.62
949.917	8212.62
950.146	8197.62
950.375	8250.62
950.604	8034.62
950.833	8118.62
951.062	8164.62
951.291	8009.62
951.52	8004.62
951.749	8021.62
951.978	8013.62
952.206	7891.62
952.435	7893.62
952.664	7915.62
952.892	7927.62
953.121	7862.62
953.349	7780.62
953.578	7866.62
953.806	7752.62
954.035	7673.62
954.263	7669.62
954.491	7590.62
954.719	7599.62
954.948	7511.62
955.176	7454.62
955.404	7405.62
955.632	7416.62
955.86	7432.62
956.088	7347.62
956.316	7318.62
956.544	7308.62
956.772	7214.62
956.999	7211.62
957.227	7205.62
957.455	7122.62
957.683	7080.62
957.91	7057.62
958.138	6941.62
958.365	6968.62
958.593	6892.62
958.82	6812.62
959.048	6870.62
959.275	6884.62
959.502	6822.62
959.73	6795.62
959.957	6866.62
960.184	6761.62
960.411	6717.62
960.638	6790.62
960.865	6732.62
961.092	6726.62
961.319	6666.62
961.546	6774.62
961.773	6753.62
962	6644.62
962.227	6640.62
962.454	6657.62
962.68	6634.62
962.907	6622.62
963.134	6461.62
963.36	6434.62
963.587	6482.62
963.813	6365.62
964.04	6401.62
964.266	6293.62
964.493	6337.62
964.719	6294.62
964.945	6278.62
965.171	6148.62
965.398	6137.62
965.624	6118.62
965.85	6079.62
966.076	6019.62
966.302	6051.62
966.528	5994.62
966.754	6008.62
966.98	5955.62
967.206	5961.62
967.431	5873.62
967.657	5885.62
967.883	5920.62
968.109	5849.62
968.334	5791.62
968.56	5798.62
968.785	5760.62
969.011	5764.62
969.236	5808.62
969.462	5685.62
969.687	5711.62
969.912	5708.62
970.138	5689.62
970.363	5622.62
970.588	5624.62
970.813	5552.62
971.038	5531.62
971.263	5528.62
971.488	5523.62
971.713	5544.62
971.938	5507.62
972.163	5392.62
972.388	5353.62
972.613	5358.62
972.838	5392.62
973.062	5368.62
973.287	5321.62
973.512	5206.62
973.736	5253.62
973.961	5224.62
974.185	5225.62
974.41	5241.62
974.634	5052.62
974.858	5084.62
975.083	5048.62
975.307	5053.62
975.531	5000.62
975.755	4898.62
975.98	4916.62
976.204	4869.62
976.428	4863.62
976.652	4840.62
976.876	4787.62
977.1	4816.62
977.324	4765.62
977.547	4751.62
977.771	4775.62
977.995	4737.62
978.219	4643.62
978.442	4805.62
978.666	4682.62
978.89	4635.62
979.113	4663.62
979.337	4640.62
979.56	4582.62
979.783	4646.62
980.007	4569.62
980.23	4576.62
980.453	4457.62
980.677	4514.62
980.9	4525.62
981.123	4376.62
981.346	4463.62
981.569	4428.62
981.792	4440.62
982.015	4355.62
982.238	4328.62
982.461	4334.62
982.684	4253.62
982.907	4256.62
983.129	4181.62
983.352	4229.62
983.575	4191.62
983.797	4241.62
984.02	4096.62
984.242	4107.62
984.465	4100.62
984.687	4118.62
984.91	4122.62
985.132	4073.62
985.354	4056.62
985.577	4029.62
985.799	3973.62
986.021	3925.62
986.243	3860.62
986.465	3939.62
986.687	4007.62
986.909	3979.62
987.131	3908.62
987.353	3842.62
987.575	3901.62
987.797	3798.62
988.019	3760.62
988.241	3799.62
988.462	3784.62
988.684	3816.62
988.906	3819.62
989.127	3845.62
989.349	3717.62
989.57	3737.62
989.792	3748.62
990.013	3760.62
990.234	3762.62
990.456	3717.62
990.677	3710.62
990.898	3655.62
991.119	3587.62
991.341	3657.62
991.562	3551.62
991.783	3614.62
992.004	3500.62
992.225	3471.62
992.446	3503.62
992.667	3385.62
992.887	3471.62
993.108	3381.62
993.329	3488.62
993.55	3421.62
993.77	3326.62
993.991	3344.62
994.212	3349.62
994.432	3365.62
994.653	3312.62
994.873	3312.62
995.093	3163.62
995.314	3198.62
995.534	3247.62
995.754	3270.62
995.975	3281.62
996.195	3163.62
996.415	3188.62
996.635	3180.62
996.855	3184.62
997.075	3151.62
997.295	3159.62
997.515	3102.62
997.735	3165.62
997.955	3096.62
998.174	3113.62
998.394	3090.62
998.614	3133.62
998.834	3027.62
999.053	3099.62
999.273	3078.62
999.492	3094.62
999.712	3035.62
999.931	2967.62
1000.151	3013.62
1000.37	3003.62
1000.589	3039.62
1000.809	2913.62
1001.028	3047.62
1001.247	2939.62
1001.466	2832.62
1001.685	2959.62
1001.904	2888.62
1002.123	2866.62
1002.342	2882.62
1002.561	2820.62
1002.78	2795.62
1002.999	2858.62
1003.218	2828.62
1003.436	2750.62
1003.655	2794.62
1003.874	2699.62
1004.092	2751.62
1004.311	2730.62
1004.53	2716.62
1004.748	2769.62
1004.966	2712.62
1005.185	2741.62
1005.403	2716.62
1005.622	2701.62
1005.84	2756.62
1006.058	2654.62
1006.276	2677.62
1006.494	3129.62
1006.712	2644.62
1006.931	2704.62
1007.149	2636.62
1007.367	2638.62
1007.584	2659.62
1007.802	2739.62
1008.02	2627.62
1008.238	2701.62
1008.456	2703.62
1008.673	2597.62
1008.891	2714.62
1009.109	2653.62
1009.326	2713.62
1009.544	2819.62
1009.761	2704.62
1009.979	2833.62
1010.196	2827.62
1010.413	2988.62
1010.631	3068.62
1010.848	3090.62
1011.065	3116.62
1011.282	3119.62
1011.5	3014.62
1011.717	3138.62
1011.934	3054.62
1012.151	3088.62
1012.368	3048.62
1012.585	2949.62
1012.801	2998.62
1013.018	3019.62
1013.235	2934.62
1013.452	2987.62
1013.669	3005.62
1013.885	2979.62
1014.102	3006.62
1014.318	3027.62
1014.535	2920.62
1014.751	2985.62
1014.968	2951.62
1015.184	2940.62
1015.401	2856.62
1015.617	2885.62
1015.833	2791.62
1016.049	2802.62
1016.266	2771.62
1016.482	2758.62
1016.698	2698.62
1016.914	2706.62
1017.13	2676.62
1017.346	2657.62
1017.562	2648.62
1017.778	2627.62
1017.993	2583.62
1018.209	2615.62
1018.425	2636.62
1018.641	2539.62
1018.856	2525.62
1019.072	2587.62
1019.288	2623.62
1019.503	2565.62
1019.719	2514.62
1019.934	2514.62
1020.149	2590.62
1020.365	2501.62
1020.58	2403.62
1020.795	2430.62
1021.011	2374.62
1021.226	2296.62
1021.441	2307.62
1021.656	2212.62
1021.871	2117.62
1022.086	2116.62
1022.301	2080.62
1022.516	2046.62
1022.731	2096.62
1022.946	2016.62
1023.16	1980.62
1023.375	1935.62
1023.59	1903.62
1023.804	1832.62
1024.019	1951.62
1024.234	1789.62
1024.448	1784.62
1024.663	1725.62
1024.877	1711.62
1025.092	1724.62
1025.306	1710.62
1025.52	1572.62
1025.734	1661.62
1025.949	1545.62
1026.163	1494.62
1026.377	1457.62
1026.591	1485.62
1026.805	1419.62
1027.019	1378.62
1027.233	1331.62
1027.447	1288.62
1027.661	1376.62
1027.875	1271.62
1028.088	1261.62
1028.302	1197.62
1028.516	1163.62
1028.73	1154.62
1028.943	1137.62
1029.157	1070.62
1029.37	991.62
1029.584	-1.38
1029.797	-1.38
1030.011	0.62
1030.224	-3.38
