Data from QEP037381__169__14-54-25-842.txt Node

Date: Fri Dec 16 14:54:25 EST 2022
User: dcclab
Spectrometer: QEP03738
Trigger mode: 4
Integration Time (sec): 1.000000E1
Scans to average: 1
Electric dark correction enabled: true
Nonlinearity correction enabled: false
Boxcar width: 0
XAxis mode: Wavelengths
Number of Pixels in Spectrum: 1044
>>>>>Begin Spectral Data<<<<<
784.041	14
784.3	-2
784.558	-2
784.817	-6
785.075	111361
785.334	19410
785.592	9112
785.851	6323
786.109	4716
786.368	3721
786.626	2996
786.884	2512
787.143	2109
787.401	1782
787.659	1583
787.917	1376
788.175	1273
788.433	1141
788.691	1007
788.949	949
789.207	919
789.465	791
789.723	778
789.98	730
790.238	754
790.496	703
790.753	686
791.011	727
791.268	684
791.526	654
791.783	670
792.041	660
792.298	573
792.556	633
792.813	624
793.07	592
793.327	580
793.584	668
793.841	602
794.099	612
794.356	675
794.613	569
794.869	629
795.126	596
795.383	577
795.64	604
795.897	545
796.153	621
796.41	618
796.667	594
796.923	597
797.18	605
797.436	649
797.693	627
797.949	670
798.206	720
798.462	637
798.718	725
798.974	684
799.231	777
799.487	774
799.743	790
799.999	835
800.255	863
800.511	894
800.767	981
801.023	992
801.279	1115
801.534	1241
801.79	1389
802.046	1586
802.302	1935
802.557	2460
802.813	3247
803.068	4363
803.324	6267
803.579	8958
803.835	12699
804.09	17671
804.345	23504
804.601	29886
804.856	36551
805.111	41946
805.366	46553
805.621	50085
805.876	52250
806.131	53939
806.386	55065
806.641	56259
806.896	57149
807.151	58418
807.406	59442
807.661	60511
807.915	61756
808.17	62819
808.425	63396
808.679	64147
808.934	64741
809.188	65625
809.443	66230
809.697	67026
809.951	67619
810.206	68343
810.46	68957
810.714	69358
810.968	70282
811.223	70594
811.477	71342
811.731	72071
811.985	72448
812.239	72951
812.493	73584
812.747	73984
813	74157
813.254	74278
813.508	74717
813.762	75005
814.015	75697
814.269	76378
814.522	76783
814.776	77973
815.03	79120
815.283	80087
815.536	81377
815.79	82713
816.043	84131
816.296	85442
816.55	86296
816.803	87341
817.056	88578
817.309	89451
817.562	90283
817.815	91191
818.068	92379
818.321	93171
818.574	94414
818.827	95511
819.079	96759
819.332	98301
819.585	99527
819.838	100747
820.09	101861
820.343	102570
820.595	103065
820.848	103891
821.1	104122
821.353	104330
821.605	104337
821.857	104364
822.11	104196
822.362	104020
822.614	103681
822.866	103964
823.118	104004
823.37	104118
823.622	104332
823.874	104584
824.126	104981
824.378	105363
824.63	105975
824.882	105900
825.134	106131
825.385	106288
825.637	106032
825.888	106024
826.14	105776
826.392	105214
826.643	104769
826.895	104605
827.146	104633
827.397	104199
827.649	104087
827.9	104208
828.151	104381
828.402	104767
828.653	104990
828.905	105365
829.156	105516
829.407	105430
829.658	105279
829.909	105141
830.159	105099
830.41	104793
830.661	104156
830.912	103761
831.162	103303
831.413	103041
831.664	102918
831.914	103156
832.165	103188
832.415	103519
832.666	103128
832.916	103180
833.167	102997
833.417	103098
833.667	103028
833.917	102572
834.168	102250
834.418	102164
834.668	101931
834.918	101345
835.168	101096
835.418	100936
835.668	100450
835.918	100443
836.167	100241
836.417	100126
836.667	99916
836.917	99805
837.166	99718
837.416	99736
837.666	99587
837.915	99501
838.165	99605
838.414	99132
838.663	99216
838.913	98820
839.162	98430
839.411	98261
839.661	97915
839.91	97556
840.159	97478
840.408	97412
840.657	97171
840.906	97446
841.155	97259
841.404	97480
841.653	97492
841.902	97715
842.15	97673
842.399	97743
842.648	97642
842.897	97365
843.145	96836
843.394	96441
843.642	95965
843.891	95577
844.139	95180
844.388	94629
844.636	94390
844.884	94404
845.133	94229
845.381	93875
845.629	94037
845.877	93726
846.125	94026
846.373	93747
846.621	93209
846.869	93258
847.117	92602
847.365	92352
847.613	92073
847.861	91552
848.108	91557
848.356	90918
848.604	91069
848.851	91016
849.099	91216
849.346	91360
849.594	91976
849.841	92137
850.089	92450
850.336	92260
850.583	92233
850.831	91973
851.078	91239
851.325	91003
851.572	90489
851.819	89490
852.066	88559
852.313	87917
852.56	87475
852.807	87137
853.054	86813
853.301	86549
853.548	86626
853.794	86845
854.041	87273
854.288	87689
854.534	87796
854.781	87792
855.028	87756
855.274	87454
855.52	86976
855.767	86358
856.013	86118
856.26	86296
856.506	85541
856.752	85382
856.998	85641
857.244	85993
857.49	86096
857.736	86261
857.982	86256
858.228	86019
858.474	85840
858.72	85442
858.966	84523
859.212	83881
859.458	83004
859.703	82412
859.949	81573
860.195	81153
860.44	80350
860.686	80203
860.931	79749
861.177	79621
861.422	79535
861.667	79584
861.913	79473
862.158	79742
862.403	79923
862.648	80098
862.893	79971
863.138	80038
863.384	79820
863.629	79906
863.873	79918
864.118	79568
864.363	79455
864.608	78935
864.853	78643
865.098	78287
865.342	77915
865.587	77803
865.832	77713
866.076	77477
866.321	77008
866.565	76997
866.81	76548
867.054	76328
867.298	76275
867.543	75712
867.787	75776
868.031	75509
868.275	75281
868.519	75049
868.764	74907
869.008	74681
869.252	74378
869.496	74328
869.739	74100
869.983	73839
870.227	73706
870.471	73625
870.715	73662
870.958	73582
871.202	73811
871.446	73887
871.689	73897
871.933	74009
872.176	73948
872.42	73915
872.663	73520
872.906	73269
873.15	72921
873.393	72424
873.636	71931
873.879	71309
874.122	70682
874.366	70114
874.609	69586
874.852	69402
875.095	69151
875.337	68636
875.58	68503
875.823	68509
876.066	68164
876.309	68010
876.551	67506
876.794	67270
877.037	67199
877.279	67121
877.522	67140
877.764	67359
878.007	67136
878.249	67064
878.491	67184
878.734	67035
878.976	66970
879.218	66625
879.46	66094
879.702	65898
879.945	65506
880.187	64799
880.429	64569
880.671	64351
880.912	64032
881.154	63678
881.396	63497
881.638	63678
881.88	63502
882.121	63303
882.363	63161
882.605	62994
882.846	62838
883.088	62394
883.329	62273
883.571	62010
883.812	61880
884.053	61845
884.295	62388
884.536	62377
884.777	62058
885.018	61820
885.259	61711
885.5	61417
885.742	61796
885.982	61459
886.223	61240
886.464	61111
886.705	60917
886.946	60588
887.187	60192
887.428	59859
887.668	59361
887.909	58871
888.15	58302
888.39	58163
888.631	57652
888.871	57282
889.111	57162
889.352	56639
889.592	56268
889.833	55817
890.073	55487
890.313	55368
890.553	54960
890.793	54416
891.033	54598
891.273	54212
891.513	53990
891.753	53763
891.993	53847
892.233	53651
892.473	54092
892.713	53997
892.952	53798
893.192	53809
893.432	53692
893.671	53491
893.911	53344
894.15	52994
894.39	52568
894.629	52396
894.869	51883
895.108	51741
895.347	51597
895.587	51464
895.826	51062
896.065	50957
896.304	50890
896.543	50622
896.782	50425
897.021	50377
897.26	50064
897.499	49917
897.738	49777
897.977	49398
898.216	49089
898.454	48585
898.693	48209
898.932	47955
899.17	47952
899.409	47560
899.647	47503
899.886	47298
900.124	47512
900.363	47518
900.601	47321
900.839	47263
901.078	47263
901.316	47070
901.554	47199
901.792	47175
902.03	46987
902.268	46898
902.506	46909
902.744	46479
902.982	46435
903.22	45969
903.458	45564
903.695	45197
903.933	44829
904.171	44058
904.409	43650
904.646	43260
904.884	42724
905.121	42293
905.359	41839
905.596	41532
905.833	41379
906.071	41125
906.308	41092
906.545	40851
906.783	40773
907.02	40704
907.257	40582
907.494	40433
907.731	40247
907.968	39985
908.205	39920
908.442	39541
908.679	39331
908.915	38959
909.152	38892
909.389	38436
909.626	38202
909.862	37981
910.099	37858
910.335	37734
910.572	37504
910.808	37297
911.045	37069
911.281	37024
911.518	36995
911.754	36613
911.99	36481
912.226	36221
912.463	35968
912.699	35685
912.935	35501
913.171	35109
913.407	34937
913.643	34677
913.879	34239
914.114	33852
914.35	33644
914.586	33289
914.822	33079
915.057	32829
915.293	32418
915.529	32394
915.764	32531
916	32389
916.235	32218
916.471	32083
916.706	31970
916.941	31972
917.177	31868
917.412	31860
917.647	31870
917.882	31630
918.117	31652
918.352	31394
918.588	31319
918.823	30924
919.057	30766
919.292	30440
919.527	30086
919.762	29706
919.997	29514
920.232	29200
920.466	29034
920.701	28637
920.935	28673
921.17	28336
921.405	28167
921.639	28259
921.873	27941
922.108	27878
922.342	27846
922.576	27700
922.811	27382
923.045	27461
923.279	27372
923.513	27004
923.747	27041
923.981	26823
924.215	26637
924.449	26468
924.683	26142
924.917	26144
925.151	25928
925.385	25841
925.618	25726
925.852	25692
926.086	25526
926.319	25457
926.553	25534
926.786	25493
927.02	25405
927.253	25496
927.486	25309
927.72	25178
927.953	25214
928.186	25099
928.42	24954
928.653	24852
928.886	24648
929.119	24518
929.352	24418
929.585	24296
929.818	23993
930.051	23879
930.284	23690
930.516	23425
930.749	23321
930.982	23074
931.215	23111
931.447	23034
931.68	22811
931.912	22696
932.145	22705
932.377	22755
932.61	22785
932.842	22575
933.074	22567
933.307	22557
933.539	22559
933.771	22529
934.003	22492
934.236	22547
934.468	22505
934.7	22384
934.932	22230
935.164	22111
935.395	22013
935.627	22116
935.859	22008
936.091	21779
936.323	21794
936.554	21771
936.786	21529
937.017	21399
937.249	21442
937.481	21128
937.712	21278
937.943	21177
938.175	21127
938.406	21029
938.637	21091
938.869	20829
939.1	20916
939.331	20784
939.562	20711
939.793	20642
940.024	20576
940.255	20451
940.486	20336
940.717	20196
940.948	20203
941.179	20025
941.409	19976
941.64	19885
941.871	19961
942.102	19895
942.332	19871
942.563	19937
942.793	19788
943.024	19697
943.254	19780
943.484	19873
943.715	19744
943.945	19662
944.175	19598
944.405	19558
944.636	19549
944.866	19514
945.096	19521
945.326	19273
945.556	19260
945.786	19298
946.016	19011
946.245	18873
946.475	18697
946.705	18563
946.935	18548
947.164	18412
947.394	18276
947.624	18248
947.853	18135
948.083	18112
948.312	17961
948.542	17817
948.771	17751
949	17775
949.23	17683
949.459	17616
949.688	17667
949.917	17630
950.146	17604
950.375	17613
950.604	17375
950.833	17535
951.062	17499
951.291	17338
951.52	17339
951.749	17271
951.978	17067
952.206	17127
952.435	17017
952.664	17000
952.892	16931
953.121	16804
953.349	16744
953.578	16630
953.806	16562
954.035	16455
954.263	16360
954.491	16337
954.719	16273
954.948	16187
955.176	16099
955.404	15917
955.632	15904
955.86	15874
956.088	15705
956.316	15702
956.544	15562
956.772	15415
956.999	15341
957.227	15356
957.455	15195
957.683	15111
957.91	14977
958.138	14930
958.365	14871
958.593	14804
958.82	14633
959.048	14709
959.275	14546
959.502	14487
959.73	14497
959.957	14547
960.184	14456
960.411	14341
960.638	14336
960.865	14195
961.092	14266
961.319	14115
961.546	14166
961.773	14300
962	14091
962.227	14192
962.454	14088
962.68	13967
962.907	13927
963.134	13799
963.36	13700
963.587	13636
963.813	13433
964.04	13446
964.266	13269
964.493	13373
964.719	13227
964.945	13138
965.171	12956
965.398	12866
965.624	12941
965.85	12746
966.076	12721
966.302	12604
966.528	12612
966.754	12562
966.98	12538
967.206	12546
967.431	12312
967.657	12422
967.883	12353
968.109	12300
968.334	12169
968.56	12166
968.785	12161
969.011	12108
969.236	12041
969.462	11834
969.687	11879
969.912	11972
970.138	11913
970.363	11805
970.588	11764
970.813	11663
971.038	11641
971.263	11584
971.488	11580
971.713	11582
971.938	11521
972.163	11318
972.388	11276
972.613	11211
972.838	11171
973.062	11120
973.287	11069
973.512	10946
973.736	10914
973.961	10855
974.185	10650
974.41	10748
974.634	10542
974.858	10490
975.083	10478
975.307	10469
975.531	10357
975.755	10226
975.98	10217
976.204	10050
976.428	9993
976.652	10030
976.876	9902
977.1	9967
977.324	9837
977.547	9893
977.771	9808
977.995	9729
978.219	9680
978.442	9727
978.666	9687
978.89	9682
979.113	9592
979.337	9520
979.56	9500
979.783	9561
980.007	9316
980.23	9356
980.453	9310
980.677	9311
980.9	9266
981.123	9059
981.346	9078
981.569	9019
981.792	9058
982.015	8916
982.238	8849
982.461	8831
982.684	8742
982.907	8624
983.129	8622
983.352	8582
983.575	8527
983.797	8442
984.02	8349
984.242	8385
984.465	8236
984.687	8269
984.91	8221
985.132	8127
985.354	8165
985.577	8058
985.799	8059
986.021	7930
986.243	7904
986.465	7879
986.687	7908
986.909	7839
987.131	7836
987.353	7752
987.575	7778
987.797	7668
988.019	7620
988.241	7684
988.462	7566
988.684	7601
988.906	7565
989.127	7546
989.349	7408
989.57	7420
989.792	7454
990.013	7367
990.234	7409
990.456	7368
990.677	7307
990.898	7242
991.119	7181
991.341	7127
991.562	7072
991.783	7092
992.004	6902
992.225	6908
992.446	6930
992.667	6748
992.887	6823
993.108	6675
993.329	6728
993.55	6717
993.77	6536
993.991	6501
994.212	6565
994.432	6440
994.653	6419
994.873	6393
995.093	6280
995.314	6297
995.534	6256
995.754	6220
995.975	6215
996.195	6141
996.415	6182
996.635	6102
996.855	6108
997.075	6054
997.295	6005
997.515	5935
997.735	6049
997.955	5949
998.174	5906
998.394	5897
998.614	5885
998.834	5854
999.053	5885
999.273	5775
999.492	5866
999.712	5801
999.931	5686
1000.151	5645
1000.37	5679
1000.589	5665
1000.809	5538
1001.028	5601
1001.247	5515
1001.466	5302
1001.685	5435
1001.904	5325
1002.123	5322
1002.342	5274
1002.561	5227
1002.78	5185
1002.999	5188
1003.218	5100
1003.436	5141
1003.655	5093
1003.874	5015
1004.092	5027
1004.311	5025
1004.53	4961
1004.748	5026
1004.966	4855
1005.185	4915
1005.403	4858
1005.622	4875
1005.84	4851
1006.058	4805
1006.276	4783
1006.494	5251
1006.712	4747
1006.931	4787
1007.149	4670
1007.367	4672
1007.584	4698
1007.802	4745
1008.02	4628
1008.238	4694
1008.456	4721
1008.673	4581
1008.891	4629
1009.109	4571
1009.326	4623
1009.544	4711
1009.761	4613
1009.979	4733
1010.196	4727
1010.413	4829
1010.631	4873
1010.848	4917
1011.065	4953
1011.282	4851
1011.5	4772
1011.717	4872
1011.934	4796
1012.151	4814
1012.368	4763
1012.585	4655
1012.801	4718
1013.018	4648
1013.235	4623
1013.452	4614
1013.669	4645
1013.885	4552
1014.102	4635
1014.318	4561
1014.535	4518
1014.751	4490
1014.968	4526
1015.184	4473
1015.401	4390
1015.617	4321
1015.833	4252
1016.049	4245
1016.266	4181
1016.482	4178
1016.698	4075
1016.914	4126
1017.13	3997
1017.346	4007
1017.562	3992
1017.778	3951
1017.993	3899
1018.209	3914
1018.425	3926
1018.641	3878
1018.856	3831
1019.072	3863
1019.288	3882
1019.503	3777
1019.719	3742
1019.934	3712
1020.149	3811
1020.365	3737
1020.58	3614
1020.795	3652
1021.011	3510
1021.226	3494
1021.441	3493
1021.656	3365
1021.871	3287
1022.086	3242
1022.301	3168
1022.516	3190
1022.731	3173
1022.946	3079
1023.16	3044
1023.375	2977
1023.59	2947
1023.804	2893
1024.019	2990
1024.234	2774
1024.448	2771
1024.663	2705
1024.877	2718
1025.092	2682
1025.306	2640
1025.52	2536
1025.734	2565
1025.949	2437
1026.163	2409
1026.377	2286
1026.591	2325
1026.805	2217
1027.019	2179
1027.233	2128
1027.447	2050
1027.661	2170
1027.875	2042
1028.088	2034
1028.302	1901
1028.516	1898
1028.73	1826
1028.943	1737
1029.157	1675
1029.37	1565
1029.584	-2
1029.797	-1
1030.011	-1
1030.224	0
