Data from QEP037381__175__14-55-25-842.txt Node

Date: Fri Dec 16 14:55:25 EST 2022
User: dcclab
Spectrometer: QEP03738
Trigger mode: 4
Integration Time (sec): 1.000000E1
Scans to average: 1
Electric dark correction enabled: true
Nonlinearity correction enabled: false
Boxcar width: 0
XAxis mode: Wavelengths
Number of Pixels in Spectrum: 1044
>>>>>Begin Spectral Data<<<<<
784.041	12.5
784.3	0.5
784.558	-1.5
784.817	-3.5
785.075	113137.5
785.334	19792.5
785.592	9313.5
785.851	6489.5
786.109	4871.5
786.368	3814.5
786.626	3040.5
786.884	2540.5
787.143	2107.5
787.401	1783.5
787.659	1599.5
787.917	1350.5
788.175	1234.5
788.433	1083.5
788.691	979.5
788.949	904.5
789.207	853.5
789.465	747.5
789.723	731.5
789.98	666.5
790.238	698.5
790.496	661.5
790.753	649.5
791.011	673.5
791.268	626.5
791.526	592.5
791.783	611.5
792.041	583.5
792.298	514.5
792.556	583.5
792.813	548.5
793.07	538.5
793.327	518.5
793.584	598.5
793.841	521.5
794.099	555.5
794.356	582.5
794.613	495.5
794.869	537.5
795.126	508.5
795.383	496.5
795.64	514.5
795.897	452.5
796.153	510.5
796.41	524.5
796.667	502.5
796.923	509.5
797.18	518.5
797.436	540.5
797.693	495.5
797.949	563.5
798.206	610.5
798.462	517.5
798.718	583.5
798.974	581.5
799.231	607.5
799.487	610.5
799.743	635.5
799.999	671.5
800.255	653.5
800.511	672.5
800.767	735.5
801.023	772.5
801.279	814.5
801.534	870.5
801.79	995.5
802.046	1091.5
802.302	1335.5
802.557	1626.5
802.813	2079.5
803.068	2777.5
803.324	3929.5
803.579	5483.5
803.835	7783.5
804.09	10800.5
804.345	14230.5
804.601	18114.5
804.856	21887.5
805.111	25296.5
805.366	28044.5
805.621	30008.5
805.876	31628.5
806.131	32363.5
806.386	33108.5
806.641	33682.5
806.896	34234.5
807.151	34869.5
807.406	35555.5
807.661	36141.5
807.915	36833.5
808.17	37439.5
808.425	37880.5
808.679	38164.5
808.934	38479.5
809.188	38705.5
809.443	39299.5
809.697	39691.5
809.951	39948.5
810.206	40454.5
810.46	40842.5
810.714	41003.5
810.968	41483.5
811.223	41822.5
811.477	42149.5
811.731	42553.5
811.985	42702.5
812.239	42943.5
812.493	43359.5
812.747	43449.5
813	43628.5
813.254	43674.5
813.508	43934.5
813.762	44063.5
814.015	44348.5
814.269	44711.5
814.522	45035.5
814.776	45697.5
815.03	46132.5
815.283	46923.5
815.536	47730.5
815.79	48187.5
816.043	49006.5
816.296	49725.5
816.55	50277.5
816.803	50725.5
817.056	51529.5
817.309	51989.5
817.562	52375.5
817.815	53011.5
818.068	53492.5
818.321	53894.5
818.574	54731.5
818.827	55318.5
819.079	55854.5
819.332	56794.5
819.585	57688.5
819.838	58183.5
820.09	58693.5
820.343	58957.5
820.595	59161.5
820.848	59809.5
821.1	59997.5
821.353	60042.5
821.605	60003.5
821.857	60008.5
822.11	59975.5
822.362	59725.5
822.614	59721.5
822.866	59673.5
823.118	59703.5
823.37	59728.5
823.622	59777.5
823.874	60079.5
824.126	60174.5
824.378	60390.5
824.63	60611.5
824.882	60824.5
825.134	60740.5
825.385	60618.5
825.637	60803.5
825.888	60435.5
826.14	60585.5
826.392	60245.5
826.643	59975.5
826.895	59706.5
827.146	59387.5
827.397	59428.5
827.649	59461.5
827.9	59495.5
828.151	59445.5
828.402	59583.5
828.653	59905.5
828.905	60057.5
829.156	60227.5
829.407	60052.5
829.658	60017.5
829.909	59922.5
830.159	60182.5
830.41	59666.5
830.661	59419.5
830.912	58883.5
831.162	58810.5
831.413	58559.5
831.664	58595.5
831.914	58667.5
832.165	58559.5
832.415	58709.5
832.666	58576.5
832.916	58757.5
833.167	58636.5
833.417	58672.5
833.667	58428.5
833.917	58094.5
834.168	58265.5
834.418	57875.5
834.668	57686.5
834.918	57384.5
835.168	57256.5
835.418	57088.5
835.668	56836.5
835.918	56816.5
836.167	56669.5
836.417	56509.5
836.667	56545.5
836.917	56439.5
837.166	56511.5
837.416	56495.5
837.666	56449.5
837.915	56434.5
838.165	56173.5
838.414	55910.5
838.663	55835.5
838.913	55993.5
839.162	55522.5
839.411	55516.5
839.661	55298.5
839.91	55248.5
840.159	55220.5
840.408	55255.5
840.657	54838.5
840.906	54960.5
841.155	55070.5
841.404	54958.5
841.653	55000.5
841.902	55088.5
842.15	55371.5
842.399	55202.5
842.648	54989.5
842.897	54860.5
843.145	54676.5
843.394	54132.5
843.642	53973.5
843.891	53877.5
844.139	53578.5
844.388	53431.5
844.636	53141.5
844.884	52937.5
845.133	52947.5
845.381	52773.5
845.629	52984.5
845.877	52779.5
846.125	52798.5
846.373	52785.5
846.621	52299.5
846.869	52198.5
847.117	51823.5
847.365	51592.5
847.613	51706.5
847.861	51249.5
848.108	51115.5
848.356	51086.5
848.604	50975.5
848.851	50938.5
849.099	50999.5
849.346	51178.5
849.594	51250.5
849.841	51572.5
850.089	51667.5
850.336	51816.5
850.583	51692.5
850.831	51178.5
851.078	51166.5
851.325	50858.5
851.572	50825.5
851.819	50446.5
852.066	49743.5
852.313	49243.5
852.56	48940.5
852.807	48763.5
853.054	48588.5
853.301	48420.5
853.548	48514.5
853.794	48540.5
854.041	48727.5
854.288	49003.5
854.534	49301.5
854.781	49401.5
855.028	49120.5
855.274	48998.5
855.52	48727.5
855.767	48388.5
856.013	48503.5
856.26	48594.5
856.506	48065.5
856.752	48021.5
856.998	47877.5
857.244	48007.5
857.49	48376.5
857.736	48286.5
857.982	48279.5
858.228	48320.5
858.474	47925.5
858.72	47550.5
858.966	47148.5
859.212	46945.5
859.458	46324.5
859.703	45942.5
859.949	45351.5
860.195	45184.5
860.44	44909.5
860.686	44735.5
860.931	44568.5
861.177	44445.5
861.422	44429.5
861.667	44120.5
861.913	44176.5
862.158	44272.5
862.403	44423.5
862.648	44463.5
862.893	44581.5
863.138	44396.5
863.384	44475.5
863.629	44205.5
863.873	44275.5
864.118	44103.5
864.363	43761.5
864.608	43708.5
864.853	43543.5
865.098	43291.5
865.342	43118.5
865.587	42976.5
865.832	42905.5
866.076	42929.5
866.321	42652.5
866.565	42461.5
866.81	42392.5
867.054	42273.5
867.298	42035.5
867.543	41854.5
867.787	42000.5
868.031	41687.5
868.275	41622.5
868.519	41583.5
868.764	41524.5
869.008	41350.5
869.252	41305.5
869.496	41216.5
869.739	41175.5
869.983	41060.5
870.227	40883.5
870.471	40918.5
870.715	41042.5
870.958	41152.5
871.202	41156.5
871.446	41180.5
871.689	41030.5
871.933	41087.5
872.176	41066.5
872.42	41017.5
872.663	40921.5
872.906	40793.5
873.15	40642.5
873.393	40526.5
873.636	40277.5
873.879	39831.5
874.122	39607.5
874.366	39022.5
874.609	38818.5
874.852	38651.5
875.095	38351.5
875.337	38144.5
875.58	37905.5
875.823	37853.5
876.066	37786.5
876.309	37770.5
876.551	37430.5
876.794	37168.5
877.037	37154.5
877.279	37161.5
877.522	37134.5
877.764	37234.5
878.007	37086.5
878.249	37097.5
878.491	36927.5
878.734	37029.5
878.976	36932.5
879.218	36633.5
879.46	36319.5
879.702	36246.5
879.945	35954.5
880.187	35691.5
880.429	35580.5
880.671	35321.5
880.912	35269.5
881.154	35137.5
881.396	34836.5
881.638	34937.5
881.88	34949.5
882.121	34853.5
882.363	34703.5
882.605	34782.5
882.846	34639.5
883.088	34444.5
883.329	34407.5
883.571	34438.5
883.812	34464.5
884.053	34811.5
884.295	35235.5
884.536	35212.5
884.777	35133.5
885.018	34935.5
885.259	34806.5
885.5	34656.5
885.742	34750.5
885.982	34522.5
886.223	34338.5
886.464	34248.5
886.705	33962.5
886.946	33844.5
887.187	33412.5
887.428	33166.5
887.668	32691.5
887.909	32446.5
888.15	32096.5
888.39	31890.5
888.631	31596.5
888.871	31320.5
889.111	31228.5
889.352	31134.5
889.592	30823.5
889.833	30675.5
890.073	30486.5
890.313	30188.5
890.553	30040.5
890.793	29996.5
891.033	29734.5
891.273	29511.5
891.513	29471.5
891.753	29560.5
891.993	29381.5
892.233	29434.5
892.473	29506.5
892.713	29561.5
892.952	29303.5
893.192	29342.5
893.432	29302.5
893.671	29304.5
893.911	29138.5
894.15	28994.5
894.39	28715.5
894.629	28668.5
894.869	28355.5
895.108	28354.5
895.347	28041.5
895.587	28094.5
895.826	28142.5
896.065	27942.5
896.304	27835.5
896.543	27902.5
896.782	27700.5
897.021	27600.5
897.26	27415.5
897.499	27562.5
897.738	27396.5
897.977	27057.5
898.216	26962.5
898.454	26737.5
898.693	26573.5
898.932	26541.5
899.17	26252.5
899.409	26232.5
899.647	26083.5
899.886	26058.5
900.124	26266.5
900.363	26144.5
900.601	26082.5
900.839	26100.5
901.078	26153.5
901.316	26175.5
901.554	26335.5
901.792	26168.5
902.03	26151.5
902.268	26071.5
902.506	26089.5
902.744	25904.5
902.982	25837.5
903.22	25472.5
903.458	25135.5
903.695	24914.5
903.933	24565.5
904.171	24277.5
904.409	23980.5
904.646	23749.5
904.884	23413.5
905.121	23259.5
905.359	22918.5
905.596	22819.5
905.833	22565.5
906.071	22467.5
906.308	22504.5
906.545	22362.5
906.783	22132.5
907.02	22301.5
907.257	22125.5
907.494	22048.5
907.731	21980.5
907.968	21867.5
908.205	21723.5
908.442	21559.5
908.679	21506.5
908.915	21345.5
909.152	21193.5
909.389	20849.5
909.626	20859.5
909.862	20733.5
910.099	20651.5
910.335	20648.5
910.572	20398.5
910.808	20408.5
911.045	20257.5
911.281	20255.5
911.518	20233.5
911.754	19940.5
911.99	19972.5
912.226	19706.5
912.463	19585.5
912.699	19552.5
912.935	19286.5
913.171	19197.5
913.407	18969.5
913.643	18831.5
913.879	18691.5
914.114	18561.5
914.35	18329.5
914.586	18211.5
914.822	17962.5
915.057	17965.5
915.293	17736.5
915.529	17603.5
915.764	17763.5
916	17536.5
916.235	17578.5
916.471	17526.5
916.706	17445.5
916.941	17412.5
917.177	17318.5
917.412	17266.5
917.647	17334.5
917.882	17168.5
918.117	17281.5
918.352	17191.5
918.588	17131.5
918.823	17035.5
919.057	16762.5
919.292	16498.5
919.527	16500.5
919.762	16268.5
919.997	16184.5
920.232	16018.5
920.466	15853.5
920.701	15661.5
920.935	15641.5
921.17	15378.5
921.405	15328.5
921.639	15372.5
921.873	15362.5
922.108	15227.5
922.342	15226.5
922.576	15152.5
922.811	14983.5
923.045	15040.5
923.279	14940.5
923.513	14800.5
923.747	14691.5
923.981	14673.5
924.215	14486.5
924.449	14474.5
924.683	14346.5
924.917	14252.5
925.151	14190.5
925.385	14148.5
925.618	14141.5
925.852	14050.5
926.086	13929.5
926.319	14018.5
926.553	13948.5
926.786	13965.5
927.02	13866.5
927.253	13951.5
927.486	13888.5
927.72	13802.5
927.953	13809.5
928.186	13687.5
928.42	13664.5
928.653	13640.5
928.886	13484.5
929.119	13491.5
929.352	13420.5
929.585	13374.5
929.818	13189.5
930.051	13184.5
930.284	13035.5
930.516	12798.5
930.749	12796.5
930.982	12736.5
931.215	12662.5
931.447	12501.5
931.68	12495.5
931.912	12510.5
932.145	12440.5
932.377	12472.5
932.61	12567.5
932.842	12408.5
933.074	12425.5
933.307	12285.5
933.539	12396.5
933.771	12409.5
934.003	12348.5
934.236	12433.5
934.468	12399.5
934.7	12229.5
934.932	12266.5
935.164	12169.5
935.395	12072.5
935.627	12033.5
935.859	12106.5
936.091	12023.5
936.323	11973.5
936.554	11910.5
936.786	11801.5
937.017	11742.5
937.249	11818.5
937.481	11716.5
937.712	11711.5
937.943	11547.5
938.175	11632.5
938.406	11593.5
938.637	11635.5
938.869	11504.5
939.1	11497.5
939.331	11455.5
939.562	11397.5
939.793	11372.5
940.024	11311.5
940.255	11265.5
940.486	11202.5
940.717	11173.5
940.948	11126.5
941.179	10990.5
941.409	10905.5
941.64	11010.5
941.871	10952.5
942.102	10988.5
942.332	10959.5
942.563	10976.5
942.793	10955.5
943.024	10784.5
943.254	10972.5
943.484	10929.5
943.715	10903.5
943.945	10849.5
944.175	10755.5
944.405	10815.5
944.636	10777.5
944.866	10759.5
945.096	10756.5
945.326	10665.5
945.556	10664.5
945.786	10638.5
946.016	10525.5
946.245	10406.5
946.475	10365.5
946.705	10243.5
946.935	10184.5
947.164	10160.5
947.394	10073.5
947.624	10023.5
947.853	10107.5
948.083	9975.5
948.312	9875.5
948.542	9852.5
948.771	9829.5
949	9775.5
949.23	9774.5
949.459	9689.5
949.688	9786.5
949.917	9722.5
950.146	9697.5
950.375	9823.5
950.604	9646.5
950.833	9684.5
951.062	9693.5
951.291	9595.5
951.52	9591.5
951.749	9537.5
951.978	9423.5
952.206	9427.5
952.435	9451.5
952.664	9460.5
952.892	9368.5
953.121	9336.5
953.349	9280.5
953.578	9257.5
953.806	9139.5
954.035	9104.5
954.263	9017.5
954.491	9020.5
954.719	9031.5
954.948	8922.5
955.176	8916.5
955.404	8788.5
955.632	8795.5
955.86	8801.5
956.088	8739.5
956.316	8602.5
956.544	8730.5
956.772	8476.5
956.999	8547.5
957.227	8582.5
957.455	8393.5
957.683	8348.5
957.91	8279.5
958.138	8287.5
958.365	8243.5
958.593	8219.5
958.82	8120.5
959.048	8194.5
959.275	8115.5
959.502	8081.5
959.73	8043.5
959.957	8051.5
960.184	8084.5
960.411	7892.5
960.638	8021.5
960.865	7929.5
961.092	7997.5
961.319	7829.5
961.546	7977.5
961.773	7922.5
962	7882.5
962.227	7912.5
962.454	7822.5
962.68	7716.5
962.907	7758.5
963.134	7634.5
963.36	7622.5
963.587	7610.5
963.813	7509.5
964.04	7493.5
964.266	7390.5
964.493	7410.5
964.719	7418.5
964.945	7397.5
965.171	7209.5
965.398	7265.5
965.624	7219.5
965.85	7104.5
966.076	7095.5
966.302	7148.5
966.528	7078.5
966.754	7017.5
966.98	7036.5
967.206	6986.5
967.431	6935.5
967.657	6964.5
967.883	6922.5
968.109	6832.5
968.334	6827.5
968.56	6829.5
968.785	6740.5
969.011	6676.5
969.236	6766.5
969.462	6680.5
969.687	6711.5
969.912	6691.5
970.138	6703.5
970.363	6597.5
970.588	6657.5
970.813	6557.5
971.038	6549.5
971.263	6516.5
971.488	6539.5
971.713	6493.5
971.938	6407.5
972.163	6356.5
972.388	6324.5
972.613	6299.5
972.838	6292.5
973.062	6220.5
973.287	6217.5
973.512	6115.5
973.736	6179.5
973.961	6099.5
974.185	6034.5
974.41	6102.5
974.634	5960.5
974.858	5870.5
975.083	5964.5
975.307	5900.5
975.531	5785.5
975.755	5747.5
975.98	5726.5
976.204	5660.5
976.428	5681.5
976.652	5591.5
976.876	5555.5
977.1	5636.5
977.324	5577.5
977.547	5576.5
977.771	5536.5
977.995	5504.5
978.219	5454.5
978.442	5540.5
978.666	5454.5
978.89	5434.5
979.113	5424.5
979.337	5429.5
979.56	5418.5
979.783	5417.5
980.007	5311.5
980.23	5302.5
980.453	5228.5
980.677	5257.5
980.9	5227.5
981.123	5083.5
981.346	5198.5
981.569	5188.5
981.792	5127.5
982.015	5084.5
982.238	5034.5
982.461	4994.5
982.684	4950.5
982.907	4915.5
983.129	4890.5
983.352	4970.5
983.575	4880.5
983.797	4807.5
984.02	4792.5
984.242	4794.5
984.465	4744.5
984.687	4784.5
984.91	4751.5
985.132	4724.5
985.354	4657.5
985.577	4624.5
985.799	4604.5
986.021	4559.5
986.243	4546.5
986.465	4516.5
986.687	4581.5
986.909	4601.5
987.131	4488.5
987.353	4445.5
987.575	4505.5
987.797	4419.5
988.019	4365.5
988.241	4396.5
988.462	4345.5
988.684	4409.5
988.906	4443.5
989.127	4405.5
989.349	4264.5
989.57	4305.5
989.792	4322.5
990.013	4322.5
990.234	4309.5
990.456	4327.5
990.677	4295.5
990.898	4168.5
991.119	4201.5
991.341	4217.5
991.562	4117.5
991.783	4157.5
992.004	4063.5
992.225	3967.5
992.446	4046.5
992.667	3926.5
992.887	4010.5
993.108	3860.5
993.329	3979.5
993.55	3961.5
993.77	3783.5
993.991	3814.5
994.212	3864.5
994.432	3838.5
994.653	3821.5
994.873	3782.5
995.093	3651.5
995.314	3710.5
995.534	3721.5
995.754	3680.5
995.975	3739.5
996.195	3597.5
996.415	3655.5
996.635	3622.5
996.855	3647.5
997.075	3616.5
997.295	3585.5
997.515	3551.5
997.735	3626.5
997.955	3571.5
998.174	3560.5
998.394	3492.5
998.614	3520.5
998.834	3460.5
999.053	3544.5
999.273	3478.5
999.492	3556.5
999.712	3441.5
999.931	3367.5
1000.151	3419.5
1000.37	3368.5
1000.589	3443.5
1000.809	3332.5
1001.028	3446.5
1001.247	3295.5
1001.466	3229.5
1001.685	3363.5
1001.904	3254.5
1002.123	3258.5
1002.342	3230.5
1002.561	3158.5
1002.78	3173.5
1002.999	3212.5
1003.218	3153.5
1003.436	3094.5
1003.655	3163.5
1003.874	3067.5
1004.092	3075.5
1004.311	3151.5
1004.53	3048.5
1004.748	3105.5
1004.966	2996.5
1005.185	3079.5
1005.403	3032.5
1005.622	3041.5
1005.84	3075.5
1006.058	2932.5
1006.276	2984.5
1006.494	3442.5
1006.712	2960.5
1006.931	3006.5
1007.149	2917.5
1007.367	2920.5
1007.584	2931.5
1007.802	2978.5
1008.02	2961.5
1008.238	3039.5
1008.456	3059.5
1008.673	2913.5
1008.891	3036.5
1009.109	2963.5
1009.326	3032.5
1009.544	3157.5
1009.761	3047.5
1009.979	3186.5
1010.196	3211.5
1010.413	3391.5
1010.631	3459.5
1010.848	3476.5
1011.065	3518.5
1011.282	3468.5
1011.5	3388.5
1011.717	3489.5
1011.934	3360.5
1012.151	3398.5
1012.368	3416.5
1012.585	3306.5
1012.801	3379.5
1013.018	3332.5
1013.235	3306.5
1013.452	3298.5
1013.669	3339.5
1013.885	3282.5
1014.102	3339.5
1014.318	3295.5
1014.535	3288.5
1014.751	3274.5
1014.968	3249.5
1015.184	3252.5
1015.401	3152.5
1015.617	3175.5
1015.833	3122.5
1016.049	3054.5
1016.266	2997.5
1016.482	3014.5
1016.698	2928.5
1016.914	2960.5
1017.13	2877.5
1017.346	2850.5
1017.562	2920.5
1017.778	2860.5
1017.993	2790.5
1018.209	2857.5
1018.425	2833.5
1018.641	2752.5
1018.856	2770.5
1019.072	2765.5
1019.288	2796.5
1019.503	2784.5
1019.719	2705.5
1019.934	2658.5
1020.149	2717.5
1020.365	2674.5
1020.58	2612.5
1020.795	2621.5
1021.011	2504.5
1021.226	2531.5
1021.441	2464.5
1021.656	2366.5
1021.871	2299.5
1022.086	2268.5
1022.301	2285.5
1022.516	2206.5
1022.731	2249.5
1022.946	2141.5
1023.16	2147.5
1023.375	2063.5
1023.59	2068.5
1023.804	1974.5
1024.019	2061.5
1024.234	1902.5
1024.448	1917.5
1024.663	1834.5
1024.877	1874.5
1025.092	1829.5
1025.306	1828.5
1025.52	1720.5
1025.734	1787.5
1025.949	1707.5
1026.163	1643.5
1026.377	1552.5
1026.591	1601.5
1026.805	1518.5
1027.019	1499.5
1027.233	1433.5
1027.447	1400.5
1027.661	1465.5
1027.875	1406.5
1028.088	1397.5
1028.302	1300.5
1028.516	1272.5
1028.73	1252.5
1028.943	1213.5
1029.157	1148.5
1029.37	1107.5
1029.584	-0.5
1029.797	-4.5
1030.011	-0.5
1030.224	-2.5
