Data from QEP037381__148__14-50-55-838.txt Node

Date: Fri Dec 16 14:50:55 EST 2022
User: dcclab
Spectrometer: QEP03738
Trigger mode: 4
Integration Time (sec): 1.000000E1
Scans to average: 1
Electric dark correction enabled: true
Nonlinearity correction enabled: false
Boxcar width: 0
XAxis mode: Wavelengths
Number of Pixels in Spectrum: 1044
>>>>>Begin Spectral Data<<<<<
784.041	10
784.3	3
784.558	-1
784.817	-3
785.075	115847
785.334	19850
785.592	9229
785.851	6367
786.109	4816
786.368	3763
786.626	3006
786.884	2523
787.143	2109
787.401	1746
787.659	1561
787.917	1341
788.175	1244
788.433	1083
788.691	975
788.949	926
789.207	866
789.465	768
789.723	725
789.98	687
790.238	719
790.496	664
790.753	647
791.011	707
791.268	632
791.526	604
791.783	622
792.041	619
792.298	520
792.556	584
792.813	576
793.07	549
793.327	547
793.584	615
793.841	537
794.099	560
794.356	606
794.613	520
794.869	572
795.126	527
795.383	501
795.64	550
795.897	488
796.153	547
796.41	555
796.667	532
796.923	535
797.18	537
797.436	570
797.693	535
797.949	609
798.206	629
798.462	567
798.718	615
798.974	616
799.231	642
799.487	662
799.743	676
799.999	713
800.255	735
800.511	735
800.767	802
801.023	840
801.279	905
801.534	1012
801.79	1102
802.046	1248
802.302	1515
802.557	1874
802.813	2425
803.068	3272
803.324	4633
803.579	6574
803.835	9294
804.09	12821
804.345	16973
804.601	21649
804.856	26197
805.111	30164
805.366	33314
805.621	35884
805.876	37458
806.131	38551
806.386	39567
806.641	40125
806.896	40880
807.151	41607
807.406	42203
807.661	43092
807.915	43963
808.17	44554
808.425	45103
808.679	45486
808.934	45917
809.188	46390
809.443	46964
809.697	47545
809.951	47798
810.206	48247
810.46	48813
810.714	49119
810.968	49517
811.223	49889
811.477	50382
811.731	50911
811.985	51076
812.239	51561
812.493	51890
812.747	52040
813	52131
813.254	52423
813.508	52773
813.762	52859
814.015	53089
814.269	53631
814.522	54072
814.776	54651
815.03	55445
815.283	56302
815.536	57159
815.79	57999
816.043	58801
816.296	59596
816.55	60177
816.803	60973
817.056	61668
817.309	62151
817.562	62842
817.815	63375
818.068	64015
818.321	64879
818.574	65440
818.827	66372
819.079	66932
819.332	68283
819.585	69055
819.838	69858
820.09	70233
820.343	71034
820.595	71359
820.848	71741
821.1	72219
821.353	72213
821.605	72141
821.857	72261
822.11	71854
822.362	71950
822.614	71845
822.866	71802
823.118	71752
823.37	72009
823.622	72192
823.874	72183
824.126	72598
824.378	72721
824.63	72959
824.882	73204
825.134	73111
825.385	73133
825.637	73188
825.888	72841
826.14	72767
826.392	72408
826.643	72357
826.895	71967
827.146	71873
827.397	71624
827.649	71684
827.9	71505
828.151	71782
828.402	71954
828.653	72204
828.905	72339
829.156	72317
829.407	72470
829.658	72262
829.909	72452
830.159	72258
830.41	71874
830.661	71455
830.912	71074
831.162	70904
831.413	70661
831.664	70622
831.914	70537
832.165	70500
832.415	70674
832.666	70640
832.916	70768
833.167	70544
833.417	70557
833.667	70480
833.917	70247
834.168	70091
834.418	69718
834.668	69392
834.918	69004
835.168	68902
835.418	68757
835.668	68444
835.918	68440
836.167	68233
836.417	68010
836.667	67984
836.917	67828
837.166	67919
837.416	67984
837.666	67750
837.915	67837
838.165	67498
838.414	67522
838.663	67200
838.913	67037
839.162	66925
839.411	66705
839.661	66419
839.91	66335
840.159	66047
840.408	65915
840.657	66017
840.906	66055
841.155	66139
841.404	66007
841.653	65906
841.902	66071
842.15	66203
842.399	66117
842.648	66009
842.897	65918
843.145	65490
843.394	65161
843.642	64809
843.891	64509
844.139	64258
844.388	64031
844.636	63779
844.884	63713
845.133	63397
845.381	63446
845.629	63483
845.877	63388
846.125	63257
846.373	62883
846.621	62689
846.869	62697
847.117	62356
847.365	61989
847.613	61628
847.861	61507
848.108	61595
848.356	61358
848.604	61272
848.851	61141
849.099	61139
849.346	61499
849.594	61823
849.841	61811
850.089	61851
850.336	61739
850.583	62022
850.831	61451
851.078	61249
851.325	60969
851.572	60849
851.819	60246
852.066	59300
852.313	58911
852.56	58547
852.807	58248
853.054	57921
853.301	57898
853.548	58067
853.794	58046
854.041	58340
854.288	58559
854.534	58826
854.781	58951
855.028	58663
855.274	58507
855.52	58177
855.767	57664
856.013	57773
856.26	57985
856.506	57224
856.752	57164
856.998	57295
857.244	57302
857.49	57609
857.736	57721
857.982	57590
858.228	57324
858.474	57277
858.72	56857
858.966	56380
859.212	55996
859.458	55331
859.703	54967
859.949	54233
860.195	53976
860.44	53612
860.686	53353
860.931	53291
861.177	53122
861.422	52928
861.667	52837
861.913	53076
862.158	52958
862.403	53075
862.648	53112
862.893	53169
863.138	53056
863.384	52979
863.629	52853
863.873	52834
864.118	52668
864.363	52408
864.608	52202
864.853	52037
865.098	51747
865.342	51618
865.587	51375
865.832	51243
866.076	51138
866.321	51096
866.565	50947
866.81	50619
867.054	50593
867.298	50251
867.543	49925
867.787	50075
868.031	49769
868.275	49694
868.519	49601
868.764	49388
869.008	49386
869.252	49258
869.496	49159
869.739	49039
869.983	48830
870.227	48813
870.471	48395
870.715	48763
870.958	48753
871.202	48792
871.446	48842
871.689	48932
871.933	49029
872.176	48841
872.42	48773
872.663	48779
872.906	48485
873.15	48194
873.393	47860
873.636	47636
873.879	47407
874.122	46945
874.366	46435
874.609	46062
874.852	45928
875.095	45563
875.337	45487
875.58	45193
875.823	45112
876.066	44977
876.309	44909
876.551	44590
876.794	44328
877.037	44214
877.279	44082
877.522	44237
877.764	44269
878.007	44239
878.249	44043
878.491	44099
878.734	43954
878.976	43983
879.218	43729
879.46	43407
879.702	43204
879.945	42994
880.187	42320
880.429	42325
880.671	42085
880.912	41995
881.154	41819
881.396	41594
881.638	41726
881.88	41455
882.121	41629
882.363	41422
882.605	41209
882.846	41057
883.088	40935
883.329	40895
883.571	40819
883.812	40818
884.053	41075
884.295	41559
884.536	41523
884.777	41446
885.018	41162
885.259	41008
885.5	40802
885.742	41063
885.982	40836
886.223	40681
886.464	40383
886.705	40284
886.946	39947
887.187	39540
887.428	39300
887.668	38896
887.909	38527
888.15	38267
888.39	38010
888.631	37794
888.871	37607
889.111	37215
889.352	37129
889.592	36630
889.833	36495
890.073	36277
890.313	36075
890.553	35893
890.793	35736
891.033	35577
891.273	35198
891.513	35083
891.753	35225
891.993	35010
892.233	35162
892.473	35386
892.713	35157
892.952	35187
893.192	35084
893.432	35025
893.671	34973
893.911	34895
894.15	34657
894.39	34399
894.629	34212
894.869	33908
895.108	33802
895.347	33684
895.587	33547
895.826	33380
896.065	33319
896.304	33324
896.543	33220
896.782	33038
897.021	32926
897.26	32796
897.499	32733
897.738	32646
897.977	32362
898.216	32033
898.454	31795
898.693	31642
898.932	31590
899.17	31471
899.409	31220
899.647	31143
899.886	31061
900.124	31062
900.363	31135
900.601	31150
900.839	31021
901.078	31063
901.316	31125
901.554	31143
901.792	31237
902.03	31047
902.268	30918
902.506	30850
902.744	30774
902.982	30685
903.22	30199
903.458	29911
903.695	29720
903.933	29433
904.171	28775
904.409	28507
904.646	28363
904.884	27875
905.121	27775
905.359	27428
905.596	27210
905.833	26975
906.071	26835
906.308	26722
906.545	26795
906.783	26632
907.02	26586
907.257	26334
907.494	26412
907.731	26306
907.968	26212
908.205	26038
908.442	25823
908.679	25623
908.915	25475
909.152	25191
909.389	25128
909.626	24946
909.862	24824
910.099	24770
910.335	24695
910.572	24436
910.808	24385
911.045	24410
911.281	24252
911.518	24121
911.754	23904
911.99	23840
912.226	23609
912.463	23515
912.699	23324
912.935	23167
913.171	22900
913.407	22687
913.643	22671
913.879	22361
914.114	22207
914.35	21987
914.586	21762
914.822	21548
915.057	21466
915.293	21307
915.529	21200
915.764	21227
916	21200
916.235	21164
916.471	21088
916.706	20931
916.941	20870
917.177	20805
917.412	20848
917.647	20801
917.882	20796
918.117	20790
918.352	20585
918.588	20408
918.823	20325
919.057	20197
919.292	19904
919.527	19819
919.762	19456
919.997	19351
920.232	19131
920.466	18962
920.701	18781
920.935	18669
921.17	18589
921.405	18490
921.639	18364
921.873	18257
922.108	18281
922.342	18207
922.576	18139
922.811	18006
923.045	18022
923.279	17958
923.513	17690
923.747	17708
923.981	17637
924.215	17395
924.449	17298
924.683	17223
924.917	17067
925.151	17005
925.385	17060
925.618	16831
925.852	16847
926.086	16728
926.319	16774
926.553	16797
926.786	16714
927.02	16742
927.253	16735
927.486	16615
927.72	16577
927.953	16573
928.186	16414
928.42	16482
928.653	16295
928.886	16222
929.119	16166
929.352	16074
929.585	16031
929.818	15843
930.051	15688
930.284	15671
930.516	15487
930.749	15378
930.982	15314
931.215	15177
931.447	15023
931.68	15070
931.912	14885
932.145	14894
932.377	14892
932.61	15105
932.842	14782
933.074	14986
933.307	14797
933.539	14941
933.771	14895
934.003	14746
934.236	14776
934.468	14807
934.7	14751
934.932	14775
935.164	14560
935.395	14578
935.627	14516
935.859	14417
936.091	14432
936.323	14397
936.554	14375
936.786	14313
937.017	14096
937.249	14115
937.481	14011
937.712	14045
937.943	13905
938.175	13906
938.406	13831
938.637	13937
938.869	13786
939.1	13823
939.331	13730
939.562	13693
939.793	13674
940.024	13597
940.255	13496
940.486	13466
940.717	13373
940.948	13330
941.179	13219
941.409	13292
941.64	13161
941.871	13159
942.102	13136
942.332	13145
942.563	13137
942.793	13128
943.024	13056
943.254	13091
943.484	13167
943.715	13207
943.945	13036
944.175	12937
944.405	12931
944.636	12908
944.866	12882
945.096	12910
945.326	12741
945.556	12798
945.786	12746
946.016	12539
946.245	12517
946.475	12380
946.705	12273
946.935	12299
947.164	12207
947.394	12148
947.624	12106
947.853	12090
948.083	11971
948.312	12010
948.542	11862
948.771	11777
949	11729
949.23	11742
949.459	11726
949.688	11775
949.917	11660
950.146	11626
950.375	11694
950.604	11533
950.833	11575
951.062	11538
951.291	11537
951.52	11537
951.749	11363
951.978	11356
952.206	11291
952.435	11344
952.664	11245
952.892	11184
953.121	11163
953.349	11168
953.578	11123
953.806	10981
954.035	10916
954.263	10927
954.491	10757
954.719	10785
954.948	10727
955.176	10681
955.404	10576
955.632	10653
955.86	10552
956.088	10436
956.316	10408
956.544	10344
956.772	10279
956.999	10191
957.227	10249
957.455	10040
957.683	10063
957.91	9907
958.138	9905
958.365	9898
958.593	9839
958.82	9767
959.048	9763
959.275	9757
959.502	9672
959.73	9594
959.957	9611
960.184	9651
960.411	9479
960.638	9621
960.865	9440
961.092	9497
961.319	9441
961.546	9512
961.773	9440
962	9401
962.227	9437
962.454	9353
962.68	9286
962.907	9335
963.134	9226
963.36	9197
963.587	9121
963.813	9021
964.04	9022
964.266	8897
964.493	8876
964.719	8796
964.945	8709
965.171	8676
965.398	8729
965.624	8667
965.85	8566
966.076	8485
966.302	8532
966.528	8456
966.754	8406
966.98	8360
967.206	8326
967.431	8207
967.657	8240
967.883	8278
968.109	8286
968.334	8112
968.56	8185
968.785	8142
969.011	8085
969.236	8116
969.462	8041
969.687	8007
969.912	7965
970.138	7984
970.363	7880
970.588	7898
970.813	7861
971.038	7800
971.263	7822
971.488	7745
971.713	7731
971.938	7687
972.163	7547
972.388	7541
972.613	7540
972.838	7487
973.062	7484
973.287	7455
973.512	7369
973.736	7371
973.961	7301
974.185	7297
974.41	7163
974.634	7043
974.858	7106
975.083	7118
975.307	7041
975.531	6972
975.755	6886
975.98	6911
976.204	6784
976.428	6808
976.652	6757
976.876	6695
977.1	6747
977.324	6672
977.547	6648
977.771	6636
977.995	6572
978.219	6497
978.442	6632
978.666	6569
978.89	6513
979.113	6448
979.337	6369
979.56	6381
979.783	6395
980.007	6303
980.23	6296
980.453	6238
980.677	6223
980.9	6244
981.123	6101
981.346	6197
981.569	6104
981.792	6102
982.015	6021
982.238	5993
982.461	6002
982.684	5903
982.907	5855
983.129	5855
983.352	5836
983.575	5773
983.797	5787
984.02	5673
984.242	5664
984.465	5598
984.687	5659
984.91	5668
985.132	5612
985.354	5601
985.577	5477
985.799	5458
986.021	5377
986.243	5399
986.465	5390
986.687	5415
986.909	5436
987.131	5363
987.353	5288
987.575	5319
987.797	5233
988.019	5202
988.241	5206
988.462	5178
988.684	5236
988.906	5197
989.127	5209
989.349	5046
989.57	5070
989.792	5062
990.013	5083
990.234	5036
990.456	5087
990.677	5010
990.898	4977
991.119	4903
991.341	4928
991.562	4824
991.783	4860
992.004	4757
992.225	4717
992.446	4787
992.667	4672
992.887	4669
993.108	4611
993.329	4672
993.55	4631
993.77	4516
993.991	4467
994.212	4489
994.432	4467
994.653	4409
994.873	4386
995.093	4263
995.314	4343
995.534	4360
995.754	4377
995.975	4342
996.195	4216
996.415	4342
996.635	4240
996.855	4286
997.075	4232
997.295	4182
997.515	4165
997.735	4189
997.955	4172
998.174	4126
998.394	4105
998.614	4094
998.834	4034
999.053	4139
999.273	4071
999.492	4127
999.712	4014
999.931	3952
1000.151	3998
1000.37	4008
1000.589	4017
1000.809	3941
1001.028	3962
1001.247	3936
1001.466	3762
1001.685	3871
1001.904	3775
1002.123	3741
1002.342	3744
1002.561	3655
1002.78	3678
1002.999	3725
1003.218	3617
1003.436	3614
1003.655	3648
1003.874	3517
1004.092	3534
1004.311	3597
1004.53	3536
1004.748	3606
1004.966	3490
1005.185	3527
1005.403	3510
1005.622	3469
1005.84	3517
1006.058	3443
1006.276	3418
1006.494	3894
1006.712	3426
1006.931	3466
1007.149	3375
1007.367	3404
1007.584	3395
1007.802	3399
1008.02	3398
1008.238	3501
1008.456	3443
1008.673	3295
1008.891	3414
1009.109	3381
1009.326	3435
1009.544	3515
1009.761	3432
1009.979	3499
1010.196	3566
1010.413	3699
1010.631	3799
1010.848	3828
1011.065	3838
1011.282	3766
1011.5	3727
1011.717	3795
1011.934	3677
1012.151	3709
1012.368	3671
1012.585	3640
1012.801	3635
1013.018	3617
1013.235	3619
1013.452	3599
1013.669	3628
1013.885	3585
1014.102	3615
1014.318	3568
1014.535	3542
1014.751	3569
1014.968	3554
1015.184	3529
1015.401	3437
1015.617	3475
1015.833	3332
1016.049	3310
1016.266	3313
1016.482	3297
1016.698	3163
1016.914	3233
1017.13	3123
1017.346	3145
1017.562	3198
1017.778	3113
1017.993	3045
1018.209	3090
1018.425	3048
1018.641	3015
1018.856	2999
1019.072	3052
1019.288	3073
1019.503	3054
1019.719	2895
1019.934	2963
1020.149	2987
1020.365	2910
1020.58	2839
1020.795	2863
1021.011	2756
1021.226	2750
1021.441	2737
1021.656	2630
1021.871	2534
1022.086	2508
1022.301	2484
1022.516	2436
1022.731	2458
1022.946	2414
1023.16	2326
1023.375	2291
1023.59	2254
1023.804	2187
1024.019	2278
1024.234	2162
1024.448	2167
1024.663	2058
1024.877	2047
1025.092	2041
1025.306	2025
1025.52	1910
1025.734	1995
1025.949	1886
1026.163	1829
1026.377	1770
1026.591	1762
1026.805	1684
1027.019	1679
1027.233	1613
1027.447	1566
1027.661	1639
1027.875	1569
1028.088	1563
1028.302	1460
1028.516	1432
1028.73	1378
1028.943	1365
1029.157	1263
1029.37	1209
1029.584	-4
1029.797	-2
1030.011	-1
1030.224	-2
