Data from QEP037381__161__14-53-05-840.txt Node

Date: Fri Dec 16 14:53:05 EST 2022
User: dcclab
Spectrometer: QEP03738
Trigger mode: 4
Integration Time (sec): 1.000000E1
Scans to average: 1
Electric dark correction enabled: true
Nonlinearity correction enabled: false
Boxcar width: 0
XAxis mode: Wavelengths
Number of Pixels in Spectrum: 1044
>>>>>Begin Spectral Data<<<<<
784.041	11.38
784.3	-0.62
784.558	-3.62
784.817	-6.62
785.075	113596.38
785.334	19921.38
785.592	9372.38
785.851	6520.38
786.109	4883.38
786.368	3794.38
786.626	3099.38
786.884	2568.38
787.143	2147.38
787.401	1784.38
787.659	1602.38
787.917	1373.38
788.175	1244.38
788.433	1088.38
788.691	975.38
788.949	923.38
789.207	865.38
789.465	778.38
789.723	745.38
789.98	685.38
790.238	718.38
790.496	661.38
790.753	644.38
791.011	679.38
791.268	637.38
791.526	600.38
791.783	616.38
792.041	611.38
792.298	520.38
792.556	580.38
792.813	559.38
793.07	530.38
793.327	532.38
793.584	607.38
793.841	533.38
794.099	538.38
794.356	606.38
794.613	514.38
794.869	552.38
795.126	521.38
795.383	498.38
795.64	517.38
795.897	482.38
796.153	528.38
796.41	527.38
796.667	513.38
796.923	525.38
797.18	520.38
797.436	541.38
797.693	517.38
797.949	577.38
798.206	609.38
798.462	548.38
798.718	588.38
798.974	571.38
799.231	623.38
799.487	620.38
799.743	639.38
799.999	681.38
800.255	690.38
800.511	695.38
800.767	744.38
801.023	762.38
801.279	825.38
801.534	922.38
801.79	1040.38
802.046	1150.38
802.302	1403.38
802.557	1703.38
802.813	2219.38
803.068	2895.38
803.324	4105.38
803.579	5805.38
803.835	8155.38
804.09	11208.38
804.345	14842.38
804.601	18872.38
804.856	22946.38
805.111	26434.38
805.366	29323.38
805.621	31529.38
805.876	32950.38
806.131	33898.38
806.386	34640.38
806.641	35235.38
806.896	35801.38
807.151	36473.38
807.406	37080.38
807.661	37747.38
807.915	38524.38
808.17	38957.38
808.425	39400.38
808.679	39774.38
808.934	40323.38
809.188	40585.38
809.443	40990.38
809.697	41339.38
809.951	41775.38
810.206	42417.38
810.46	42586.38
810.714	42997.38
810.968	43357.38
811.223	43491.38
811.477	44126.38
811.731	44386.38
811.985	44698.38
812.239	44979.38
812.493	45214.38
812.747	45316.38
813	45564.38
813.254	45883.38
813.508	46066.38
813.762	46271.38
814.015	46466.38
814.269	46746.38
814.522	47135.38
814.776	47727.38
815.03	48461.38
815.283	48904.38
815.536	49894.38
815.79	50559.38
816.043	51224.38
816.296	51928.38
816.55	52663.38
816.803	53074.38
817.056	53839.38
817.309	54539.38
817.562	54762.38
817.815	55469.38
818.068	55893.38
818.321	56424.38
818.574	57091.38
818.827	57755.38
819.079	58772.38
819.332	59412.38
819.585	59948.38
819.838	60867.38
820.09	61448.38
820.343	61941.38
820.595	62097.38
820.848	62540.38
821.1	62853.38
821.353	62772.38
821.605	62799.38
821.857	62896.38
822.11	62719.38
822.362	62461.38
822.614	62417.38
822.866	62514.38
823.118	62484.38
823.37	62631.38
823.622	62661.38
823.874	62782.38
824.126	62980.38
824.378	63388.38
824.63	63508.38
824.882	63649.38
825.134	63559.38
825.385	63500.38
825.637	63476.38
825.888	63432.38
826.14	63183.38
826.392	63102.38
826.643	62829.38
826.895	62766.38
827.146	62365.38
827.397	62262.38
827.649	62417.38
827.9	62092.38
828.151	62385.38
828.402	62514.38
828.653	62475.38
828.905	63044.38
829.156	62994.38
829.407	62992.38
829.658	62858.38
829.909	62934.38
830.159	62731.38
830.41	62373.38
830.661	62208.38
830.912	61788.38
831.162	61673.38
831.413	61485.38
831.664	61517.38
831.914	61426.38
832.165	61370.38
832.415	61342.38
832.666	61520.38
832.916	61512.38
833.167	61288.38
833.417	61187.38
833.667	61118.38
833.917	60901.38
834.168	60860.38
834.418	60755.38
834.668	60366.38
834.918	60070.38
835.168	60000.38
835.418	59620.38
835.668	59563.38
835.918	59349.38
836.167	59395.38
836.417	59083.38
836.667	59117.38
836.917	59074.38
837.166	58886.38
837.416	59000.38
837.666	58950.38
837.915	58835.38
838.165	58838.38
838.414	58630.38
838.663	58321.38
838.913	58425.38
839.162	57974.38
839.411	58091.38
839.661	57876.38
839.91	57699.38
840.159	57551.38
840.408	57525.38
840.657	57372.38
840.906	57728.38
841.155	57613.38
841.404	57562.38
841.653	57560.38
841.902	57570.38
842.15	57626.38
842.399	57551.38
842.648	57390.38
842.897	57272.38
843.145	57155.38
843.394	56758.38
843.642	56583.38
843.891	56165.38
844.139	56109.38
844.388	55682.38
844.636	55545.38
844.884	55430.38
845.133	55400.38
845.381	55243.38
845.629	55186.38
845.877	55218.38
846.125	55169.38
846.373	54793.38
846.621	54791.38
846.869	54527.38
847.117	54389.38
847.365	54217.38
847.613	53683.38
847.861	53703.38
848.108	53375.38
848.356	53417.38
848.604	53301.38
848.851	53421.38
849.099	53378.38
849.346	53644.38
849.594	53664.38
849.841	53864.38
850.089	53834.38
850.336	53906.38
850.583	54063.38
850.831	53729.38
851.078	53256.38
851.325	53313.38
851.572	53156.38
851.819	52637.38
852.066	52045.38
852.313	51165.38
852.56	51054.38
852.807	50761.38
853.054	50642.38
853.301	50570.38
853.548	50480.38
853.794	50706.38
854.041	50790.38
854.288	51056.38
854.534	51366.38
854.781	51376.38
855.028	51155.38
855.274	51019.38
855.52	50659.38
855.767	50574.38
856.013	50506.38
856.26	50583.38
856.506	49889.38
856.752	49961.38
856.998	50057.38
857.244	50156.38
857.49	50353.38
857.736	50411.38
857.982	50513.38
858.228	50278.38
858.474	49962.38
858.72	49516.38
858.966	49353.38
859.212	48833.38
859.458	48343.38
859.703	47798.38
859.949	47365.38
860.195	47095.38
860.44	46756.38
860.686	46541.38
860.931	46517.38
861.177	46267.38
861.422	46296.38
861.667	46161.38
861.913	46099.38
862.158	46233.38
862.403	46234.38
862.648	46394.38
862.893	46227.38
863.138	46421.38
863.384	46192.38
863.629	46171.38
863.873	46129.38
864.118	46004.38
864.363	45853.38
864.608	45628.38
864.853	45437.38
865.098	45167.38
865.342	45009.38
865.587	44946.38
865.832	44800.38
866.076	44551.38
866.321	44458.38
866.565	44351.38
866.81	44134.38
867.054	44020.38
867.298	43887.38
867.543	43817.38
867.787	43684.38
868.031	43524.38
868.275	43411.38
868.519	43437.38
868.764	43288.38
869.008	43059.38
869.252	43096.38
869.496	42783.38
869.739	42776.38
869.983	42580.38
870.227	42702.38
870.471	42471.38
870.715	42705.38
870.958	42668.38
871.202	42726.38
871.446	42759.38
871.689	42860.38
871.933	42868.38
872.176	42825.38
872.42	42710.38
872.663	42491.38
872.906	42520.38
873.15	42253.38
873.393	42125.38
873.636	41816.38
873.879	41528.38
874.122	41042.38
874.366	40515.38
874.609	40361.38
874.852	40130.38
875.095	39897.38
875.337	39820.38
875.58	39638.38
875.823	39573.38
876.066	39408.38
876.309	39192.38
876.551	39040.38
876.794	38811.38
877.037	38777.38
877.279	38758.38
877.522	38756.38
877.764	38695.38
878.007	38609.38
878.249	38551.38
878.491	38602.38
878.734	38619.38
878.976	38480.38
879.218	38216.38
879.46	38040.38
879.702	37732.38
879.945	37506.38
880.187	37117.38
880.429	36934.38
880.671	36903.38
880.912	36757.38
881.154	36536.38
881.396	36382.38
881.638	36545.38
881.88	36238.38
882.121	36373.38
882.363	36237.38
882.605	35962.38
882.846	35990.38
883.088	35968.38
883.329	35888.38
883.571	35692.38
883.812	35894.38
884.053	36109.38
884.295	36546.38
884.536	36521.38
884.777	36455.38
885.018	36059.38
885.259	36005.38
885.5	36048.38
885.742	36274.38
885.982	36047.38
886.223	35705.38
886.464	35580.38
886.705	35194.38
886.946	35015.38
887.187	34781.38
887.428	34580.38
887.668	34057.38
887.909	33607.38
888.15	33316.38
888.39	33193.38
888.631	33016.38
888.871	32714.38
889.111	32584.38
889.352	32336.38
889.592	32134.38
889.833	31855.38
890.073	31601.38
890.313	31616.38
890.553	31265.38
890.793	31149.38
891.033	31168.38
891.273	30757.38
891.513	30761.38
891.753	30599.38
891.993	30634.38
892.233	30690.38
892.473	30708.38
892.713	30732.38
892.952	30607.38
893.192	30715.38
893.432	30531.38
893.671	30685.38
893.911	30361.38
894.15	30101.38
894.39	30011.38
894.629	29923.38
894.869	29626.38
895.108	29408.38
895.347	29293.38
895.587	29305.38
895.826	29147.38
896.065	28938.38
896.304	29140.38
896.543	28960.38
896.782	28758.38
897.021	28775.38
897.26	28620.38
897.499	28595.38
897.738	28462.38
897.977	28188.38
898.216	28117.38
898.454	27867.38
898.693	27646.38
898.932	27621.38
899.17	27495.38
899.409	27307.38
899.647	27301.38
899.886	27269.38
900.124	27298.38
900.363	27264.38
900.601	27281.38
900.839	27144.38
901.078	27331.38
901.316	27288.38
901.554	27324.38
901.792	27346.38
902.03	27203.38
902.268	27186.38
902.506	27222.38
902.744	27031.38
902.982	26833.38
903.22	26616.38
903.458	26284.38
903.695	25909.38
903.933	25733.38
904.171	25315.38
904.409	24963.38
904.646	24795.38
904.884	24445.38
905.121	24241.38
905.359	23984.38
905.596	23718.38
905.833	23511.38
906.071	23457.38
906.308	23479.38
906.545	23422.38
906.783	23210.38
907.02	23225.38
907.257	23089.38
907.494	23127.38
907.731	22921.38
907.968	22800.38
908.205	22685.38
908.442	22632.38
908.679	22419.38
908.915	22260.38
909.152	22083.38
909.389	21879.38
909.626	21770.38
909.862	21554.38
910.099	21560.38
910.335	21541.38
910.572	21349.38
910.808	21318.38
911.045	21266.38
911.281	20953.38
911.518	21020.38
911.754	20887.38
911.99	20857.38
912.226	20648.38
912.463	20539.38
912.699	20291.38
912.935	20205.38
913.171	20056.38
913.407	19807.38
913.643	19660.38
913.879	19510.38
914.114	19348.38
914.35	19226.38
914.586	19013.38
914.822	18889.38
915.057	18819.38
915.293	18519.38
915.529	18428.38
915.764	18552.38
916	18381.38
916.235	18296.38
916.471	18320.38
916.706	18117.38
916.941	18185.38
917.177	18205.38
917.412	18144.38
917.647	18158.38
917.882	18049.38
918.117	17963.38
918.352	17930.38
918.588	17858.38
918.823	17704.38
919.057	17525.38
919.292	17208.38
919.527	17304.38
919.762	17036.38
919.997	16878.38
920.232	16565.38
920.466	16677.38
920.701	16284.38
920.935	16291.38
921.17	16155.38
921.405	16037.38
921.639	16080.38
921.873	15934.38
922.108	15902.38
922.342	15940.38
922.576	15814.38
922.811	15744.38
923.045	15609.38
923.279	15635.38
923.513	15434.38
923.747	15459.38
923.981	15346.38
924.215	15235.38
924.449	15064.38
924.683	15030.38
924.917	14903.38
925.151	14870.38
925.385	14825.38
925.618	14770.38
925.852	14742.38
926.086	14545.38
926.319	14622.38
926.553	14576.38
926.786	14661.38
927.02	14593.38
927.253	14568.38
927.486	14513.38
927.72	14448.38
927.953	14444.38
928.186	14414.38
928.42	14356.38
928.653	14174.38
928.886	14115.38
929.119	14145.38
929.352	13978.38
929.585	13915.38
929.818	13779.38
930.051	13628.38
930.284	13589.38
930.516	13414.38
930.749	13324.38
930.982	13336.38
931.215	13276.38
931.447	13107.38
931.68	13074.38
931.912	13085.38
932.145	13013.38
932.377	13055.38
932.61	13165.38
932.842	12993.38
933.074	13073.38
933.307	12936.38
933.539	13038.38
933.771	13018.38
934.003	12903.38
934.236	13009.38
934.468	12970.38
934.7	12796.38
934.932	12915.38
935.164	12769.38
935.395	12723.38
935.627	12710.38
935.859	12679.38
936.091	12577.38
936.323	12573.38
936.554	12479.38
936.786	12425.38
937.017	12311.38
937.249	12372.38
937.481	12152.38
937.712	12402.38
937.943	12248.38
938.175	12181.38
938.406	12116.38
938.637	12250.38
938.869	12098.38
939.1	12084.38
939.331	11959.38
939.562	12020.38
939.793	11923.38
940.024	11894.38
940.255	11897.38
940.486	11704.38
940.717	11677.38
940.948	11618.38
941.179	11498.38
941.409	11490.38
941.64	11445.38
941.871	11519.38
942.102	11489.38
942.332	11457.38
942.563	11500.38
942.793	11493.38
943.024	11378.38
943.254	11410.38
943.484	11477.38
943.715	11504.38
943.945	11446.38
944.175	11403.38
944.405	11311.38
944.636	11205.38
944.866	11327.38
945.096	11318.38
945.326	11164.38
945.556	11213.38
945.786	11169.38
946.016	11048.38
946.245	10903.38
946.475	10898.38
946.705	10798.38
946.935	10785.38
947.164	10591.38
947.394	10588.38
947.624	10593.38
947.853	10537.38
948.083	10463.38
948.312	10344.38
948.542	10339.38
948.771	10214.38
949	10256.38
949.23	10175.38
949.459	10241.38
949.688	10263.38
949.917	10260.38
950.146	10210.38
950.375	10213.38
950.604	10093.38
950.833	10169.38
951.062	10160.38
951.291	10112.38
951.52	9988.38
951.749	9952.38
951.978	9943.38
952.206	9949.38
952.435	9853.38
952.664	9897.38
952.892	9856.38
953.121	9745.38
953.349	9806.38
953.578	9720.38
953.806	9614.38
954.035	9594.38
954.263	9525.38
954.491	9405.38
954.719	9397.38
954.948	9338.38
955.176	9293.38
955.404	9168.38
955.632	9294.38
955.86	9212.38
956.088	9148.38
956.316	9087.38
956.544	9127.38
956.772	8991.38
956.999	8955.38
957.227	8942.38
957.455	8786.38
957.683	8787.38
957.91	8757.38
958.138	8658.38
958.365	8649.38
958.593	8569.38
958.82	8521.38
959.048	8631.38
959.275	8534.38
959.502	8481.38
959.73	8438.38
959.957	8469.38
960.184	8438.38
960.411	8379.38
960.638	8418.38
960.865	8302.38
961.092	8374.38
961.319	8263.38
961.546	8265.38
961.773	8314.38
962	8291.38
962.227	8279.38
962.454	8257.38
962.68	8157.38
962.907	8126.38
963.134	8045.38
963.36	8017.38
963.587	8007.38
963.813	7896.38
964.04	7871.38
964.266	7735.38
964.493	7852.38
964.719	7719.38
964.945	7758.38
965.171	7549.38
965.398	7638.38
965.624	7586.38
965.85	7458.38
966.076	7449.38
966.302	7434.38
966.528	7359.38
966.754	7499.38
966.98	7359.38
967.206	7381.38
967.431	7218.38
967.657	7294.38
967.883	7225.38
968.109	7278.38
968.334	7239.38
968.56	7130.38
968.785	7150.38
969.011	7064.38
969.236	7082.38
969.462	7020.38
969.687	7033.38
969.912	7041.38
970.138	7031.38
970.363	6919.38
970.588	6996.38
970.813	6929.38
971.038	6874.38
971.263	6865.38
971.488	6790.38
971.713	6840.38
971.938	6789.38
972.163	6663.38
972.388	6646.38
972.613	6602.38
972.838	6592.38
973.062	6624.38
973.287	6510.38
973.512	6575.38
973.736	6459.38
973.961	6373.38
974.185	6362.38
974.41	6409.38
974.634	6238.38
974.858	6222.38
975.083	6236.38
975.307	6229.38
975.531	6119.38
975.755	6052.38
975.98	6047.38
976.204	5988.38
976.428	5970.38
976.652	5932.38
976.876	5910.38
977.1	5851.38
977.324	5848.38
977.547	5868.38
977.771	5813.38
977.995	5764.38
978.219	5727.38
978.442	5799.38
978.666	5788.38
978.89	5718.38
979.113	5735.38
979.337	5692.38
979.56	5591.38
979.783	5714.38
980.007	5572.38
980.23	5596.38
980.453	5518.38
980.677	5505.38
980.9	5489.38
981.123	5354.38
981.346	5445.38
981.569	5418.38
981.792	5430.38
982.015	5292.38
982.238	5269.38
982.461	5275.38
982.684	5182.38
982.907	5150.38
983.129	5130.38
983.352	5165.38
983.575	5111.38
983.797	5128.38
984.02	5022.38
984.242	5006.38
984.465	4980.38
984.687	5045.38
984.91	5047.38
985.132	4952.38
985.354	4932.38
985.577	4920.38
985.799	4823.38
986.021	4776.38
986.243	4775.38
986.465	4776.38
986.687	4805.38
986.909	4792.38
987.131	4722.38
987.353	4706.38
987.575	4680.38
987.797	4634.38
988.019	4552.38
988.241	4634.38
988.462	4565.38
988.684	4628.38
988.906	4607.38
989.127	4620.38
989.349	4516.38
989.57	4478.38
989.792	4567.38
990.013	4487.38
990.234	4510.38
990.456	4508.38
990.677	4460.38
990.898	4348.38
991.119	4356.38
991.341	4366.38
991.562	4287.38
991.783	4363.38
992.004	4278.38
992.225	4190.38
992.446	4268.38
992.667	4166.38
992.887	4184.38
993.108	4103.38
993.329	4212.38
993.55	4117.38
993.77	4036.38
993.991	3998.38
994.212	3991.38
994.432	3986.38
994.653	3905.38
994.873	3911.38
995.093	3843.38
995.314	3848.38
995.534	3892.38
995.754	3925.38
995.975	3900.38
996.195	3799.38
996.415	3808.38
996.635	3819.38
996.855	3794.38
997.075	3787.38
997.295	3736.38
997.515	3727.38
997.735	3770.38
997.955	3751.38
998.174	3715.38
998.394	3655.38
998.614	3724.38
998.834	3671.38
999.053	3688.38
999.273	3683.38
999.492	3649.38
999.712	3603.38
999.931	3500.38
1000.151	3587.38
1000.37	3518.38
1000.589	3599.38
1000.809	3525.38
1001.028	3546.38
1001.247	3517.38
1001.466	3346.38
1001.685	3498.38
1001.904	3375.38
1002.123	3344.38
1002.342	3325.38
1002.561	3269.38
1002.78	3299.38
1002.999	3326.38
1003.218	3304.38
1003.436	3218.38
1003.655	3266.38
1003.874	3231.38
1004.092	3197.38
1004.311	3229.38
1004.53	3170.38
1004.748	3239.38
1004.966	3159.38
1005.185	3194.38
1005.403	3169.38
1005.622	3174.38
1005.84	3208.38
1006.058	3089.38
1006.276	3138.38
1006.494	3585.38
1006.712	3103.38
1006.931	3166.38
1007.149	3055.38
1007.367	3046.38
1007.584	3068.38
1007.802	3085.38
1008.02	3077.38
1008.238	3177.38
1008.456	3138.38
1008.673	3010.38
1008.891	3126.38
1009.109	3096.38
1009.326	3143.38
1009.544	3225.38
1009.761	3194.38
1009.979	3253.38
1010.196	3291.38
1010.413	3414.38
1010.631	3495.38
1010.848	3571.38
1011.065	3610.38
1011.282	3568.38
1011.5	3418.38
1011.717	3549.38
1011.934	3455.38
1012.151	3476.38
1012.368	3477.38
1012.585	3416.38
1012.801	3425.38
1013.018	3444.38
1013.235	3385.38
1013.452	3380.38
1013.669	3387.38
1013.885	3374.38
1014.102	3400.38
1014.318	3387.38
1014.535	3323.38
1014.751	3324.38
1014.968	3299.38
1015.184	3328.38
1015.401	3231.38
1015.617	3213.38
1015.833	3121.38
1016.049	3132.38
1016.266	3131.38
1016.482	3088.38
1016.698	2942.38
1016.914	2997.38
1017.13	2937.38
1017.346	2966.38
1017.562	2991.38
1017.778	2899.38
1017.993	2867.38
1018.209	2899.38
1018.425	2900.38
1018.641	2869.38
1018.856	2802.38
1019.072	2837.38
1019.288	2885.38
1019.503	2789.38
1019.719	2784.38
1019.934	2755.38
1020.149	2792.38
1020.365	2728.38
1020.58	2672.38
1020.795	2691.38
1021.011	2611.38
1021.226	2515.38
1021.441	2525.38
1021.656	2446.38
1021.871	2354.38
1022.086	2356.38
1022.301	2329.38
1022.516	2291.38
1022.731	2319.38
1022.946	2217.38
1023.16	2192.38
1023.375	2120.38
1023.59	2111.38
1023.804	2061.38
1024.019	2136.38
1024.234	1968.38
1024.448	1978.38
1024.663	1918.38
1024.877	1917.38
1025.092	1907.38
1025.306	1887.38
1025.52	1754.38
1025.734	1853.38
1025.949	1722.38
1026.163	1711.38
1026.377	1618.38
1026.591	1636.38
1026.805	1555.38
1027.019	1554.38
1027.233	1505.38
1027.447	1447.38
1027.661	1501.38
1027.875	1451.38
1028.088	1426.38
1028.302	1367.38
1028.516	1324.38
1028.73	1314.38
1028.943	1262.38
1029.157	1180.38
1029.37	1132.38
1029.584	0.38
1029.797	1.38
1030.011	-0.62
1030.224	-1.62
