Data from QEP037381__159__14-52-45-841.txt Node

Date: Fri Dec 16 14:52:45 EST 2022
User: dcclab
Spectrometer: QEP03738
Trigger mode: 4
Integration Time (sec): 1.000000E1
Scans to average: 1
Electric dark correction enabled: true
Nonlinearity correction enabled: false
Boxcar width: 0
XAxis mode: Wavelengths
Number of Pixels in Spectrum: 1044
>>>>>Begin Spectral Data<<<<<
784.041	11.88
784.3	2.88
784.558	-4.12
784.817	-4.12
785.075	114141.88
785.334	20143.88
785.592	9583.88
785.851	6569.88
786.109	4956.88
786.368	3877.88
786.626	3117.88
786.884	2578.88
787.143	2170.88
787.401	1810.88
787.659	1617.88
787.917	1366.88
788.175	1272.88
788.433	1116.88
788.691	1009.88
788.949	920.88
789.207	860.88
789.465	777.88
789.723	753.88
789.98	712.88
790.238	724.88
790.496	688.88
790.753	667.88
791.011	718.88
791.268	629.88
791.526	609.88
791.783	639.88
792.041	617.88
792.298	536.88
792.556	566.88
792.813	585.88
793.07	560.88
793.327	537.88
793.584	639.88
793.841	539.88
794.099	553.88
794.356	627.88
794.613	528.88
794.869	563.88
795.126	543.88
795.383	535.88
795.64	544.88
795.897	492.88
796.153	562.88
796.41	536.88
796.667	531.88
796.923	536.88
797.18	514.88
797.436	576.88
797.693	539.88
797.949	618.88
798.206	634.88
798.462	545.88
798.718	618.88
798.974	611.88
799.231	661.88
799.487	675.88
799.743	709.88
799.999	744.88
800.255	731.88
800.511	736.88
800.767	804.88
801.023	834.88
801.279	893.88
801.534	1014.88
801.79	1134.88
802.046	1268.88
802.302	1562.88
802.557	1904.88
802.813	2502.88
803.068	3293.88
803.324	4676.88
803.579	6672.88
803.835	9377.88
804.09	13014.88
804.345	17231.88
804.601	21848.88
804.856	26493.88
805.111	30553.88
805.366	33953.88
805.621	36458.88
805.876	37950.88
806.131	39254.88
806.386	40187.88
806.641	41054.88
806.896	41626.88
807.151	42436.88
807.406	43215.88
807.661	43866.88
807.915	44824.88
808.17	45457.88
808.425	45886.88
808.679	46389.88
808.934	46950.88
809.188	47273.88
809.443	47917.88
809.697	48643.88
809.951	48773.88
810.206	49339.88
810.46	49552.88
810.714	50214.88
810.968	50625.88
811.223	50998.88
811.477	51566.88
811.731	51816.88
811.985	52150.88
812.239	52424.88
812.493	52944.88
812.747	53094.88
813	53290.88
813.254	53276.88
813.508	53814.88
813.762	54053.88
814.015	54205.88
814.269	54644.88
814.522	55350.88
814.776	55859.88
815.03	56689.88
815.283	57457.88
815.536	58258.88
815.79	59390.88
816.043	60179.88
816.296	60799.88
816.55	61725.88
816.803	62401.88
817.056	63233.88
817.309	63867.88
817.562	64294.88
817.815	65101.88
818.068	65631.88
818.321	66421.88
818.574	67067.88
818.827	68099.88
819.079	68782.88
819.332	69929.88
819.585	70644.88
819.838	71490.88
820.09	72088.88
820.343	72689.88
820.595	73288.88
820.848	73632.88
821.1	73870.88
821.353	73775.88
821.605	73917.88
821.857	74063.88
822.11	73733.88
822.362	73730.88
822.614	73422.88
822.866	73535.88
823.118	73469.88
823.37	73630.88
823.622	73844.88
823.874	73856.88
824.126	74404.88
824.378	74656.88
824.63	74751.88
824.882	74994.88
825.134	75076.88
825.385	74981.88
825.637	74829.88
825.888	74773.88
826.14	74556.88
826.392	74302.88
826.643	73954.88
826.895	73800.88
827.146	73681.88
827.397	73635.88
827.649	73493.88
827.9	73412.88
828.151	73627.88
828.402	73973.88
828.653	74016.88
828.905	74307.88
829.156	74211.88
829.407	74452.88
829.658	74538.88
829.909	74394.88
830.159	74155.88
830.41	73956.88
830.661	73490.88
830.912	73104.88
831.162	72753.88
831.413	72684.88
831.664	72529.88
831.914	72835.88
832.165	72576.88
832.415	72688.88
832.666	72661.88
832.916	72719.88
833.167	72570.88
833.417	72489.88
833.667	72522.88
833.917	72209.88
834.168	72115.88
834.418	71848.88
834.668	71583.88
834.918	71159.88
835.168	70863.88
835.418	70656.88
835.668	70723.88
835.918	70397.88
836.167	70300.88
836.417	70262.88
836.667	70225.88
836.917	69961.88
837.166	70090.88
837.416	70034.88
837.666	69974.88
837.915	69777.88
838.165	69718.88
838.414	69375.88
838.663	69409.88
838.913	69305.88
839.162	69015.88
839.411	69067.88
839.661	68580.88
839.91	68380.88
840.159	68341.88
840.408	68063.88
840.657	68183.88
840.906	68331.88
841.155	68385.88
841.404	68260.88
841.653	68163.88
841.902	68335.88
842.15	68496.88
842.399	68574.88
842.648	68286.88
842.897	68232.88
843.145	67837.88
843.394	67507.88
843.642	67164.88
843.891	66923.88
844.139	66591.88
844.388	66400.88
844.636	65936.88
844.884	65916.88
845.133	65675.88
845.381	65666.88
845.629	65680.88
845.877	65583.88
846.125	65481.88
846.373	65325.88
846.621	65150.88
846.869	65030.88
847.117	64560.88
847.365	64294.88
847.613	64080.88
847.861	63831.88
848.108	63773.88
848.356	63561.88
848.604	63563.88
848.851	63655.88
849.099	63591.88
849.346	63943.88
849.594	64115.88
849.841	64181.88
850.089	64369.88
850.336	64359.88
850.583	64293.88
850.831	63965.88
851.078	63383.88
851.325	63303.88
851.572	63011.88
851.819	62748.88
852.066	61838.88
852.313	61311.88
852.56	60912.88
852.807	60646.88
853.054	60286.88
853.301	60354.88
853.548	60339.88
853.794	60494.88
854.041	60526.88
854.288	60941.88
854.534	61342.88
854.781	61214.88
855.028	61127.88
855.274	60863.88
855.52	60656.88
855.767	60176.88
856.013	60096.88
856.26	60180.88
856.506	59596.88
856.752	59607.88
856.998	59852.88
857.244	59883.88
857.49	59958.88
857.736	60203.88
857.982	60242.88
858.228	60097.88
858.474	59726.88
858.72	59122.88
858.966	58729.88
859.212	58516.88
859.458	57748.88
859.703	57198.88
859.949	56740.88
860.195	56315.88
860.44	55889.88
860.686	55921.88
860.931	55733.88
861.177	55425.88
861.422	55366.88
861.667	55246.88
861.913	55320.88
862.158	55365.88
862.403	55682.88
862.648	55670.88
862.893	55806.88
863.138	55633.88
863.384	55461.88
863.629	55436.88
863.873	55307.88
864.118	55062.88
864.363	54970.88
864.608	54699.88
864.853	54608.88
865.098	54383.88
865.342	54076.88
865.587	53768.88
865.832	53803.88
866.076	53651.88
866.321	53504.88
866.565	53224.88
866.81	53162.88
867.054	53055.88
867.298	52966.88
867.543	52555.88
867.787	52524.88
868.031	52525.88
868.275	52120.88
868.519	52360.88
868.764	52063.88
869.008	51773.88
869.252	51598.88
869.496	51356.88
869.739	51277.88
869.983	51377.88
870.227	51220.88
870.471	51106.88
870.715	51251.88
870.958	51304.88
871.202	51394.88
871.446	51350.88
871.689	51399.88
871.933	51539.88
872.176	51447.88
872.42	51435.88
872.663	51212.88
872.906	50986.88
873.15	50888.88
873.393	50469.88
873.636	50103.88
873.879	49866.88
874.122	49435.88
874.366	48739.88
874.609	48539.88
874.852	48280.88
875.095	48028.88
875.337	47950.88
875.58	47764.88
875.823	47494.88
876.066	47388.88
876.309	47247.88
876.551	46920.88
876.794	46629.88
877.037	46606.88
877.279	46569.88
877.522	46638.88
877.764	46718.88
878.007	46535.88
878.249	46525.88
878.491	46427.88
878.734	46625.88
878.976	46394.88
879.218	46057.88
879.46	45885.88
879.702	45625.88
879.945	45315.88
880.187	44830.88
880.429	44617.88
880.671	44326.88
880.912	44255.88
881.154	44072.88
881.396	43976.88
881.638	43962.88
881.88	44018.88
882.121	43715.88
882.363	43642.88
882.605	43500.88
882.846	43445.88
883.088	43401.88
883.329	43120.88
883.571	43062.88
883.812	43023.88
884.053	43436.88
884.295	43766.88
884.536	43840.88
884.777	43567.88
885.018	43318.88
885.259	43186.88
885.5	43104.88
885.742	43398.88
885.982	43031.88
886.223	42863.88
886.464	42765.88
886.705	42472.88
886.946	42324.88
887.187	41875.88
887.428	41593.88
887.668	41122.88
887.909	40859.88
888.15	40456.88
888.39	40144.88
888.631	40010.88
888.871	39721.88
889.111	39414.88
889.352	39167.88
889.592	39015.88
889.833	38586.88
890.073	38431.88
890.313	38274.88
890.553	38029.88
890.793	37828.88
891.033	37717.88
891.273	37439.88
891.513	37198.88
891.753	37340.88
891.993	37178.88
892.233	37227.88
892.473	37354.88
892.713	37200.88
892.952	37378.88
893.192	37359.88
893.432	37052.88
893.671	37013.88
893.911	37000.88
894.15	36714.88
894.39	36438.88
894.629	36361.88
894.869	35994.88
895.108	35869.88
895.347	35705.88
895.587	35501.88
895.826	35416.88
896.065	35361.88
896.304	35257.88
896.543	35239.88
896.782	35000.88
897.021	34983.88
897.26	34762.88
897.499	34658.88
897.738	34486.88
897.977	34372.88
898.216	33945.88
898.454	33703.88
898.693	33534.88
898.932	33409.88
899.17	33264.88
899.409	33158.88
899.647	33113.88
899.886	32861.88
900.124	33030.88
900.363	33051.88
900.601	33001.88
900.839	32914.88
901.078	33013.88
901.316	32894.88
901.554	32975.88
901.792	32972.88
902.03	32884.88
902.268	32833.88
902.506	32841.88
902.744	32585.88
902.982	32256.88
903.22	32118.88
903.458	31867.88
903.695	31486.88
903.933	31095.88
904.171	30744.88
904.409	30256.88
904.646	30056.88
904.884	29628.88
905.121	29427.88
905.359	29122.88
905.596	28904.88
905.833	28600.88
906.071	28617.88
906.308	28445.88
906.545	28299.88
906.783	28272.88
907.02	28129.88
907.257	28080.88
907.494	28062.88
907.731	27932.88
907.968	27789.88
908.205	27586.88
908.442	27420.88
908.679	27224.88
908.915	27106.88
909.152	26984.88
909.389	26614.88
909.626	26466.88
909.862	26327.88
910.099	26130.88
910.335	26091.88
910.572	25917.88
910.808	25923.88
911.045	25839.88
911.281	25601.88
911.518	25579.88
911.754	25378.88
911.99	25356.88
912.226	25076.88
912.463	24875.88
912.699	24636.88
912.935	24597.88
913.171	24414.88
913.407	24138.88
913.643	24029.88
913.879	23743.88
914.114	23491.88
914.35	23408.88
914.586	23058.88
914.822	22811.88
915.057	22873.88
915.293	22565.88
915.529	22501.88
915.764	22518.88
916	22426.88
916.235	22294.88
916.471	22269.88
916.706	22110.88
916.941	22241.88
917.177	22013.88
917.412	22129.88
917.647	22006.88
917.882	21881.88
918.117	21846.88
918.352	21792.88
918.588	21842.88
918.823	21605.88
919.057	21342.88
919.292	21071.88
919.527	20991.88
919.762	20632.88
919.997	20642.88
920.232	20270.88
920.466	20210.88
920.701	19981.88
920.935	19829.88
921.17	19755.88
921.405	19500.88
921.639	19660.88
921.873	19460.88
922.108	19307.88
922.342	19417.88
922.576	19201.88
922.811	19158.88
923.045	19157.88
923.279	19014.88
923.513	18786.88
923.747	18740.88
923.981	18572.88
924.215	18590.88
924.449	18322.88
924.683	18213.88
924.917	18047.88
925.151	18003.88
925.385	18025.88
925.618	17911.88
925.852	17863.88
926.086	17761.88
926.319	17793.88
926.553	17738.88
926.786	17802.88
927.02	17693.88
927.253	17689.88
927.486	17662.88
927.72	17519.88
927.953	17588.88
928.186	17457.88
928.42	17468.88
928.653	17288.88
928.886	17212.88
929.119	17224.88
929.352	17054.88
929.585	16921.88
929.818	16785.88
930.051	16637.88
930.284	16475.88
930.516	16400.88
930.749	16212.88
930.982	16188.88
931.215	16110.88
931.447	15983.88
931.68	16002.88
931.912	15862.88
932.145	15830.88
932.377	15800.88
932.61	15973.88
932.842	15742.88
933.074	15836.88
933.307	15777.88
933.539	15853.88
933.771	15813.88
934.003	15714.88
934.236	15765.88
934.468	15764.88
934.7	15653.88
934.932	15623.88
935.164	15557.88
935.395	15470.88
935.627	15409.88
935.859	15366.88
936.091	15173.88
936.323	15325.88
936.554	15183.88
936.786	15027.88
937.017	14992.88
937.249	14971.88
937.481	14829.88
937.712	14948.88
937.943	14818.88
938.175	14769.88
938.406	14723.88
938.637	14742.88
938.869	14608.88
939.1	14700.88
939.331	14577.88
939.562	14542.88
939.793	14505.88
940.024	14461.88
940.255	14305.88
940.486	14270.88
940.717	14197.88
940.948	14045.88
941.179	14019.88
941.409	13998.88
941.64	13985.88
941.871	13995.88
942.102	13895.88
942.332	13977.88
942.563	13969.88
942.793	13946.88
943.024	13810.88
943.254	13918.88
943.484	13891.88
943.715	13848.88
943.945	13781.88
944.175	13712.88
944.405	13656.88
944.636	13702.88
944.866	13716.88
945.096	13761.88
945.326	13547.88
945.556	13473.88
945.786	13533.88
946.016	13395.88
946.245	13274.88
946.475	13203.88
946.705	13011.88
946.935	12979.88
947.164	12955.88
947.394	12849.88
947.624	12789.88
947.853	12799.88
948.083	12760.88
948.312	12587.88
948.542	12499.88
948.771	12395.88
949	12472.88
949.23	12414.88
949.459	12481.88
949.688	12416.88
949.917	12372.88
950.146	12378.88
950.375	12360.88
950.604	12257.88
950.833	12339.88
951.062	12223.88
951.291	12166.88
951.52	12151.88
951.749	12062.88
951.978	12031.88
952.206	11956.88
952.435	11945.88
952.664	11962.88
952.892	11867.88
953.121	11827.88
953.349	11778.88
953.578	11731.88
953.806	11560.88
954.035	11554.88
954.263	11503.88
954.491	11479.88
954.719	11369.88
954.948	11301.88
955.176	11257.88
955.404	11168.88
955.632	11244.88
955.86	11229.88
956.088	11132.88
956.316	11072.88
956.544	11010.88
956.772	10953.88
956.999	10856.88
957.227	10780.88
957.455	10705.88
957.683	10645.88
957.91	10571.88
958.138	10510.88
958.365	10421.88
958.593	10379.88
958.82	10270.88
959.048	10376.88
959.275	10257.88
959.502	10265.88
959.73	10158.88
959.957	10228.88
960.184	10186.88
960.411	10112.88
960.638	10129.88
960.865	10052.88
961.092	10063.88
961.319	9909.88
961.546	10099.88
961.773	10019.88
962	9984.88
962.227	9923.88
962.454	9941.88
962.68	9908.88
962.907	9847.88
963.134	9746.88
963.36	9719.88
963.587	9590.88
963.813	9507.88
964.04	9474.88
964.266	9434.88
964.493	9405.88
964.719	9361.88
964.945	9309.88
965.171	9071.88
965.398	9159.88
965.624	9119.88
965.85	8977.88
966.076	8938.88
966.302	9043.88
966.528	8900.88
966.754	8861.88
966.98	8899.88
967.206	8775.88
967.431	8722.88
967.657	8791.88
967.883	8775.88
968.109	8706.88
968.334	8648.88
968.56	8635.88
968.785	8575.88
969.011	8564.88
969.236	8532.88
969.462	8437.88
969.687	8402.88
969.912	8468.88
970.138	8460.88
970.363	8323.88
970.588	8390.88
970.813	8228.88
971.038	8236.88
971.263	8238.88
971.488	8193.88
971.713	8187.88
971.938	8125.88
972.163	7984.88
972.388	7950.88
972.613	7968.88
972.838	7924.88
973.062	7973.88
973.287	7822.88
973.512	7724.88
973.736	7704.88
973.961	7646.88
974.185	7663.88
974.41	7638.88
974.634	7506.88
974.858	7484.88
975.083	7447.88
975.307	7445.88
975.531	7392.88
975.755	7297.88
975.98	7238.88
976.204	7174.88
976.428	7098.88
976.652	7094.88
976.876	7062.88
977.1	7046.88
977.324	7012.88
977.547	7072.88
977.771	7007.88
977.995	6979.88
978.219	6894.88
978.442	6920.88
978.666	6846.88
978.89	6862.88
979.113	6773.88
979.337	6777.88
979.56	6738.88
979.783	6748.88
980.007	6657.88
980.23	6686.88
980.453	6623.88
980.677	6647.88
980.9	6595.88
981.123	6405.88
981.346	6478.88
981.569	6459.88
981.792	6468.88
982.015	6375.88
982.238	6274.88
982.461	6292.88
982.684	6260.88
982.907	6176.88
983.129	6132.88
983.352	6156.88
983.575	6091.88
983.797	6042.88
984.02	5958.88
984.242	5984.88
984.465	6002.88
984.687	5962.88
984.91	5945.88
985.132	5860.88
985.354	5857.88
985.577	5799.88
985.799	5772.88
986.021	5640.88
986.243	5651.88
986.465	5646.88
986.687	5709.88
986.909	5682.88
987.131	5648.88
987.353	5571.88
987.575	5617.88
987.797	5570.88
988.019	5463.88
988.241	5495.88
988.462	5419.88
988.684	5467.88
988.906	5497.88
989.127	5460.88
989.349	5294.88
989.57	5381.88
989.792	5410.88
990.013	5327.88
990.234	5377.88
990.456	5341.88
990.677	5318.88
990.898	5194.88
991.119	5205.88
991.341	5210.88
991.562	5170.88
991.783	5096.88
992.004	4983.88
992.225	4961.88
992.446	5076.88
992.667	4885.88
992.887	4934.88
993.108	4819.88
993.329	4915.88
993.55	4862.88
993.77	4767.88
993.991	4737.88
994.212	4715.88
994.432	4671.88
994.653	4693.88
994.873	4667.88
995.093	4508.88
995.314	4529.88
995.534	4588.88
995.754	4561.88
995.975	4576.88
996.195	4444.88
996.415	4527.88
996.635	4449.88
996.855	4464.88
997.075	4395.88
997.295	4414.88
997.515	4357.88
997.735	4432.88
997.955	4345.88
998.174	4371.88
998.394	4275.88
998.614	4379.88
998.834	4288.88
999.053	4301.88
999.273	4266.88
999.492	4329.88
999.712	4206.88
999.931	4139.88
1000.151	4190.88
1000.37	4145.88
1000.589	4173.88
1000.809	4076.88
1001.028	4150.88
1001.247	4083.88
1001.466	3909.88
1001.685	4106.88
1001.904	3965.88
1002.123	3923.88
1002.342	3907.88
1002.561	3853.88
1002.78	3872.88
1002.999	3916.88
1003.218	3844.88
1003.436	3783.88
1003.655	3782.88
1003.874	3723.88
1004.092	3693.88
1004.311	3774.88
1004.53	3647.88
1004.748	3708.88
1004.966	3683.88
1005.185	3681.88
1005.403	3675.88
1005.622	3653.88
1005.84	3662.88
1006.058	3529.88
1006.276	3574.88
1006.494	4065.88
1006.712	3532.88
1006.931	3606.88
1007.149	3498.88
1007.367	3513.88
1007.584	3530.88
1007.802	3564.88
1008.02	3553.88
1008.238	3595.88
1008.456	3585.88
1008.673	3464.88
1008.891	3593.88
1009.109	3516.88
1009.326	3611.88
1009.544	3710.88
1009.761	3629.88
1009.979	3671.88
1010.196	3704.88
1010.413	3841.88
1010.631	3919.88
1010.848	3932.88
1011.065	3946.88
1011.282	3926.88
1011.5	3851.88
1011.717	3945.88
1011.934	3877.88
1012.151	3890.88
1012.368	3816.88
1012.585	3743.88
1012.801	3797.88
1013.018	3782.88
1013.235	3735.88
1013.452	3732.88
1013.669	3770.88
1013.885	3734.88
1014.102	3791.88
1014.318	3709.88
1014.535	3629.88
1014.751	3678.88
1014.968	3666.88
1015.184	3654.88
1015.401	3537.88
1015.617	3593.88
1015.833	3500.88
1016.049	3485.88
1016.266	3457.88
1016.482	3420.88
1016.698	3261.88
1016.914	3362.88
1017.13	3282.88
1017.346	3239.88
1017.562	3289.88
1017.778	3281.88
1017.993	3160.88
1018.209	3215.88
1018.425	3212.88
1018.641	3170.88
1018.856	3124.88
1019.072	3116.88
1019.288	3144.88
1019.503	3124.88
1019.719	3036.88
1019.934	3010.88
1020.149	3130.88
1020.365	3027.88
1020.58	2941.88
1020.795	2942.88
1021.011	2899.88
1021.226	2822.88
1021.441	2828.88
1021.656	2703.88
1021.871	2643.88
1022.086	2597.88
1022.301	2588.88
1022.516	2539.88
1022.731	2572.88
1022.946	2453.88
1023.16	2437.88
1023.375	2381.88
1023.59	2370.88
1023.804	2333.88
1024.019	2377.88
1024.234	2217.88
1024.448	2224.88
1024.663	2119.88
1024.877	2116.88
1025.092	2139.88
1025.306	2118.88
1025.52	1988.88
1025.734	2054.88
1025.949	1955.88
1026.163	1901.88
1026.377	1802.88
1026.591	1842.88
1026.805	1760.88
1027.019	1757.88
1027.233	1674.88
1027.447	1632.88
1027.661	1713.88
1027.875	1631.88
1028.088	1608.88
1028.302	1495.88
1028.516	1494.88
1028.73	1440.88
1028.943	1416.88
1029.157	1334.88
1029.37	1252.88
1029.584	0.88
1029.797	-1.12
1030.011	-2.12
1030.224	-4.12
