Data from QEP037381__157__14-52-25-840.txt Node

Date: Fri Dec 16 14:52:25 EST 2022
User: dcclab
Spectrometer: QEP03738
Trigger mode: 4
Integration Time (sec): 1.000000E1
Scans to average: 1
Electric dark correction enabled: true
Nonlinearity correction enabled: false
Boxcar width: 0
XAxis mode: Wavelengths
Number of Pixels in Spectrum: 1044
>>>>>Begin Spectral Data<<<<<
784.041	14.5
784.3	0.5
784.558	1.5
784.817	-7.5
785.075	117752.5
785.334	20465.5
785.592	9543.5
785.851	6613.5
786.109	4984.5
786.368	3858.5
786.626	3136.5
786.884	2610.5
787.143	2190.5
787.401	1789.5
787.659	1624.5
787.917	1432.5
788.175	1267.5
788.433	1118.5
788.691	1021.5
788.949	935.5
789.207	883.5
789.465	785.5
789.723	751.5
789.98	676.5
790.238	708.5
790.496	679.5
790.753	662.5
791.011	683.5
791.268	625.5
791.526	623.5
791.783	619.5
792.041	585.5
792.298	512.5
792.556	581.5
792.813	560.5
793.07	538.5
793.327	523.5
793.584	605.5
793.841	551.5
794.099	561.5
794.356	615.5
794.613	507.5
794.869	546.5
795.126	520.5
795.383	493.5
795.64	526.5
795.897	473.5
796.153	532.5
796.41	523.5
796.667	500.5
796.923	524.5
797.18	531.5
797.436	554.5
797.693	529.5
797.949	575.5
798.206	609.5
798.462	529.5
798.718	609.5
798.974	590.5
799.231	637.5
799.487	632.5
799.743	630.5
799.999	669.5
800.255	692.5
800.511	701.5
800.767	744.5
801.023	776.5
801.279	840.5
801.534	917.5
801.79	1028.5
802.046	1139.5
802.302	1401.5
802.557	1683.5
802.813	2186.5
803.068	2933.5
803.324	4138.5
803.579	5802.5
803.835	8196.5
804.09	11374.5
804.345	15019.5
804.601	19087.5
804.856	23042.5
805.111	26714.5
805.366	29732.5
805.621	31680.5
805.876	33322.5
806.131	34234.5
806.386	34949.5
806.641	35671.5
806.896	36182.5
807.151	36847.5
807.406	37265.5
807.661	38137.5
807.915	38832.5
808.17	39621.5
808.425	40022.5
808.679	40201.5
808.934	40791.5
809.188	41060.5
809.443	41451.5
809.697	41975.5
809.951	42222.5
810.206	42704.5
810.46	43012.5
810.714	43514.5
810.968	43806.5
811.223	44119.5
811.477	44588.5
811.731	45030.5
811.985	45166.5
812.239	45244.5
812.493	45658.5
812.747	45979.5
813	46050.5
813.254	46276.5
813.508	46600.5
813.762	46739.5
814.015	46832.5
814.269	47311.5
814.522	47562.5
814.776	48235.5
815.03	48884.5
815.283	49527.5
815.536	50446.5
815.79	51121.5
816.043	51719.5
816.296	52488.5
816.55	53151.5
816.803	53602.5
817.056	54413.5
817.309	54859.5
817.562	55407.5
817.815	55893.5
818.068	56564.5
818.321	57150.5
818.574	57699.5
818.827	58286.5
819.079	59078.5
819.332	60033.5
819.585	60691.5
819.838	61262.5
820.09	61778.5
820.343	62531.5
820.595	62716.5
820.848	63084.5
821.1	63417.5
821.353	63460.5
821.605	63365.5
821.857	63432.5
822.11	63040.5
822.362	62909.5
822.614	63004.5
822.866	62852.5
823.118	62875.5
823.37	63067.5
823.622	63309.5
823.874	63415.5
824.126	63611.5
824.378	63760.5
824.63	63912.5
824.882	63971.5
825.134	63978.5
825.385	63953.5
825.637	63944.5
825.888	63848.5
826.14	63785.5
826.392	63374.5
826.643	63127.5
826.895	63121.5
827.146	62903.5
827.397	62660.5
827.649	62708.5
827.9	62515.5
828.151	62825.5
828.402	62989.5
828.653	63155.5
828.905	63196.5
829.156	63203.5
829.407	63317.5
829.658	63197.5
829.909	63285.5
830.159	63030.5
830.41	62775.5
830.661	62587.5
830.912	61854.5
831.162	61961.5
831.413	61713.5
831.664	61897.5
831.914	61627.5
832.165	61662.5
832.415	61616.5
832.666	61669.5
832.916	61651.5
833.167	61653.5
833.417	61385.5
833.667	61295.5
833.917	61075.5
834.168	61075.5
834.418	60790.5
834.668	60686.5
834.918	60270.5
835.168	60302.5
835.418	59778.5
835.668	59780.5
835.918	59569.5
836.167	59457.5
836.417	59236.5
836.667	59223.5
836.917	59184.5
837.166	59012.5
837.416	59145.5
837.666	59016.5
837.915	58997.5
838.165	58878.5
838.414	58685.5
838.663	58517.5
838.913	58412.5
839.162	58170.5
839.411	58113.5
839.661	57870.5
839.91	57699.5
840.159	57688.5
840.408	57412.5
840.657	57597.5
840.906	57428.5
841.155	57317.5
841.404	57434.5
841.653	57518.5
841.902	57621.5
842.15	57615.5
842.399	57623.5
842.648	57462.5
842.897	57236.5
843.145	57020.5
843.394	56688.5
843.642	56349.5
843.891	56132.5
844.139	55876.5
844.388	55697.5
844.636	55501.5
844.884	55295.5
845.133	55063.5
845.381	55189.5
845.629	55295.5
845.877	54884.5
846.125	54992.5
846.373	54719.5
846.621	54452.5
846.869	54445.5
847.117	54166.5
847.365	53873.5
847.613	53512.5
847.861	53440.5
848.108	53314.5
848.356	53176.5
848.604	53099.5
848.851	52924.5
849.099	53076.5
849.346	53239.5
849.594	53338.5
849.841	53484.5
850.089	53706.5
850.336	53749.5
850.583	53571.5
850.831	53150.5
851.078	53030.5
851.325	52837.5
851.572	52606.5
851.819	52245.5
852.066	51440.5
852.313	51035.5
852.56	50771.5
852.807	50364.5
853.054	50294.5
853.301	50083.5
853.548	50034.5
853.794	50240.5
854.041	50493.5
854.288	50699.5
854.534	51095.5
854.781	51016.5
855.028	50870.5
855.274	50559.5
855.52	50376.5
855.767	50101.5
856.013	49865.5
856.26	50203.5
856.506	49695.5
856.752	49470.5
856.998	49549.5
857.244	49704.5
857.49	49591.5
857.736	49758.5
857.982	49776.5
858.228	49787.5
858.474	49355.5
858.72	49101.5
858.966	48645.5
859.212	48305.5
859.458	47760.5
859.703	47442.5
859.949	46923.5
860.195	46649.5
860.44	46234.5
860.686	46107.5
860.931	46088.5
861.177	45785.5
861.422	45584.5
861.667	45575.5
861.913	45656.5
862.158	45674.5
862.403	45737.5
862.648	45957.5
862.893	45903.5
863.138	45828.5
863.384	45871.5
863.629	45685.5
863.873	45542.5
864.118	45457.5
864.363	45164.5
864.608	44970.5
864.853	44884.5
865.098	44634.5
865.342	44419.5
865.587	44212.5
865.832	44245.5
866.076	44026.5
866.321	44014.5
866.565	43816.5
866.81	43679.5
867.054	43485.5
867.298	43360.5
867.543	43084.5
867.787	43129.5
868.031	42908.5
868.275	42719.5
868.519	42711.5
868.764	42711.5
869.008	42444.5
869.252	42472.5
869.496	42070.5
869.739	42078.5
869.983	42105.5
870.227	41918.5
870.471	41871.5
870.715	42009.5
870.958	42042.5
871.202	42044.5
871.446	42001.5
871.689	42120.5
871.933	42127.5
872.176	42017.5
872.42	42040.5
872.663	41947.5
872.906	41641.5
873.15	41477.5
873.393	41341.5
873.636	41145.5
873.879	40817.5
874.122	40468.5
874.366	39933.5
874.609	39642.5
874.852	39406.5
875.095	39263.5
875.337	39033.5
875.58	38883.5
875.823	38907.5
876.066	38681.5
876.309	38670.5
876.551	38217.5
876.794	38053.5
877.037	38065.5
877.279	37957.5
877.522	37907.5
877.764	38047.5
878.007	38104.5
878.249	37904.5
878.491	37882.5
878.734	37853.5
878.976	37684.5
879.218	37416.5
879.46	37250.5
879.702	36955.5
879.945	36751.5
880.187	36351.5
880.429	36270.5
880.671	36111.5
880.912	35951.5
881.154	35693.5
881.396	35584.5
881.638	35658.5
881.88	35561.5
882.121	35550.5
882.363	35532.5
882.605	35380.5
882.846	35259.5
883.088	35162.5
883.329	34956.5
883.571	34883.5
883.812	35045.5
884.053	35306.5
884.295	35556.5
884.536	35731.5
884.777	35569.5
885.018	35440.5
885.259	35313.5
885.5	35091.5
885.742	35407.5
885.982	35130.5
886.223	34908.5
886.464	34606.5
886.705	34419.5
886.946	34365.5
887.187	33893.5
887.428	33715.5
887.668	33232.5
887.909	32970.5
888.15	32649.5
888.39	32431.5
888.631	32323.5
888.871	31913.5
889.111	31855.5
889.352	31730.5
889.592	31310.5
889.833	31027.5
890.073	30963.5
890.313	30900.5
890.553	30471.5
890.793	30284.5
891.033	30235.5
891.273	30259.5
891.513	29985.5
891.753	29895.5
891.993	29921.5
892.233	29970.5
892.473	30032.5
892.713	29936.5
892.952	30011.5
893.192	29974.5
893.432	29880.5
893.671	29808.5
893.911	29667.5
894.15	29525.5
894.39	29363.5
894.629	29181.5
894.869	29072.5
895.108	28785.5
895.347	28725.5
895.587	28673.5
895.826	28472.5
896.065	28367.5
896.304	28406.5
896.543	28286.5
896.782	28201.5
897.021	28040.5
897.26	28010.5
897.499	27914.5
897.738	27732.5
897.977	27577.5
898.216	27370.5
898.454	27098.5
898.693	26935.5
898.932	26899.5
899.17	26785.5
899.409	26654.5
899.647	26534.5
899.886	26572.5
900.124	26611.5
900.363	26474.5
900.601	26609.5
900.839	26643.5
901.078	26572.5
901.316	26576.5
901.554	26618.5
901.792	26623.5
902.03	26498.5
902.268	26538.5
902.506	26499.5
902.744	26198.5
902.982	26167.5
903.22	25933.5
903.458	25583.5
903.695	25317.5
903.933	24974.5
904.171	24667.5
904.409	24344.5
904.646	24089.5
904.884	23750.5
905.121	23523.5
905.359	23327.5
905.596	23064.5
905.833	22818.5
906.071	22812.5
906.308	22798.5
906.545	22668.5
906.783	22566.5
907.02	22618.5
907.257	22414.5
907.494	22460.5
907.731	22335.5
907.968	22265.5
908.205	22173.5
908.442	22018.5
908.679	21869.5
908.915	21657.5
909.152	21430.5
909.389	21225.5
909.626	21298.5
909.862	20973.5
910.099	20921.5
910.335	20913.5
910.572	20785.5
910.808	20667.5
911.045	20625.5
911.281	20606.5
911.518	20598.5
911.754	20304.5
911.99	20263.5
912.226	20026.5
912.463	19892.5
912.699	19826.5
912.935	19621.5
913.171	19393.5
913.407	19227.5
913.643	19138.5
913.879	19021.5
914.114	18731.5
914.35	18577.5
914.586	18497.5
914.822	18203.5
915.057	18233.5
915.293	17909.5
915.529	17936.5
915.764	18043.5
916	17955.5
916.235	17863.5
916.471	17723.5
916.706	17615.5
916.941	17620.5
917.177	17694.5
917.412	17562.5
917.647	17624.5
917.882	17489.5
918.117	17429.5
918.352	17457.5
918.588	17453.5
918.823	17253.5
919.057	17041.5
919.292	16834.5
919.527	16776.5
919.762	16435.5
919.997	16449.5
920.232	16081.5
920.466	16154.5
920.701	15802.5
920.935	15938.5
921.17	15755.5
921.405	15632.5
921.639	15594.5
921.873	15535.5
922.108	15449.5
922.342	15493.5
922.576	15439.5
922.811	15310.5
923.045	15199.5
923.279	15213.5
923.513	15031.5
923.747	14926.5
923.981	14815.5
924.215	14768.5
924.449	14704.5
924.683	14531.5
924.917	14510.5
925.151	14446.5
925.385	14526.5
925.618	14313.5
925.852	14311.5
926.086	14176.5
926.319	14179.5
926.553	14244.5
926.786	14100.5
927.02	14162.5
927.253	14091.5
927.486	14063.5
927.72	14060.5
927.953	14044.5
928.186	13877.5
928.42	13877.5
928.653	13840.5
928.886	13799.5
929.119	13625.5
929.352	13577.5
929.585	13584.5
929.818	13389.5
930.051	13386.5
930.284	13238.5
930.516	13061.5
930.749	12962.5
930.982	12982.5
931.215	12898.5
931.447	12732.5
931.68	12760.5
931.912	12572.5
932.145	12685.5
932.377	12650.5
932.61	12827.5
932.842	12552.5
933.074	12611.5
933.307	12613.5
933.539	12621.5
933.771	12627.5
934.003	12517.5
934.236	12597.5
934.468	12644.5
934.7	12488.5
934.932	12495.5
935.164	12353.5
935.395	12349.5
935.627	12263.5
935.859	12302.5
936.091	12115.5
936.323	12190.5
936.554	12147.5
936.786	12092.5
937.017	11958.5
937.249	11944.5
937.481	11834.5
937.712	11938.5
937.943	11849.5
938.175	11721.5
938.406	11763.5
938.637	11781.5
938.869	11724.5
939.1	11720.5
939.331	11628.5
939.562	11555.5
939.793	11655.5
940.024	11491.5
940.255	11472.5
940.486	11352.5
940.717	11337.5
940.948	11285.5
941.179	11276.5
941.409	11209.5
941.64	11281.5
941.871	11181.5
942.102	11078.5
942.332	11162.5
942.563	11127.5
942.793	11155.5
943.024	11115.5
943.254	11125.5
943.484	11107.5
943.715	11105.5
943.945	11107.5
944.175	11006.5
944.405	10920.5
944.636	10883.5
944.866	10983.5
945.096	10955.5
945.326	10824.5
945.556	10825.5
945.786	10859.5
946.016	10699.5
946.245	10595.5
946.475	10556.5
946.705	10484.5
946.935	10449.5
947.164	10455.5
947.394	10281.5
947.624	10286.5
947.853	10240.5
948.083	10227.5
948.312	10098.5
948.542	9971.5
948.771	9962.5
949	10020.5
949.23	9929.5
949.459	9885.5
949.688	9954.5
949.917	9878.5
950.146	9873.5
950.375	9899.5
950.604	9780.5
950.833	9842.5
951.062	9857.5
951.291	9768.5
951.52	9741.5
951.749	9636.5
951.978	9595.5
952.206	9594.5
952.435	9525.5
952.664	9574.5
952.892	9550.5
953.121	9484.5
953.349	9463.5
953.578	9424.5
953.806	9374.5
954.035	9212.5
954.263	9244.5
954.491	9158.5
954.719	9177.5
954.948	9082.5
955.176	9128.5
955.404	8950.5
955.632	9033.5
955.86	8923.5
956.088	8910.5
956.316	8910.5
956.544	8822.5
956.772	8721.5
956.999	8660.5
957.227	8676.5
957.455	8558.5
957.683	8586.5
957.91	8449.5
958.138	8444.5
958.365	8414.5
958.593	8378.5
958.82	8285.5
959.048	8317.5
959.275	8270.5
959.502	8251.5
959.73	8173.5
959.957	8171.5
960.184	8141.5
960.411	8091.5
960.638	8163.5
960.865	8088.5
961.092	8102.5
961.319	7976.5
961.546	8046.5
961.773	8085.5
962	7996.5
962.227	8081.5
962.454	7963.5
962.68	7905.5
962.907	7920.5
963.134	7814.5
963.36	7736.5
963.587	7764.5
963.813	7599.5
964.04	7652.5
964.266	7545.5
964.493	7613.5
964.719	7524.5
964.945	7498.5
965.171	7402.5
965.398	7384.5
965.624	7348.5
965.85	7324.5
966.076	7216.5
966.302	7186.5
966.528	7199.5
966.754	7187.5
966.98	7161.5
967.206	7162.5
967.431	6994.5
967.657	7092.5
967.883	7110.5
968.109	6971.5
968.334	6984.5
968.56	6949.5
968.785	6966.5
969.011	6900.5
969.236	6925.5
969.462	6833.5
969.687	6828.5
969.912	6811.5
970.138	6802.5
970.363	6727.5
970.588	6685.5
970.813	6656.5
971.038	6606.5
971.263	6656.5
971.488	6570.5
971.713	6674.5
971.938	6594.5
972.163	6473.5
972.388	6451.5
972.613	6413.5
972.838	6401.5
973.062	6391.5
973.287	6319.5
973.512	6269.5
973.736	6301.5
973.961	6280.5
974.185	6190.5
974.41	6200.5
974.634	6096.5
974.858	6058.5
975.083	6078.5
975.307	6071.5
975.531	5924.5
975.755	5902.5
975.98	5910.5
976.204	5745.5
976.428	5741.5
976.652	5739.5
976.876	5656.5
977.1	5756.5
977.324	5673.5
977.547	5730.5
977.771	5712.5
977.995	5633.5
978.219	5572.5
978.442	5641.5
978.666	5563.5
978.89	5507.5
979.113	5501.5
979.337	5504.5
979.56	5455.5
979.783	5544.5
980.007	5396.5
980.23	5383.5
980.453	5367.5
980.677	5389.5
980.9	5363.5
981.123	5194.5
981.346	5309.5
981.569	5272.5
981.792	5230.5
982.015	5231.5
982.238	5129.5
982.461	5153.5
982.684	5049.5
982.907	4987.5
983.129	5025.5
983.352	5009.5
983.575	4959.5
983.797	4930.5
984.02	4897.5
984.242	4856.5
984.465	4826.5
984.687	4825.5
984.91	4850.5
985.132	4815.5
985.354	4816.5
985.577	4737.5
985.799	4732.5
986.021	4594.5
986.243	4611.5
986.465	4673.5
986.687	4650.5
986.909	4672.5
987.131	4611.5
987.353	4579.5
987.575	4573.5
987.797	4521.5
988.019	4482.5
988.241	4531.5
988.462	4482.5
988.684	4472.5
988.906	4510.5
989.127	4543.5
989.349	4337.5
989.57	4357.5
989.792	4395.5
990.013	4400.5
990.234	4411.5
990.456	4379.5
990.677	4380.5
990.898	4279.5
991.119	4274.5
991.341	4265.5
991.562	4163.5
991.783	4173.5
992.004	4153.5
992.225	4029.5
992.446	4104.5
992.667	4055.5
992.887	4092.5
993.108	3923.5
993.329	4090.5
993.55	3971.5
993.77	3928.5
993.991	3878.5
994.212	3901.5
994.432	3877.5
994.653	3873.5
994.873	3805.5
995.093	3725.5
995.314	3748.5
995.534	3783.5
995.754	3829.5
995.975	3828.5
996.195	3681.5
996.415	3732.5
996.635	3698.5
996.855	3747.5
997.075	3670.5
997.295	3617.5
997.515	3577.5
997.735	3684.5
997.955	3645.5
998.174	3627.5
998.394	3568.5
998.614	3586.5
998.834	3532.5
999.053	3573.5
999.273	3550.5
999.492	3583.5
999.712	3529.5
999.931	3475.5
1000.151	3481.5
1000.37	3452.5
1000.589	3460.5
1000.809	3422.5
1001.028	3478.5
1001.247	3383.5
1001.466	3276.5
1001.685	3406.5
1001.904	3338.5
1002.123	3239.5
1002.342	3279.5
1002.561	3211.5
1002.78	3236.5
1002.999	3258.5
1003.218	3234.5
1003.436	3124.5
1003.655	3208.5
1003.874	3104.5
1004.092	3187.5
1004.311	3193.5
1004.53	3061.5
1004.748	3158.5
1004.966	3063.5
1005.185	3115.5
1005.403	3141.5
1005.622	3083.5
1005.84	3140.5
1006.058	3032.5
1006.276	3037.5
1006.494	3513.5
1006.712	3044.5
1006.931	3091.5
1007.149	2976.5
1007.367	2960.5
1007.584	3024.5
1007.802	3090.5
1008.02	2956.5
1008.238	3032.5
1008.456	3035.5
1008.673	2920.5
1008.891	3002.5
1009.109	2998.5
1009.326	3061.5
1009.544	3130.5
1009.761	3073.5
1009.979	3191.5
1010.196	3230.5
1010.413	3307.5
1010.631	3399.5
1010.848	3462.5
1011.065	3464.5
1011.282	3447.5
1011.5	3329.5
1011.717	3430.5
1011.934	3399.5
1012.151	3400.5
1012.368	3352.5
1012.585	3244.5
1012.801	3306.5
1013.018	3338.5
1013.235	3270.5
1013.452	3279.5
1013.669	3286.5
1013.885	3292.5
1014.102	3321.5
1014.318	3282.5
1014.535	3232.5
1014.751	3266.5
1014.968	3209.5
1015.184	3198.5
1015.401	3123.5
1015.617	3139.5
1015.833	3029.5
1016.049	3033.5
1016.266	3061.5
1016.482	3011.5
1016.698	2916.5
1016.914	2953.5
1017.13	2882.5
1017.346	2864.5
1017.562	2932.5
1017.778	2840.5
1017.993	2810.5
1018.209	2856.5
1018.425	2826.5
1018.641	2768.5
1018.856	2704.5
1019.072	2772.5
1019.288	2825.5
1019.503	2771.5
1019.719	2688.5
1019.934	2652.5
1020.149	2716.5
1020.365	2661.5
1020.58	2616.5
1020.795	2629.5
1021.011	2537.5
1021.226	2494.5
1021.441	2500.5
1021.656	2376.5
1021.871	2301.5
1022.086	2293.5
1022.301	2284.5
1022.516	2206.5
1022.731	2271.5
1022.946	2188.5
1023.16	2122.5
1023.375	2091.5
1023.59	2056.5
1023.804	2042.5
1024.019	2100.5
1024.234	1933.5
1024.448	1971.5
1024.663	1880.5
1024.877	1883.5
1025.092	1859.5
1025.306	1838.5
1025.52	1748.5
1025.734	1807.5
1025.949	1729.5
1026.163	1685.5
1026.377	1581.5
1026.591	1640.5
1026.805	1535.5
1027.019	1526.5
1027.233	1470.5
1027.447	1423.5
1027.661	1510.5
1027.875	1425.5
1028.088	1419.5
1028.302	1352.5
1028.516	1307.5
1028.73	1267.5
1028.943	1254.5
1029.157	1159.5
1029.37	1114.5
1029.584	-0.5
1029.797	-3.5
1030.011	-2.5
1030.224	-2.5
