Data from QEP037381__163__14-53-25-840.txt Node

Date: Fri Dec 16 14:53:25 EST 2022
User: dcclab
Spectrometer: QEP03738
Trigger mode: 4
Integration Time (sec): 1.000000E1
Scans to average: 1
Electric dark correction enabled: true
Nonlinearity correction enabled: false
Boxcar width: 0
XAxis mode: Wavelengths
Number of Pixels in Spectrum: 1044
>>>>>Begin Spectral Data<<<<<
784.041	12.5
784.3	2.5
784.558	-4.5
784.817	-4.5
785.075	117012.5
785.334	20314.5
785.592	9637.5
785.851	6630.5
786.109	4966.5
786.368	3869.5
786.626	3134.5
786.884	2596.5
787.143	2188.5
787.401	1794.5
787.659	1619.5
787.917	1401.5
788.175	1279.5
788.433	1117.5
788.691	990.5
788.949	938.5
789.207	880.5
789.465	772.5
789.723	751.5
789.98	680.5
790.238	708.5
790.496	687.5
790.753	646.5
791.011	693.5
791.268	609.5
791.526	598.5
791.783	619.5
792.041	605.5
792.298	524.5
792.556	593.5
792.813	561.5
793.07	531.5
793.327	536.5
793.584	607.5
793.841	516.5
794.099	542.5
794.356	600.5
794.613	513.5
794.869	536.5
795.126	504.5
795.383	480.5
795.64	517.5
795.897	461.5
796.153	536.5
796.41	514.5
796.667	501.5
796.923	528.5
797.18	508.5
797.436	547.5
797.693	511.5
797.949	570.5
798.206	597.5
798.462	533.5
798.718	586.5
798.974	573.5
799.231	614.5
799.487	618.5
799.743	612.5
799.999	676.5
800.255	688.5
800.511	672.5
800.767	743.5
801.023	752.5
801.279	841.5
801.534	893.5
801.79	1000.5
802.046	1120.5
802.302	1373.5
802.557	1641.5
802.813	2104.5
803.068	2830.5
803.324	3991.5
803.579	5637.5
803.835	7918.5
804.09	10931.5
804.345	14482.5
804.601	18408.5
804.856	22194.5
805.111	25911.5
805.366	28603.5
805.621	30574.5
805.876	32036.5
806.131	33085.5
806.386	33725.5
806.641	34443.5
806.896	34862.5
807.151	35561.5
807.406	36106.5
807.661	36877.5
807.915	37533.5
808.17	38131.5
808.425	38447.5
808.679	38729.5
808.934	39265.5
809.188	39586.5
809.443	39918.5
809.697	40451.5
809.951	40816.5
810.206	41163.5
810.46	41492.5
810.714	41741.5
810.968	42285.5
811.223	42683.5
811.477	42910.5
811.731	43270.5
811.985	43423.5
812.239	43907.5
812.493	44049.5
812.747	44242.5
813	44384.5
813.254	44611.5
813.508	44659.5
813.762	44962.5
814.015	45097.5
814.269	45546.5
814.522	45939.5
814.776	46469.5
815.03	47007.5
815.283	47759.5
815.536	48575.5
815.79	49178.5
816.043	49870.5
816.296	50437.5
816.55	51176.5
816.803	51720.5
817.056	52390.5
817.309	52930.5
817.562	53370.5
817.815	53819.5
818.068	54126.5
818.321	54899.5
818.574	55567.5
818.827	56112.5
819.079	56815.5
819.332	57741.5
819.585	58505.5
819.838	59147.5
820.09	59625.5
820.343	60037.5
820.595	60456.5
820.848	60944.5
821.1	60830.5
821.353	60893.5
821.605	60795.5
821.857	61042.5
822.11	60756.5
822.362	60813.5
822.614	60432.5
822.866	60562.5
823.118	60530.5
823.37	60663.5
823.622	60934.5
823.874	60989.5
824.126	61367.5
824.378	61401.5
824.63	61704.5
824.882	61809.5
825.134	61734.5
825.385	61849.5
825.637	61790.5
825.888	61558.5
826.14	61339.5
826.392	61076.5
826.643	60779.5
826.895	60715.5
827.146	60536.5
827.397	60376.5
827.649	60360.5
827.9	60312.5
828.151	60377.5
828.402	60573.5
828.653	60927.5
828.905	60963.5
829.156	61171.5
829.407	60987.5
829.658	61036.5
829.909	61082.5
830.159	60942.5
830.41	60594.5
830.661	60259.5
830.912	59950.5
831.162	59706.5
831.413	59475.5
831.664	59512.5
831.914	59427.5
832.165	59567.5
832.415	59653.5
832.666	59488.5
832.916	59485.5
833.167	59535.5
833.417	59496.5
833.667	59409.5
833.917	59237.5
834.168	58890.5
834.418	58781.5
834.668	58447.5
834.918	58288.5
835.168	57940.5
835.418	57901.5
835.668	57694.5
835.918	57714.5
836.167	57594.5
836.417	57344.5
836.667	57660.5
836.917	57133.5
837.166	57157.5
837.416	57302.5
837.666	57281.5
837.915	57079.5
838.165	57190.5
838.414	56785.5
838.663	56709.5
838.913	56604.5
839.162	56438.5
839.411	56378.5
839.661	56083.5
839.91	55887.5
840.159	55814.5
840.408	55929.5
840.657	55697.5
840.906	55705.5
841.155	55719.5
841.404	55698.5
841.653	55946.5
841.902	55800.5
842.15	56121.5
842.399	55945.5
842.648	55975.5
842.897	55480.5
843.145	55319.5
843.394	55121.5
843.642	54822.5
843.891	54483.5
844.139	54334.5
844.388	53962.5
844.636	53623.5
844.884	53569.5
845.133	53574.5
845.381	53568.5
845.629	53527.5
845.877	53479.5
846.125	53412.5
846.373	53234.5
846.621	53046.5
846.869	52814.5
847.117	52649.5
847.365	52289.5
847.613	52026.5
847.861	52034.5
848.108	51855.5
848.356	51527.5
848.604	51490.5
848.851	51669.5
849.099	51730.5
849.346	51724.5
849.594	52212.5
849.841	52215.5
850.089	52203.5
850.336	52158.5
850.583	52064.5
850.831	51958.5
851.078	51550.5
851.325	51552.5
851.572	51388.5
851.819	50828.5
852.066	50310.5
852.313	49831.5
852.56	49427.5
852.807	49285.5
853.054	49009.5
853.301	48982.5
853.548	48965.5
853.794	49193.5
854.041	49153.5
854.288	49544.5
854.534	49813.5
854.781	49707.5
855.028	49571.5
855.274	49585.5
855.52	49355.5
855.767	49028.5
856.013	48956.5
856.26	49132.5
856.506	48436.5
856.752	48342.5
856.998	48504.5
857.244	48651.5
857.49	48796.5
857.736	48838.5
857.982	48733.5
858.228	48658.5
858.474	48387.5
858.72	48025.5
858.966	47524.5
859.212	47273.5
859.458	46891.5
859.703	46402.5
859.949	45953.5
860.195	45650.5
860.44	45417.5
860.686	45390.5
860.931	45145.5
861.177	44736.5
861.422	44849.5
861.667	44672.5
861.913	44736.5
862.158	44710.5
862.403	44747.5
862.648	44913.5
862.893	44915.5
863.138	44929.5
863.384	44757.5
863.629	44686.5
863.873	44638.5
864.118	44470.5
864.363	44353.5
864.608	44198.5
864.853	43767.5
865.098	43593.5
865.342	43525.5
865.587	43357.5
865.832	43348.5
866.076	43111.5
866.321	42979.5
866.565	42842.5
866.81	42717.5
867.054	42628.5
867.298	42378.5
867.543	42337.5
867.787	42376.5
868.031	42065.5
868.275	42138.5
868.519	42034.5
868.764	41916.5
869.008	41671.5
869.252	41649.5
869.496	41526.5
869.739	41435.5
869.983	41282.5
870.227	41272.5
870.471	41152.5
870.715	41358.5
870.958	41495.5
871.202	41398.5
871.446	41404.5
871.689	41437.5
871.933	41517.5
872.176	41551.5
872.42	41275.5
872.663	41245.5
872.906	41053.5
873.15	41023.5
873.393	40835.5
873.636	40691.5
873.879	40299.5
874.122	39832.5
874.366	39211.5
874.609	39166.5
874.852	38903.5
875.095	38729.5
875.337	38398.5
875.58	38328.5
875.823	38098.5
876.066	38134.5
876.309	38008.5
876.551	37700.5
876.794	37724.5
877.037	37430.5
877.279	37454.5
877.522	37340.5
877.764	37557.5
878.007	37365.5
878.249	37366.5
878.491	37364.5
878.734	37223.5
878.976	37257.5
879.218	37078.5
879.46	36800.5
879.702	36464.5
879.945	36214.5
880.187	35980.5
880.429	35768.5
880.671	35525.5
880.912	35345.5
881.154	35399.5
881.396	35047.5
881.638	35202.5
881.88	35097.5
882.121	35048.5
882.363	34844.5
882.605	35055.5
882.846	34732.5
883.088	34667.5
883.329	34611.5
883.571	34628.5
883.812	34682.5
884.053	35060.5
884.295	35392.5
884.536	35613.5
884.777	35326.5
885.018	35179.5
885.259	34956.5
885.5	34931.5
885.742	35284.5
885.982	34906.5
886.223	34679.5
886.464	34359.5
886.705	34147.5
886.946	34074.5
887.187	33603.5
887.428	33401.5
887.668	32883.5
887.909	32544.5
888.15	32134.5
888.39	32143.5
888.631	31947.5
888.871	31643.5
889.111	31551.5
889.352	31242.5
889.592	30907.5
889.833	30731.5
890.073	30638.5
890.313	30459.5
890.553	30188.5
890.793	30091.5
891.033	29910.5
891.273	29843.5
891.513	29628.5
891.753	29513.5
891.993	29462.5
892.233	29582.5
892.473	29644.5
892.713	29627.5
892.952	29648.5
893.192	29614.5
893.432	29450.5
893.671	29516.5
893.911	29326.5
894.15	29034.5
894.39	28897.5
894.629	28863.5
894.869	28664.5
895.108	28380.5
895.347	28323.5
895.587	28152.5
895.826	28029.5
896.065	27997.5
896.304	28050.5
896.543	27981.5
896.782	27750.5
897.021	27797.5
897.26	27652.5
897.499	27540.5
897.738	27540.5
897.977	27366.5
898.216	27078.5
898.454	26939.5
898.693	26663.5
898.932	26459.5
899.17	26412.5
899.409	26337.5
899.647	26293.5
899.886	26201.5
900.124	26296.5
900.363	26255.5
900.601	26242.5
900.839	26179.5
901.078	26327.5
901.316	26211.5
901.554	26354.5
901.792	26422.5
902.03	26250.5
902.268	26298.5
902.506	26230.5
902.744	26056.5
902.982	25925.5
903.22	25630.5
903.458	25374.5
903.695	25099.5
903.933	24745.5
904.171	24257.5
904.409	24115.5
904.646	23738.5
904.884	23489.5
905.121	23312.5
905.359	23156.5
905.596	22962.5
905.833	22699.5
906.071	22554.5
906.308	22566.5
906.545	22428.5
906.783	22305.5
907.02	22274.5
907.257	22302.5
907.494	22175.5
907.731	22061.5
907.968	21972.5
908.205	21805.5
908.442	21633.5
908.679	21604.5
908.915	21453.5
909.152	21245.5
909.389	21053.5
909.626	20893.5
909.862	20782.5
910.099	20704.5
910.335	20605.5
910.572	20504.5
910.808	20411.5
911.045	20559.5
911.281	20301.5
911.518	20307.5
911.754	20004.5
911.99	19994.5
912.226	19840.5
912.463	19742.5
912.699	19623.5
912.935	19454.5
913.171	19200.5
913.407	18945.5
913.643	18943.5
913.879	18763.5
914.114	18607.5
914.35	18433.5
914.586	18284.5
914.822	18102.5
915.057	18009.5
915.293	17729.5
915.529	17670.5
915.764	17806.5
916	17738.5
916.235	17532.5
916.471	17619.5
916.706	17462.5
916.941	17497.5
917.177	17387.5
917.412	17453.5
917.647	17360.5
917.882	17350.5
918.117	17303.5
918.352	17199.5
918.588	17154.5
918.823	16961.5
919.057	16839.5
919.292	16619.5
919.527	16598.5
919.762	16379.5
919.997	16204.5
920.232	16060.5
920.466	15838.5
920.701	15780.5
920.935	15676.5
921.17	15514.5
921.405	15489.5
921.639	15455.5
921.873	15375.5
922.108	15287.5
922.342	15137.5
922.576	15102.5
922.811	15029.5
923.045	15104.5
923.279	14977.5
923.513	14792.5
923.747	14851.5
923.981	14618.5
924.215	14538.5
924.449	14517.5
924.683	14380.5
924.917	14325.5
925.151	14292.5
925.385	14265.5
925.618	14180.5
925.852	14145.5
926.086	14020.5
926.319	14108.5
926.553	13981.5
926.786	13998.5
927.02	13927.5
927.253	13963.5
927.486	13965.5
927.72	13831.5
927.953	13876.5
928.186	13779.5
928.42	13760.5
928.653	13660.5
928.886	13554.5
929.119	13559.5
929.352	13452.5
929.585	13359.5
929.818	13213.5
930.051	13184.5
930.284	13087.5
930.516	12837.5
930.749	12773.5
930.982	12833.5
931.215	12674.5
931.447	12628.5
931.68	12574.5
931.912	12559.5
932.145	12510.5
932.377	12469.5
932.61	12667.5
932.842	12403.5
933.074	12500.5
933.307	12466.5
933.539	12460.5
933.771	12476.5
934.003	12388.5
934.236	12441.5
934.468	12364.5
934.7	12295.5
934.932	12279.5
935.164	12275.5
935.395	12147.5
935.627	12184.5
935.859	12129.5
936.091	11992.5
936.323	11983.5
936.554	12007.5
936.786	11889.5
937.017	11821.5
937.249	11767.5
937.481	11677.5
937.712	11777.5
937.943	11660.5
938.175	11628.5
938.406	11662.5
938.637	11669.5
938.869	11485.5
939.1	11530.5
939.331	11475.5
939.562	11477.5
939.793	11437.5
940.024	11414.5
940.255	11389.5
940.486	11317.5
940.717	11221.5
940.948	11187.5
941.179	11081.5
941.409	11074.5
941.64	11059.5
941.871	10997.5
942.102	10986.5
942.332	10951.5
942.563	11067.5
942.793	10953.5
943.024	10974.5
943.254	10921.5
943.484	10957.5
943.715	10913.5
943.945	10914.5
944.175	10816.5
944.405	10816.5
944.636	10785.5
944.866	10792.5
945.096	10755.5
945.326	10729.5
945.556	10706.5
945.786	10650.5
946.016	10565.5
946.245	10474.5
946.475	10387.5
946.705	10381.5
946.935	10291.5
947.164	10240.5
947.394	10161.5
947.624	10131.5
947.853	10099.5
948.083	10053.5
948.312	10023.5
948.542	9937.5
948.771	9844.5
949	9822.5
949.23	9757.5
949.459	9803.5
949.688	9893.5
949.917	9754.5
950.146	9767.5
950.375	9769.5
950.604	9674.5
950.833	9680.5
951.062	9625.5
951.291	9627.5
951.52	9578.5
951.749	9581.5
951.978	9555.5
952.206	9437.5
952.435	9440.5
952.664	9430.5
952.892	9365.5
953.121	9324.5
953.349	9302.5
953.578	9263.5
953.806	9214.5
954.035	9093.5
954.263	9112.5
954.491	8995.5
954.719	9068.5
954.948	9031.5
955.176	8908.5
955.404	8791.5
955.632	8810.5
955.86	8752.5
956.088	8775.5
956.316	8766.5
956.544	8630.5
956.772	8599.5
956.999	8598.5
957.227	8575.5
957.455	8410.5
957.683	8426.5
957.91	8328.5
958.138	8318.5
958.365	8331.5
958.593	8255.5
958.82	8129.5
959.048	8195.5
959.275	8106.5
959.502	8038.5
959.73	8071.5
959.957	8077.5
960.184	8044.5
960.411	7939.5
960.638	8056.5
960.865	7962.5
961.092	8014.5
961.319	7899.5
961.546	7993.5
961.773	7989.5
962	7896.5
962.227	7926.5
962.454	7890.5
962.68	7775.5
962.907	7748.5
963.134	7663.5
963.36	7668.5
963.587	7690.5
963.813	7577.5
964.04	7609.5
964.266	7422.5
964.493	7429.5
964.719	7428.5
964.945	7405.5
965.171	7228.5
965.398	7248.5
965.624	7257.5
965.85	7141.5
966.076	7154.5
966.302	7154.5
966.528	7099.5
966.754	7053.5
966.98	7004.5
967.206	6993.5
967.431	6894.5
967.657	6978.5
967.883	6905.5
968.109	6858.5
968.334	6853.5
968.56	6838.5
968.785	6811.5
969.011	6739.5
969.236	6840.5
969.462	6716.5
969.687	6729.5
969.912	6768.5
970.138	6740.5
970.363	6682.5
970.588	6594.5
970.813	6566.5
971.038	6503.5
971.263	6549.5
971.488	6470.5
971.713	6534.5
971.938	6403.5
972.163	6350.5
972.388	6326.5
972.613	6302.5
972.838	6329.5
973.062	6292.5
973.287	6263.5
973.512	6146.5
973.736	6188.5
973.961	6081.5
974.185	6116.5
974.41	6140.5
974.634	5904.5
974.858	5944.5
975.083	5895.5
975.307	5904.5
975.531	5862.5
975.755	5748.5
975.98	5777.5
976.204	5676.5
976.428	5667.5
976.652	5648.5
976.876	5553.5
977.1	5625.5
977.324	5534.5
977.547	5583.5
977.771	5589.5
977.995	5548.5
978.219	5457.5
978.442	5569.5
978.666	5434.5
978.89	5485.5
979.113	5459.5
979.337	5409.5
979.56	5332.5
979.783	5411.5
980.007	5336.5
980.23	5355.5
980.453	5299.5
980.677	5274.5
980.9	5268.5
981.123	5114.5
981.346	5193.5
981.569	5194.5
981.792	5194.5
982.015	5082.5
982.238	5044.5
982.461	4992.5
982.684	4951.5
982.907	4913.5
983.129	4932.5
983.352	4874.5
983.575	4861.5
983.797	4859.5
984.02	4781.5
984.242	4796.5
984.465	4790.5
984.687	4788.5
984.91	4798.5
985.132	4762.5
985.354	4737.5
985.577	4699.5
985.799	4627.5
986.021	4531.5
986.243	4568.5
986.465	4573.5
986.687	4544.5
986.909	4564.5
987.131	4561.5
987.353	4444.5
987.575	4491.5
987.797	4414.5
988.019	4388.5
988.241	4409.5
988.462	4406.5
988.684	4445.5
988.906	4396.5
989.127	4466.5
989.349	4264.5
989.57	4341.5
989.792	4371.5
990.013	4311.5
990.234	4332.5
990.456	4334.5
990.677	4274.5
990.898	4237.5
991.119	4223.5
991.341	4168.5
991.562	4107.5
991.783	4161.5
992.004	4060.5
992.225	4006.5
992.446	4084.5
992.667	3950.5
992.887	3967.5
993.108	3910.5
993.329	3993.5
993.55	3908.5
993.77	3854.5
993.991	3871.5
994.212	3845.5
994.432	3806.5
994.653	3793.5
994.873	3806.5
995.093	3660.5
995.314	3695.5
995.534	3734.5
995.754	3721.5
995.975	3766.5
996.195	3635.5
996.415	3668.5
996.635	3596.5
996.855	3642.5
997.075	3619.5
997.295	3586.5
997.515	3565.5
997.735	3572.5
997.955	3599.5
998.174	3560.5
998.394	3516.5
998.614	3567.5
998.834	3502.5
999.053	3575.5
999.273	3494.5
999.492	3542.5
999.712	3462.5
999.931	3452.5
1000.151	3424.5
1000.37	3364.5
1000.589	3403.5
1000.809	3324.5
1001.028	3445.5
1001.247	3319.5
1001.466	3238.5
1001.685	3377.5
1001.904	3291.5
1002.123	3237.5
1002.342	3195.5
1002.561	3167.5
1002.78	3197.5
1002.999	3194.5
1003.218	3143.5
1003.436	3120.5
1003.655	3166.5
1003.874	3044.5
1004.092	3082.5
1004.311	3059.5
1004.53	3032.5
1004.748	3118.5
1004.966	2996.5
1005.185	3060.5
1005.403	3062.5
1005.622	3011.5
1005.84	3088.5
1006.058	3019.5
1006.276	2997.5
1006.494	3470.5
1006.712	2979.5
1006.931	3038.5
1007.149	2935.5
1007.367	2944.5
1007.584	2964.5
1007.802	3001.5
1008.02	2911.5
1008.238	3036.5
1008.456	3045.5
1008.673	2890.5
1008.891	3028.5
1009.109	2944.5
1009.326	3047.5
1009.544	3151.5
1009.761	3098.5
1009.979	3184.5
1010.196	3280.5
1010.413	3334.5
1010.631	3435.5
1010.848	3507.5
1011.065	3492.5
1011.282	3432.5
1011.5	3386.5
1011.717	3485.5
1011.934	3421.5
1012.151	3426.5
1012.368	3411.5
1012.585	3328.5
1012.801	3371.5
1013.018	3304.5
1013.235	3294.5
1013.452	3323.5
1013.669	3326.5
1013.885	3266.5
1014.102	3335.5
1014.318	3330.5
1014.535	3291.5
1014.751	3289.5
1014.968	3293.5
1015.184	3241.5
1015.401	3147.5
1015.617	3170.5
1015.833	3115.5
1016.049	3085.5
1016.266	3042.5
1016.482	3023.5
1016.698	2935.5
1016.914	2967.5
1017.13	2905.5
1017.346	2915.5
1017.562	2932.5
1017.778	2851.5
1017.993	2805.5
1018.209	2813.5
1018.425	2835.5
1018.641	2784.5
1018.856	2754.5
1019.072	2760.5
1019.288	2795.5
1019.503	2805.5
1019.719	2667.5
1019.934	2676.5
1020.149	2729.5
1020.365	2650.5
1020.58	2591.5
1020.795	2626.5
1021.011	2519.5
1021.226	2501.5
1021.441	2436.5
1021.656	2383.5
1021.871	2325.5
1022.086	2276.5
1022.301	2235.5
1022.516	2204.5
1022.731	2251.5
1022.946	2175.5
1023.16	2141.5
1023.375	2077.5
1023.59	2077.5
1023.804	1996.5
1024.019	2069.5
1024.234	1927.5
1024.448	1974.5
1024.663	1829.5
1024.877	1845.5
1025.092	1882.5
1025.306	1828.5
1025.52	1710.5
1025.734	1781.5
1025.949	1687.5
1026.163	1633.5
1026.377	1556.5
1026.591	1608.5
1026.805	1495.5
1027.019	1482.5
1027.233	1440.5
1027.447	1402.5
1027.661	1469.5
1027.875	1414.5
1028.088	1383.5
1028.302	1295.5
1028.516	1289.5
1028.73	1266.5
1028.943	1217.5
1029.157	1155.5
1029.37	1057.5
1029.584	-1.5
1029.797	-0.5
1030.011	-2.5
1030.224	-1.5
