Data from QEP037381__197__14-59-05-846.txt Node

Date: Fri Dec 16 14:59:05 EST 2022
User: dcclab
Spectrometer: QEP03738
Trigger mode: 4
Integration Time (sec): 1.000000E1
Scans to average: 1
Electric dark correction enabled: true
Nonlinearity correction enabled: false
Boxcar width: 0
XAxis mode: Wavelengths
Number of Pixels in Spectrum: 1044
>>>>>Begin Spectral Data<<<<<
784.041	10.62
784.3	-3.38
784.558	-1.38
784.817	-2.38
785.075	111169.62
785.334	19400.62
785.592	9101.62
785.851	6274.62
786.109	4736.62
786.368	3714.62
786.626	2995.62
786.884	2514.62
787.143	2071.62
787.401	1737.62
787.659	1573.62
787.917	1342.62
788.175	1192.62
788.433	1075.62
788.691	963.62
788.949	909.62
789.207	856.62
789.465	757.62
789.723	729.62
789.98	666.62
790.238	705.62
790.496	635.62
790.753	623.62
791.011	683.62
791.268	619.62
791.526	612.62
791.783	602.62
792.041	595.62
792.298	504.62
792.556	555.62
792.813	529.62
793.07	528.62
793.327	517.62
793.584	589.62
793.841	533.62
794.099	558.62
794.356	582.62
794.613	500.62
794.869	535.62
795.126	494.62
795.383	468.62
795.64	498.62
795.897	459.62
796.153	524.62
796.41	522.62
796.667	497.62
796.923	509.62
797.18	505.62
797.436	545.62
797.693	498.62
797.949	558.62
798.206	595.62
798.462	505.62
798.718	573.62
798.974	538.62
799.231	580.62
799.487	595.62
799.743	620.62
799.999	663.62
800.255	660.62
800.511	671.62
800.767	698.62
801.023	712.62
801.279	795.62
801.534	880.62
801.79	934.62
802.046	1053.62
802.302	1275.62
802.557	1584.62
802.813	1996.62
803.068	2627.62
803.324	3717.62
803.579	5282.62
803.835	7368.62
804.09	10113.62
804.345	13306.62
804.601	17055.62
804.856	20477.62
805.111	23719.62
805.366	26215.62
805.621	27989.62
805.876	29463.62
806.131	30241.62
806.386	30783.62
806.641	31395.62
806.896	31905.62
807.151	32707.62
807.406	33197.62
807.661	33717.62
807.915	34252.62
808.17	34784.62
808.425	35213.62
808.679	35487.62
808.934	35921.62
809.188	36239.62
809.443	36725.62
809.697	37042.62
809.951	37273.62
810.206	37483.62
810.46	38136.62
810.714	38232.62
810.968	38705.62
811.223	38955.62
811.477	39449.62
811.731	39562.62
811.985	39902.62
812.239	40061.62
812.493	40312.62
812.747	40434.62
813	40505.62
813.254	40706.62
813.508	40976.62
813.762	41068.62
814.015	41272.62
814.269	41588.62
814.522	42039.62
814.776	42506.62
815.03	42943.62
815.283	43636.62
815.536	44165.62
815.79	44895.62
816.043	45569.62
816.296	46186.62
816.55	46730.62
816.803	47218.62
817.056	47832.62
817.309	48186.62
817.562	48755.62
817.815	49154.62
818.068	49744.62
818.321	50099.62
818.574	50662.62
818.827	51137.62
819.079	51890.62
819.332	52835.62
819.585	53386.62
819.838	54010.62
820.09	54457.62
820.343	54816.62
820.595	55229.62
820.848	55545.62
821.1	55615.62
821.353	55676.62
821.605	55616.62
821.857	55554.62
822.11	55470.62
822.362	55269.62
822.614	55142.62
822.866	55453.62
823.118	55225.62
823.37	55253.62
823.622	55484.62
823.874	55673.62
824.126	55871.62
824.378	56101.62
824.63	56211.62
824.882	56384.62
825.134	56324.62
825.385	56317.62
825.637	56119.62
825.888	56124.62
826.14	56027.62
826.392	55814.62
826.643	55484.62
826.895	55303.62
827.146	55264.62
827.397	54941.62
827.649	55005.62
827.9	54962.62
828.151	54931.62
828.402	55287.62
828.653	55417.62
828.905	55613.62
829.156	55642.62
829.407	55574.62
829.658	55443.62
829.909	55534.62
830.159	55594.62
830.41	55184.62
830.661	54895.62
830.912	54858.62
831.162	54343.62
831.413	54415.62
831.664	54326.62
831.914	54192.62
832.165	54257.62
832.415	54313.62
832.666	54300.62
832.916	54270.62
833.167	54239.62
833.417	54176.62
833.667	54018.62
833.917	53740.62
834.168	53608.62
834.418	53776.62
834.668	53489.62
834.918	53135.62
835.168	52985.62
835.418	52735.62
835.668	52718.62
835.918	52465.62
836.167	52386.62
836.417	52262.62
836.667	52185.62
836.917	52105.62
837.166	52122.62
837.416	52144.62
837.666	52104.62
837.915	51866.62
838.165	51761.62
838.414	51741.62
838.663	51782.62
838.913	51514.62
839.162	51416.62
839.411	51341.62
839.661	50912.62
839.91	50943.62
840.159	50895.62
840.408	50834.62
840.657	50739.62
840.906	50950.62
841.155	50750.62
841.404	50776.62
841.653	50796.62
841.902	50888.62
842.15	51015.62
842.399	50976.62
842.648	50819.62
842.897	50703.62
843.145	50234.62
843.394	50082.62
843.642	49635.62
843.891	49542.62
844.139	49411.62
844.388	49166.62
844.636	48891.62
844.884	48924.62
845.133	48720.62
845.381	48711.62
845.629	48616.62
845.877	48647.62
846.125	48712.62
846.373	48520.62
846.621	48171.62
846.869	48067.62
847.117	47876.62
847.365	47597.62
847.613	47297.62
847.861	47247.62
848.108	47356.62
848.356	46975.62
848.604	46901.62
848.851	46930.62
849.099	47138.62
849.346	47121.62
849.594	47236.62
849.841	47499.62
850.089	47474.62
850.336	47430.62
850.583	47539.62
850.831	47264.62
851.078	46949.62
851.325	47002.62
851.572	46760.62
851.819	46369.62
852.066	45732.62
852.313	45216.62
852.56	44924.62
852.807	44788.62
853.054	44679.62
853.301	44695.62
853.548	44597.62
853.794	44879.62
854.041	44799.62
854.288	44979.62
854.534	45324.62
854.781	45293.62
855.028	45097.62
855.274	45058.62
855.52	44959.62
855.767	44535.62
856.013	44683.62
856.26	44910.62
856.506	44207.62
856.752	44016.62
856.998	44043.62
857.244	44083.62
857.49	44528.62
857.736	44364.62
857.982	44356.62
858.228	44294.62
858.474	44193.62
858.72	43754.62
858.966	43408.62
859.212	43143.62
859.458	42670.62
859.703	42319.62
859.949	41964.62
860.195	41707.62
860.44	41379.62
860.686	41234.62
860.931	41089.62
861.177	40832.62
861.422	40724.62
861.667	40790.62
861.913	40707.62
862.158	40908.62
862.403	40647.62
862.648	40911.62
862.893	40897.62
863.138	40865.62
863.384	40596.62
863.629	40782.62
863.873	40580.62
864.118	40712.62
864.363	40427.62
864.608	40087.62
864.853	39983.62
865.098	39905.62
865.342	39806.62
865.587	39501.62
865.832	39445.62
866.076	39353.62
866.321	39259.62
866.565	39102.62
866.81	38887.62
867.054	38753.62
867.298	38651.62
867.543	38588.62
867.787	38638.62
868.031	38512.62
868.275	38305.62
868.519	38270.62
868.764	38189.62
869.008	38059.62
869.252	38101.62
869.496	37887.62
869.739	37827.62
869.983	37653.62
870.227	37597.62
870.471	37673.62
870.715	37754.62
870.958	37763.62
871.202	37826.62
871.446	37917.62
871.689	37894.62
871.933	37818.62
872.176	38065.62
872.42	37787.62
872.663	37600.62
872.906	37751.62
873.15	37410.62
873.393	37257.62
873.636	37254.62
873.879	36803.62
874.122	36460.62
874.366	36029.62
874.609	35741.62
874.852	35433.62
875.095	35354.62
875.337	35237.62
875.58	34902.62
875.823	35054.62
876.066	34902.62
876.309	34759.62
876.551	34498.62
876.794	34430.62
877.037	34195.62
877.279	34243.62
877.522	34427.62
877.764	34304.62
878.007	34330.62
878.249	34162.62
878.491	34115.62
878.734	34107.62
878.976	33998.62
879.218	33689.62
879.46	33616.62
879.702	33417.62
879.945	33120.62
880.187	32816.62
880.429	32797.62
880.671	32532.62
880.912	32310.62
881.154	32332.62
881.396	32100.62
881.638	32259.62
881.88	32248.62
882.121	32087.62
882.363	32137.62
882.605	31914.62
882.846	31987.62
883.088	31797.62
883.329	31713.62
883.571	31822.62
883.812	31790.62
884.053	32101.62
884.295	32595.62
884.536	32643.62
884.777	32525.62
885.018	32258.62
885.259	32310.62
885.5	32167.62
885.742	32227.62
885.982	32026.62
886.223	31897.62
886.464	31694.62
886.705	31429.62
886.946	31181.62
887.187	30849.62
887.428	30744.62
887.668	30278.62
887.909	29897.62
888.15	29665.62
888.39	29526.62
888.631	29315.62
888.871	28971.62
889.111	28870.62
889.352	28834.62
889.592	28487.62
889.833	28109.62
890.073	28162.62
890.313	28122.62
890.553	27739.62
890.793	27675.62
891.033	27655.62
891.273	27308.62
891.513	27322.62
891.753	27226.62
891.993	27217.62
892.233	27181.62
892.473	27292.62
892.713	27231.62
892.952	27303.62
893.192	27207.62
893.432	27194.62
893.671	27140.62
893.911	27074.62
894.15	26878.62
894.39	26655.62
894.629	26651.62
894.869	26345.62
895.108	26263.62
895.347	26179.62
895.587	25976.62
895.826	25952.62
896.065	25759.62
896.304	25942.62
896.543	25767.62
896.782	25695.62
897.021	25725.62
897.26	25436.62
897.499	25486.62
897.738	25453.62
897.977	25160.62
898.216	24959.62
898.454	24810.62
898.693	24648.62
898.932	24658.62
899.17	24524.62
899.409	24449.62
899.647	24394.62
899.886	24312.62
900.124	24316.62
900.363	24278.62
900.601	24325.62
900.839	24369.62
901.078	24286.62
901.316	24451.62
901.554	24443.62
901.792	24484.62
902.03	24401.62
902.268	24468.62
902.506	24268.62
902.744	24218.62
902.982	24051.62
903.22	23824.62
903.458	23491.62
903.695	23360.62
903.933	22932.62
904.171	22577.62
904.409	22363.62
904.646	22057.62
904.884	21825.62
905.121	21568.62
905.359	21416.62
905.596	21188.62
905.833	20949.62
906.071	20940.62
906.308	21004.62
906.545	20778.62
906.783	20633.62
907.02	20663.62
907.257	20521.62
907.494	20647.62
907.731	20510.62
907.968	20285.62
908.205	20228.62
908.442	20169.62
908.679	20046.62
908.915	19755.62
909.152	19692.62
909.389	19463.62
909.626	19419.62
909.862	19317.62
910.099	19202.62
910.335	19151.62
910.572	19102.62
910.808	19003.62
911.045	18936.62
911.281	18878.62
911.518	18798.62
911.754	18656.62
911.99	18648.62
912.226	18387.62
912.463	18255.62
912.699	18106.62
912.935	18041.62
913.171	17894.62
913.407	17658.62
913.643	17547.62
913.879	17525.62
914.114	17274.62
914.35	17100.62
914.586	16916.62
914.822	16825.62
915.057	16881.62
915.293	16607.62
915.529	16468.62
915.764	16580.62
916	16486.62
916.235	16445.62
916.471	16424.62
916.706	16296.62
916.941	16176.62
917.177	16226.62
917.412	16309.62
917.647	16233.62
917.882	16133.62
918.117	16124.62
918.352	15968.62
918.588	16062.62
918.823	15773.62
919.057	15717.62
919.292	15471.62
919.527	15499.62
919.762	15143.62
919.997	15115.62
920.232	14872.62
920.466	14798.62
920.701	14688.62
920.935	14627.62
921.17	14450.62
921.405	14408.62
921.639	14397.62
921.873	14336.62
922.108	14265.62
922.342	14275.62
922.576	14118.62
922.811	14105.62
923.045	14011.62
923.279	14024.62
923.513	13746.62
923.747	13943.62
923.981	13713.62
924.215	13630.62
924.449	13551.62
924.683	13456.62
924.917	13423.62
925.151	13252.62
925.385	13317.62
925.618	13209.62
925.852	13141.62
926.086	13008.62
926.319	13068.62
926.553	13144.62
926.786	13073.62
927.02	13048.62
927.253	13072.62
927.486	13071.62
927.72	12916.62
927.953	12910.62
928.186	12857.62
928.42	12914.62
928.653	12817.62
928.886	12741.62
929.119	12675.62
929.352	12619.62
929.585	12589.62
929.818	12374.62
930.051	12307.62
930.284	12205.62
930.516	12100.62
930.749	11975.62
930.982	11968.62
931.215	11885.62
931.447	11752.62
931.68	11870.62
931.912	11781.62
932.145	11655.62
932.377	11753.62
932.61	11914.62
932.842	11688.62
933.074	11729.62
933.307	11633.62
933.539	11690.62
933.771	11685.62
934.003	11643.62
934.236	11657.62
934.468	11647.62
934.7	11545.62
934.932	11549.62
935.164	11528.62
935.395	11462.62
935.627	11369.62
935.859	11355.62
936.091	11257.62
936.323	11425.62
936.554	11305.62
936.786	11201.62
937.017	11105.62
937.249	11069.62
937.481	11028.62
937.712	11083.62
937.943	10933.62
938.175	10978.62
938.406	10934.62
938.637	10981.62
938.869	10862.62
939.1	10855.62
939.331	10771.62
939.562	10785.62
939.793	10703.62
940.024	10762.62
940.255	10714.62
940.486	10591.62
940.717	10487.62
940.948	10462.62
941.179	10370.62
941.409	10453.62
941.64	10441.62
941.871	10396.62
942.102	10371.62
942.332	10342.62
942.563	10348.62
942.793	10340.62
943.024	10200.62
943.254	10338.62
943.484	10351.62
943.715	10361.62
943.945	10352.62
944.175	10208.62
944.405	10237.62
944.636	10121.62
944.866	10238.62
945.096	10257.62
945.326	10083.62
945.556	10080.62
945.786	10107.62
946.016	9965.62
946.245	9860.62
946.475	9782.62
946.705	9762.62
946.935	9718.62
947.164	9672.62
947.394	9504.62
947.624	9532.62
947.853	9577.62
948.083	9519.62
948.312	9387.62
948.542	9373.62
948.771	9268.62
949	9347.62
949.23	9350.62
949.459	9298.62
949.688	9296.62
949.917	9277.62
950.146	9152.62
950.375	9239.62
950.604	9139.62
950.833	9232.62
951.062	9191.62
951.291	9094.62
951.52	9033.62
951.749	9033.62
951.978	8978.62
952.206	9012.62
952.435	8924.62
952.664	8920.62
952.892	8899.62
953.121	8868.62
953.349	8861.62
953.578	8803.62
953.806	8743.62
954.035	8627.62
954.263	8616.62
954.491	8611.62
954.719	8654.62
954.948	8526.62
955.176	8445.62
955.404	8368.62
955.632	8418.62
955.86	8348.62
956.088	8369.62
956.316	8314.62
956.544	8283.62
956.772	8206.62
956.999	8052.62
957.227	8163.62
957.455	7952.62
957.683	7964.62
957.91	7903.62
958.138	7853.62
958.365	7867.62
958.593	7840.62
958.82	7727.62
959.048	7770.62
959.275	7708.62
959.502	7673.62
959.73	7633.62
959.957	7601.62
960.184	7627.62
960.411	7626.62
960.638	7665.62
960.865	7488.62
961.092	7546.62
961.319	7511.62
961.546	7529.62
961.773	7539.62
962	7491.62
962.227	7475.62
962.454	7434.62
962.68	7437.62
962.907	7393.62
963.134	7260.62
963.36	7325.62
963.587	7226.62
963.813	7144.62
964.04	7133.62
964.266	7088.62
964.493	7141.62
964.719	7025.62
964.945	6965.62
965.171	6865.62
965.398	6933.62
965.624	6824.62
965.85	6788.62
966.076	6830.62
966.302	6745.62
966.528	6780.62
966.754	6732.62
966.98	6698.62
967.206	6661.62
967.431	6615.62
967.657	6609.62
967.883	6621.62
968.109	6582.62
968.334	6464.62
968.56	6473.62
968.785	6491.62
969.011	6419.62
969.236	6522.62
969.462	6403.62
969.687	6348.62
969.912	6449.62
970.138	6409.62
970.363	6292.62
970.588	6294.62
970.813	6256.62
971.038	6220.62
971.263	6216.62
971.488	6202.62
971.713	6233.62
971.938	6167.62
972.163	6053.62
972.388	6017.62
972.613	6011.62
972.838	6045.62
973.062	5977.62
973.287	5947.62
973.512	5867.62
973.736	5903.62
973.961	5857.62
974.185	5847.62
974.41	5850.62
974.634	5667.62
974.858	5663.62
975.083	5712.62
975.307	5685.62
975.531	5583.62
975.755	5567.62
975.98	5517.62
976.204	5377.62
976.428	5395.62
976.652	5376.62
976.876	5362.62
977.1	5354.62
977.324	5329.62
977.547	5335.62
977.771	5280.62
977.995	5338.62
978.219	5234.62
978.442	5332.62
978.666	5186.62
978.89	5196.62
979.113	5203.62
979.337	5193.62
979.56	5116.62
979.783	5184.62
980.007	5041.62
980.23	5149.62
980.453	5042.62
980.677	5035.62
980.9	5046.62
981.123	4896.62
981.346	5007.62
981.569	4937.62
981.792	4963.62
982.015	4897.62
982.238	4780.62
982.461	4789.62
982.684	4804.62
982.907	4670.62
983.129	4669.62
983.352	4676.62
983.575	4678.62
983.797	4653.62
984.02	4615.62
984.242	4601.62
984.465	4556.62
984.687	4566.62
984.91	4564.62
985.132	4542.62
985.354	4527.62
985.577	4486.62
985.799	4417.62
986.021	4362.62
986.243	4341.62
986.465	4388.62
986.687	4385.62
986.909	4383.62
987.131	4335.62
987.353	4281.62
987.575	4268.62
987.797	4230.62
988.019	4169.62
988.241	4252.62
988.462	4164.62
988.684	4235.62
988.906	4230.62
989.127	4200.62
989.349	4106.62
989.57	4104.62
989.792	4186.62
990.013	4160.62
990.234	4169.62
990.456	4159.62
990.677	4094.62
990.898	4061.62
991.119	4039.62
991.341	4038.62
991.562	3940.62
991.783	3988.62
992.004	3881.62
992.225	3865.62
992.446	3931.62
992.667	3765.62
992.887	3855.62
993.108	3745.62
993.329	3807.62
993.55	3800.62
993.77	3676.62
993.991	3720.62
994.212	3666.62
994.432	3656.62
994.653	3680.62
994.873	3686.62
995.093	3492.62
995.314	3541.62
995.534	3577.62
995.754	3593.62
995.975	3633.62
996.195	3479.62
996.415	3516.62
996.635	3486.62
996.855	3509.62
997.075	3483.62
997.295	3490.62
997.515	3403.62
997.735	3492.62
997.955	3476.62
998.174	3467.62
998.394	3411.62
998.614	3438.62
998.834	3376.62
999.053	3399.62
999.273	3381.62
999.492	3410.62
999.712	3318.62
999.931	3288.62
1000.151	3333.62
1000.37	3274.62
1000.589	3330.62
1000.809	3210.62
1001.028	3308.62
1001.247	3249.62
1001.466	3113.62
1001.685	3250.62
1001.904	3139.62
1002.123	3101.62
1002.342	3094.62
1002.561	3052.62
1002.78	3070.62
1002.999	3098.62
1003.218	3064.62
1003.436	2985.62
1003.655	3044.62
1003.874	2969.62
1004.092	2972.62
1004.311	2961.62
1004.53	2964.62
1004.748	3048.62
1004.966	2937.62
1005.185	2988.62
1005.403	2923.62
1005.622	2949.62
1005.84	2984.62
1006.058	2889.62
1006.276	2895.62
1006.494	3402.62
1006.712	2874.62
1006.931	2937.62
1007.149	2854.62
1007.367	2846.62
1007.584	2871.62
1007.802	2911.62
1008.02	2843.62
1008.238	2977.62
1008.456	2982.62
1008.673	2831.62
1008.891	2947.62
1009.109	2887.62
1009.326	2985.62
1009.544	3041.62
1009.761	2987.62
1009.979	3112.62
1010.196	3196.62
1010.413	3274.62
1010.631	3394.62
1010.848	3450.62
1011.065	3449.62
1011.282	3416.62
1011.5	3335.62
1011.717	3436.62
1011.934	3345.62
1012.151	3403.62
1012.368	3342.62
1012.585	3253.62
1012.801	3302.62
1013.018	3254.62
1013.235	3288.62
1013.452	3273.62
1013.669	3288.62
1013.885	3290.62
1014.102	3317.62
1014.318	3265.62
1014.535	3287.62
1014.751	3266.62
1014.968	3242.62
1015.184	3247.62
1015.401	3160.62
1015.617	3146.62
1015.833	3073.62
1016.049	3058.62
1016.266	3032.62
1016.482	3016.62
1016.698	2903.62
1016.914	2936.62
1017.13	2878.62
1017.346	2852.62
1017.562	2933.62
1017.778	2830.62
1017.993	2767.62
1018.209	2848.62
1018.425	2783.62
1018.641	2769.62
1018.856	2739.62
1019.072	2755.62
1019.288	2799.62
1019.503	2758.62
1019.719	2656.62
1019.934	2680.62
1020.149	2734.62
1020.365	2686.62
1020.58	2591.62
1020.795	2613.62
1021.011	2533.62
1021.226	2480.62
1021.441	2441.62
1021.656	2370.62
1021.871	2270.62
1022.086	2240.62
1022.301	2250.62
1022.516	2183.62
1022.731	2240.62
1022.946	2130.62
1023.16	2091.62
1023.375	2088.62
1023.59	2069.62
1023.804	1967.62
1024.019	2073.62
1024.234	1906.62
1024.448	1932.62
1024.663	1847.62
1024.877	1808.62
1025.092	1829.62
1025.306	1803.62
1025.52	1687.62
1025.734	1795.62
1025.949	1690.62
1026.163	1602.62
1026.377	1562.62
1026.591	1575.62
1026.805	1485.62
1027.019	1488.62
1027.233	1427.62
1027.447	1362.62
1027.661	1433.62
1027.875	1380.62
1028.088	1391.62
1028.302	1288.62
1028.516	1253.62
1028.73	1235.62
1028.943	1197.62
1029.157	1143.62
1029.37	1072.62
1029.584	-0.38
1029.797	-2.38
1030.011	0.62
1030.224	-1.38
