Data from QEP037381__57__11-30-25-595.txt Node

Date: Wed Dec 21 11:30:25 EST 2022
User: dcclab
Spectrometer: QEP03738
Trigger mode: 4
Integration Time (sec): 1.000000E1
Scans to average: 1
Electric dark correction enabled: true
Nonlinearity correction enabled: false
Boxcar width: 0
XAxis mode: Wavelengths
Number of Pixels in Spectrum: 1044
>>>>>Begin Spectral Data<<<<<
784.041	14.5
784.3	-0.5
784.558	-2.5
784.817	-5.5
785.075	43206.5
785.334	8929.5
785.592	4768.5
785.851	3324.5
786.109	2554.5
786.368	2066.5
786.626	1663.5
786.884	1421.5
787.143	1220.5
787.401	991.5
787.659	948.5
787.917	813.5
788.175	772.5
788.433	688.5
788.691	627.5
788.949	597.5
789.207	579.5
789.465	519.5
789.723	498.5
789.98	463.5
790.238	511.5
790.496	459.5
790.753	449.5
791.011	505.5
791.268	443.5
791.526	431.5
791.783	444.5
792.041	447.5
792.298	360.5
792.556	447.5
792.813	410.5
793.07	396.5
793.327	387.5
793.584	463.5
793.841	397.5
794.099	394.5
794.356	459.5
794.613	364.5
794.869	407.5
795.126	355.5
795.383	364.5
795.64	390.5
795.897	328.5
796.153	395.5
796.41	388.5
796.667	369.5
796.923	383.5
797.18	370.5
797.436	392.5
797.693	358.5
797.949	413.5
798.206	433.5
798.462	352.5
798.718	412.5
798.974	384.5
799.231	422.5
799.487	412.5
799.743	414.5
799.999	439.5
800.255	423.5
800.511	388.5
800.767	440.5
801.023	427.5
801.279	461.5
801.534	480.5
801.79	508.5
802.046	498.5
802.302	599.5
802.557	638.5
802.813	776.5
803.068	867.5
803.324	1187.5
803.579	1529.5
803.835	2073.5
804.09	2788.5
804.345	3557.5
804.601	4483.5
804.856	5440.5
805.111	6264.5
805.366	6937.5
805.621	7341.5
805.876	7670.5
806.131	7870.5
806.386	7999.5
806.641	8110.5
806.896	8258.5
807.151	8485.5
807.406	8521.5
807.661	8738.5
807.915	8946.5
808.17	9039.5
808.425	9055.5
808.679	9192.5
808.934	9340.5
809.188	9408.5
809.443	9442.5
809.697	9677.5
809.951	9655.5
810.206	9739.5
810.46	9869.5
810.714	9935.5
810.968	9945.5
811.223	10050.5
811.477	10196.5
811.731	10278.5
811.985	10246.5
812.239	10259.5
812.493	10334.5
812.747	10397.5
813	10336.5
813.254	10420.5
813.508	10560.5
813.762	10603.5
814.015	10651.5
814.269	10694.5
814.522	10860.5
814.776	10930.5
815.03	11040.5
815.283	11242.5
815.536	11393.5
815.79	11558.5
816.043	11691.5
816.296	11872.5
816.55	12033.5
816.803	12179.5
817.056	12367.5
817.309	12489.5
817.562	12532.5
817.815	12709.5
818.068	12793.5
818.321	12904.5
818.574	12971.5
818.827	13239.5
819.079	13323.5
819.332	13625.5
819.585	13756.5
819.838	13953.5
820.09	13978.5
820.343	14001.5
820.595	14107.5
820.848	14176.5
821.1	14248.5
821.353	14242.5
821.605	14124.5
821.857	14307.5
822.11	14204.5
822.362	14079.5
822.614	14055.5
822.866	14135.5
823.118	14067.5
823.37	14212.5
823.622	14266.5
823.874	14215.5
824.126	14248.5
824.378	14309.5
824.63	14282.5
824.882	14321.5
825.134	14340.5
825.385	14308.5
825.637	14291.5
825.888	14177.5
826.14	14222.5
826.392	14120.5
826.643	14079.5
826.895	14048.5
827.146	13998.5
827.397	13934.5
827.649	13846.5
827.9	13968.5
828.151	13871.5
828.402	13999.5
828.653	14019.5
828.905	14021.5
829.156	14143.5
829.407	14022.5
829.658	14066.5
829.909	14143.5
830.159	14126.5
830.41	13968.5
830.661	13966.5
830.912	13827.5
831.162	13765.5
831.413	13737.5
831.664	13764.5
831.914	13729.5
832.165	13821.5
832.415	13691.5
832.666	13788.5
832.916	13760.5
833.167	13672.5
833.417	13728.5
833.667	13742.5
833.917	13658.5
834.168	13653.5
834.418	13563.5
834.668	13436.5
834.918	13410.5
835.168	13409.5
835.418	13296.5
835.668	13336.5
835.918	13270.5
836.167	13271.5
836.417	13189.5
836.667	13278.5
836.917	13334.5
837.166	13194.5
837.416	13243.5
837.666	13263.5
837.915	13137.5
838.165	13154.5
838.414	13132.5
838.663	12998.5
838.913	13121.5
839.162	13101.5
839.411	13103.5
839.661	12883.5
839.91	12904.5
840.159	12882.5
840.408	12983.5
840.657	12992.5
840.906	12973.5
841.155	12975.5
841.404	12991.5
841.653	12956.5
841.902	13085.5
842.15	12992.5
842.399	12982.5
842.648	12952.5
842.897	12974.5
843.145	12893.5
843.394	12711.5
843.642	12636.5
843.891	12658.5
844.139	12516.5
844.388	12427.5
844.636	12362.5
844.884	12396.5
845.133	12312.5
845.381	12299.5
845.629	12390.5
845.877	12397.5
846.125	12252.5
846.373	12292.5
846.621	12154.5
846.869	12220.5
847.117	12196.5
847.365	12122.5
847.613	12071.5
847.861	12021.5
848.108	12009.5
848.356	12043.5
848.604	11939.5
848.851	12029.5
849.099	12035.5
849.346	12040.5
849.594	12128.5
849.841	12172.5
850.089	12335.5
850.336	12335.5
850.583	12431.5
850.831	12316.5
851.078	12294.5
851.325	12165.5
851.572	12123.5
851.819	11936.5
852.066	11735.5
852.313	11579.5
852.56	11469.5
852.807	11433.5
853.054	11390.5
853.301	11416.5
853.548	11381.5
853.794	11525.5
854.041	11543.5
854.288	11477.5
854.534	11749.5
854.781	11614.5
855.028	11630.5
855.274	11642.5
855.52	11620.5
855.767	11516.5
856.013	11590.5
856.26	11866.5
856.506	11394.5
856.752	11412.5
856.998	11392.5
857.244	11423.5
857.49	11539.5
857.736	11499.5
857.982	11460.5
858.228	11520.5
858.474	11356.5
858.72	11264.5
858.966	11170.5
859.212	11091.5
859.458	10960.5
859.703	10786.5
859.949	10766.5
860.195	10675.5
860.44	10656.5
860.686	10585.5
860.931	10617.5
861.177	10554.5
861.422	10463.5
861.667	10426.5
861.913	10392.5
862.158	10399.5
862.403	10434.5
862.648	10501.5
862.893	10531.5
863.138	10481.5
863.384	10457.5
863.629	10446.5
863.873	10430.5
864.118	10441.5
864.363	10293.5
864.608	10341.5
864.853	10277.5
865.098	10243.5
865.342	10136.5
865.587	10173.5
865.832	10181.5
866.076	10165.5
866.321	10003.5
866.565	10051.5
866.81	9951.5
867.054	10047.5
867.298	10018.5
867.543	9941.5
867.787	9982.5
868.031	9893.5
868.275	9832.5
868.519	9818.5
868.764	9852.5
869.008	9835.5
869.252	9813.5
869.496	9778.5
869.739	9795.5
869.983	9786.5
870.227	9799.5
870.471	9806.5
870.715	9787.5
870.958	9832.5
871.202	9849.5
871.446	9902.5
871.689	9861.5
871.933	9909.5
872.176	9885.5
872.42	9816.5
872.663	9856.5
872.906	9861.5
873.15	9833.5
873.393	9758.5
873.636	9794.5
873.879	9698.5
874.122	9618.5
874.366	9405.5
874.609	9434.5
874.852	9211.5
875.095	9223.5
875.337	9169.5
875.58	9078.5
875.823	9202.5
876.066	9179.5
876.309	9066.5
876.551	8983.5
876.794	8941.5
877.037	9021.5
877.279	8954.5
877.522	8971.5
877.764	8938.5
878.007	8871.5
878.249	8872.5
878.491	8812.5
878.734	8917.5
878.976	8827.5
879.218	8677.5
879.46	8774.5
879.702	8717.5
879.945	8695.5
880.187	8511.5
880.429	8433.5
880.671	8434.5
880.912	8451.5
881.154	8431.5
881.396	8351.5
881.638	8311.5
881.88	8327.5
882.121	8289.5
882.363	8312.5
882.605	8347.5
882.846	8340.5
883.088	8368.5
883.329	8302.5
883.571	8340.5
883.812	8490.5
884.053	8654.5
884.295	8804.5
884.536	8887.5
884.777	8783.5
885.018	8766.5
885.259	8720.5
885.5	8556.5
885.742	8785.5
885.982	8581.5
886.223	8474.5
886.464	8470.5
886.705	8314.5
886.946	8268.5
887.187	8066.5
887.428	8101.5
887.668	7895.5
887.909	7812.5
888.15	7712.5
888.39	7706.5
888.631	7686.5
888.871	7634.5
889.111	7537.5
889.352	7528.5
889.592	7435.5
889.833	7388.5
890.073	7333.5
890.313	7349.5
890.553	7197.5
890.793	7179.5
891.033	7212.5
891.273	7125.5
891.513	7103.5
891.753	7177.5
891.993	7100.5
892.233	7162.5
892.473	7160.5
892.713	7207.5
892.952	7107.5
893.192	7204.5
893.432	7119.5
893.671	7158.5
893.911	7081.5
894.15	7036.5
894.39	6969.5
894.629	6920.5
894.869	7007.5
895.108	6907.5
895.347	6832.5
895.587	6882.5
895.826	6809.5
896.065	6792.5
896.304	6814.5
896.543	6852.5
896.782	6726.5
897.021	6801.5
897.26	6865.5
897.499	6785.5
897.738	6821.5
897.977	6714.5
898.216	6714.5
898.454	6608.5
898.693	6576.5
898.932	6574.5
899.17	6564.5
899.409	6538.5
899.647	6521.5
899.886	6506.5
900.124	6542.5
900.363	6534.5
900.601	6563.5
900.839	6572.5
901.078	6614.5
901.316	6679.5
901.554	6634.5
901.792	6664.5
902.03	6590.5
902.268	6665.5
902.506	6715.5
902.744	6599.5
902.982	6583.5
903.22	6378.5
903.458	6295.5
903.695	6264.5
903.933	6147.5
904.171	6043.5
904.409	5959.5
904.646	5932.5
904.884	5788.5
905.121	5760.5
905.359	5739.5
905.596	5648.5
905.833	5563.5
906.071	5571.5
906.308	5560.5
906.545	5565.5
906.783	5478.5
907.02	5477.5
907.257	5439.5
907.494	5449.5
907.731	5471.5
907.968	5406.5
908.205	5361.5
908.442	5366.5
908.679	5301.5
908.915	5301.5
909.152	5216.5
909.389	5127.5
909.626	5090.5
909.862	5056.5
910.099	5097.5
910.335	5127.5
910.572	4993.5
910.808	5079.5
911.045	5011.5
911.281	5024.5
911.518	5017.5
911.754	4965.5
911.99	4926.5
912.226	4877.5
912.463	4755.5
912.699	4817.5
912.935	4823.5
913.171	4757.5
913.407	4664.5
913.643	4731.5
913.879	4630.5
914.114	4610.5
914.35	4486.5
914.586	4548.5
914.822	4455.5
915.057	4544.5
915.293	4347.5
915.529	4335.5
915.764	4407.5
916	4364.5
916.235	4381.5
916.471	4332.5
916.706	4361.5
916.941	4347.5
917.177	4330.5
917.412	4352.5
917.647	4359.5
917.882	4246.5
918.117	4300.5
918.352	4284.5
918.588	4316.5
918.823	4208.5
919.057	4245.5
919.292	4065.5
919.527	4200.5
919.762	4097.5
919.997	4147.5
920.232	4038.5
920.466	3998.5
920.701	3903.5
920.935	3976.5
921.17	3888.5
921.405	3849.5
921.639	3899.5
921.873	3892.5
922.108	3880.5
922.342	3867.5
922.576	3808.5
922.811	3817.5
923.045	3834.5
923.279	3925.5
923.513	3727.5
923.747	3798.5
923.981	3761.5
924.215	3712.5
924.449	3648.5
924.683	3640.5
924.917	3630.5
925.151	3619.5
925.385	3659.5
925.618	3621.5
925.852	3619.5
926.086	3552.5
926.319	3586.5
926.553	3576.5
926.786	3604.5
927.02	3582.5
927.253	3632.5
927.486	3602.5
927.72	3548.5
927.953	3604.5
928.186	3514.5
928.42	3543.5
928.653	3501.5
928.886	3431.5
929.119	3505.5
929.352	3492.5
929.585	3443.5
929.818	3413.5
930.051	3391.5
930.284	3390.5
930.516	3302.5
930.749	3304.5
930.982	3344.5
931.215	3330.5
931.447	3260.5
931.68	3302.5
931.912	3248.5
932.145	3282.5
932.377	3284.5
932.61	3375.5
932.842	3166.5
933.074	3261.5
933.307	3241.5
933.539	3280.5
933.771	3356.5
934.003	3220.5
934.236	3300.5
934.468	3330.5
934.7	3199.5
934.932	3232.5
935.164	3189.5
935.395	3154.5
935.627	3173.5
935.859	3168.5
936.091	3109.5
936.323	3157.5
936.554	3173.5
936.786	3150.5
937.017	3060.5
937.249	3126.5
937.481	3055.5
937.712	3136.5
937.943	3093.5
938.175	3081.5
938.406	3074.5
938.637	3138.5
938.869	3044.5
939.1	3117.5
939.331	3013.5
939.562	3038.5
939.793	3036.5
940.024	3085.5
940.255	3095.5
940.486	3029.5
940.717	2971.5
940.948	2966.5
941.179	2967.5
941.409	2908.5
941.64	2934.5
941.871	2958.5
942.102	2938.5
942.332	2974.5
942.563	3000.5
942.793	2934.5
943.024	2868.5
943.254	2922.5
943.484	2968.5
943.715	3016.5
943.945	2922.5
944.175	2890.5
944.405	2841.5
944.636	2880.5
944.866	2905.5
945.096	2899.5
945.326	2834.5
945.556	2889.5
945.786	2928.5
946.016	2841.5
946.245	2804.5
946.475	2776.5
946.705	2771.5
946.935	2770.5
947.164	2749.5
947.394	2758.5
947.624	2734.5
947.853	2779.5
948.083	2738.5
948.312	2730.5
948.542	2629.5
948.771	2624.5
949	2653.5
949.23	2684.5
949.459	2642.5
949.688	2748.5
949.917	2661.5
950.146	2703.5
950.375	2749.5
950.604	2624.5
950.833	2677.5
951.062	2705.5
951.291	2636.5
951.52	2595.5
951.749	2653.5
951.978	2568.5
952.206	2607.5
952.435	2559.5
952.664	2619.5
952.892	2609.5
953.121	2597.5
953.349	2598.5
953.578	2600.5
953.806	2563.5
954.035	2525.5
954.263	2563.5
954.491	2505.5
954.719	2486.5
954.948	2488.5
955.176	2460.5
955.404	2391.5
955.632	2435.5
955.86	2501.5
956.088	2434.5
956.316	2467.5
956.544	2469.5
956.772	2427.5
956.999	2377.5
957.227	2467.5
957.455	2358.5
957.683	2353.5
957.91	2350.5
958.138	2330.5
958.365	2322.5
958.593	2308.5
958.82	2267.5
959.048	2337.5
959.275	2293.5
959.502	2269.5
959.73	2279.5
959.957	2313.5
960.184	2309.5
960.411	2232.5
960.638	2315.5
960.865	2278.5
961.092	2280.5
961.319	2217.5
961.546	2305.5
961.773	2323.5
962	2259.5
962.227	2304.5
962.454	2226.5
962.68	2202.5
962.907	2216.5
963.134	2215.5
963.36	2191.5
963.587	2230.5
963.813	2154.5
964.04	2227.5
964.266	2146.5
964.493	2240.5
964.719	2187.5
964.945	2199.5
965.171	2082.5
965.398	2162.5
965.624	2143.5
965.85	2078.5
966.076	2058.5
966.302	2109.5
966.528	2076.5
966.754	2094.5
966.98	2112.5
967.206	2091.5
967.431	2036.5
967.657	2124.5
967.883	2076.5
968.109	2047.5
968.334	2013.5
968.56	2003.5
968.785	2063.5
969.011	1981.5
969.236	2025.5
969.462	2003.5
969.687	1969.5
969.912	2035.5
970.138	2045.5
970.363	1988.5
970.588	1986.5
970.813	1984.5
971.038	1944.5
971.263	1994.5
971.488	1959.5
971.713	2006.5
971.938	1970.5
972.163	1867.5
972.388	1924.5
972.613	1905.5
972.838	1924.5
973.062	1881.5
973.287	1930.5
973.512	1864.5
973.736	1852.5
973.961	1893.5
974.185	1873.5
974.41	1863.5
974.634	1773.5
974.858	1812.5
975.083	1839.5
975.307	1892.5
975.531	1807.5
975.755	1736.5
975.98	1783.5
976.204	1697.5
976.428	1711.5
976.652	1708.5
976.876	1693.5
977.1	1724.5
977.324	1698.5
977.547	1744.5
977.771	1772.5
977.995	1732.5
978.219	1661.5
978.442	1757.5
978.666	1683.5
978.89	1705.5
979.113	1696.5
979.337	1678.5
979.56	1655.5
979.783	1765.5
980.007	1622.5
980.23	1694.5
980.453	1631.5
980.677	1656.5
980.9	1682.5
981.123	1557.5
981.346	1675.5
981.569	1649.5
981.792	1657.5
982.015	1621.5
982.238	1591.5
982.461	1594.5
982.684	1592.5
982.907	1556.5
983.129	1540.5
983.352	1647.5
983.575	1607.5
983.797	1607.5
984.02	1518.5
984.242	1531.5
984.465	1536.5
984.687	1582.5
984.91	1612.5
985.132	1587.5
985.354	1574.5
985.577	1557.5
985.799	1562.5
986.021	1450.5
986.243	1491.5
986.465	1536.5
986.687	1570.5
986.909	1584.5
987.131	1522.5
987.353	1487.5
987.575	1531.5
987.797	1474.5
988.019	1429.5
988.241	1493.5
988.462	1436.5
988.684	1526.5
988.906	1537.5
989.127	1550.5
989.349	1449.5
989.57	1470.5
989.792	1508.5
990.013	1523.5
990.234	1510.5
990.456	1547.5
990.677	1527.5
990.898	1448.5
991.119	1451.5
991.341	1500.5
991.562	1434.5
991.783	1465.5
992.004	1431.5
992.225	1376.5
992.446	1449.5
992.667	1367.5
992.887	1431.5
993.108	1354.5
993.329	1469.5
993.55	1412.5
993.77	1350.5
993.991	1341.5
994.212	1385.5
994.432	1387.5
994.653	1393.5
994.873	1374.5
995.093	1263.5
995.314	1322.5
995.534	1365.5
995.754	1402.5
995.975	1430.5
996.195	1317.5
996.415	1388.5
996.635	1370.5
996.855	1361.5
997.075	1333.5
997.295	1334.5
997.515	1327.5
997.735	1358.5
997.955	1328.5
998.174	1313.5
998.394	1321.5
998.614	1368.5
998.834	1299.5
999.053	1379.5
999.273	1348.5
999.492	1400.5
999.712	1330.5
999.931	1314.5
1000.151	1347.5
1000.37	1309.5
1000.589	1384.5
1000.809	1315.5
1001.028	1415.5
1001.247	1360.5
1001.466	1243.5
1001.685	1386.5
1001.904	1334.5
1002.123	1306.5
1002.342	1311.5
1002.561	1289.5
1002.78	1330.5
1002.999	1370.5
1003.218	1269.5
1003.436	1273.5
1003.655	1350.5
1003.874	1258.5
1004.092	1300.5
1004.311	1339.5
1004.53	1296.5
1004.748	1388.5
1004.966	1303.5
1005.185	1351.5
1005.403	1349.5
1005.622	1303.5
1005.84	1402.5
1006.058	1306.5
1006.276	1307.5
1006.494	1807.5
1006.712	1312.5
1006.931	1380.5
1007.149	1270.5
1007.367	1282.5
1007.584	1345.5
1007.802	1376.5
1008.02	1316.5
1008.238	1434.5
1008.456	1419.5
1008.673	1250.5
1008.891	1389.5
1009.109	1337.5
1009.326	1396.5
1009.544	1480.5
1009.761	1390.5
1009.979	1485.5
1010.196	1478.5
1010.413	1575.5
1010.631	1625.5
1010.848	1616.5
1011.065	1669.5
1011.282	1588.5
1011.5	1536.5
1011.717	1617.5
1011.934	1591.5
1012.151	1626.5
1012.368	1617.5
1012.585	1575.5
1012.801	1599.5
1013.018	1564.5
1013.235	1559.5
1013.452	1547.5
1013.669	1586.5
1013.885	1554.5
1014.102	1599.5
1014.318	1558.5
1014.535	1532.5
1014.751	1565.5
1014.968	1551.5
1015.184	1563.5
1015.401	1477.5
1015.617	1516.5
1015.833	1463.5
1016.049	1486.5
1016.266	1436.5
1016.482	1455.5
1016.698	1391.5
1016.914	1442.5
1017.13	1379.5
1017.346	1386.5
1017.562	1429.5
1017.778	1364.5
1017.993	1335.5
1018.209	1394.5
1018.425	1355.5
1018.641	1318.5
1018.856	1353.5
1019.072	1336.5
1019.288	1369.5
1019.503	1345.5
1019.719	1259.5
1019.934	1270.5
1020.149	1353.5
1020.365	1284.5
1020.58	1243.5
1020.795	1284.5
1021.011	1231.5
1021.226	1210.5
1021.441	1217.5
1021.656	1144.5
1021.871	1105.5
1022.086	1103.5
1022.301	1081.5
1022.516	1080.5
1022.731	1151.5
1022.946	1053.5
1023.16	1048.5
1023.375	996.5
1023.59	1014.5
1023.804	955.5
1024.019	1057.5
1024.234	921.5
1024.448	979.5
1024.663	902.5
1024.877	904.5
1025.092	950.5
1025.306	978.5
1025.52	839.5
1025.734	947.5
1025.949	850.5
1026.163	831.5
1026.377	775.5
1026.591	830.5
1026.805	763.5
1027.019	761.5
1027.233	713.5
1027.447	693.5
1027.661	781.5
1027.875	736.5
1028.088	727.5
1028.302	640.5
1028.516	646.5
1028.73	670.5
1028.943	653.5
1029.157	606.5
1029.37	554.5
1029.584	0.5
1029.797	-0.5
1030.011	-3.5
1030.224	-2.5
