Data from QEP037381__72__11-32-55-596.txt Node

Date: Wed Dec 21 11:32:55 EST 2022
User: dcclab
Spectrometer: QEP03738
Trigger mode: 4
Integration Time (sec): 1.000000E1
Scans to average: 1
Electric dark correction enabled: true
Nonlinearity correction enabled: false
Boxcar width: 0
XAxis mode: Wavelengths
Number of Pixels in Spectrum: 1044
>>>>>Begin Spectral Data<<<<<
784.041	9.12
784.3	2.12
784.558	-1.88
784.817	-6.88
785.075	41081.12
785.334	8343.12
785.592	4384.12
785.851	3065.12
786.109	2353.12
786.368	1873.12
786.626	1527.12
786.884	1331.12
787.143	1127.12
787.401	932.12
787.659	884.12
787.917	773.12
788.175	754.12
788.433	645.12
788.691	613.12
788.949	573.12
789.207	572.12
789.465	495.12
789.723	477.12
789.98	451.12
790.238	487.12
790.496	484.12
790.753	464.12
791.011	521.12
791.268	438.12
791.526	436.12
791.783	460.12
792.041	449.12
792.298	363.12
792.556	452.12
792.813	409.12
793.07	421.12
793.327	384.12
793.584	463.12
793.841	398.12
794.099	426.12
794.356	480.12
794.613	382.12
794.869	436.12
795.126	388.12
795.383	368.12
795.64	381.12
795.897	348.12
796.153	395.12
796.41	395.12
796.667	379.12
796.923	377.12
797.18	387.12
797.436	399.12
797.693	389.12
797.949	428.12
798.206	436.12
798.462	359.12
798.718	416.12
798.974	398.12
799.231	435.12
799.487	436.12
799.743	456.12
799.999	464.12
800.255	465.12
800.511	430.12
800.767	492.12
801.023	476.12
801.279	493.12
801.534	528.12
801.79	563.12
802.046	569.12
802.302	685.12
802.557	769.12
802.813	931.12
803.068	1100.12
803.324	1494.12
803.579	1986.12
803.835	2692.12
804.09	3750.12
804.345	4820.12
804.601	6099.12
804.856	7442.12
805.111	8679.12
805.366	9632.12
805.621	10464.12
805.876	10870.12
806.131	11171.12
806.386	11446.12
806.641	11512.12
806.896	11877.12
807.151	12094.12
807.406	12337.12
807.661	12531.12
807.915	12790.12
808.17	12958.12
808.425	13136.12
808.679	13211.12
808.934	13486.12
809.188	13540.12
809.443	13678.12
809.697	13897.12
809.951	14054.12
810.206	14139.12
810.46	14293.12
810.714	14319.12
810.968	14506.12
811.223	14603.12
811.477	14769.12
811.731	14821.12
811.985	14902.12
812.239	14990.12
812.493	15118.12
812.747	15214.12
813	15231.12
813.254	15326.12
813.508	15448.12
813.762	15371.12
814.015	15543.12
814.269	15643.12
814.522	15899.12
814.776	16027.12
815.03	16169.12
815.283	16461.12
815.536	16722.12
815.79	16913.12
816.043	17251.12
816.296	17451.12
816.55	17654.12
816.803	17963.12
817.056	18284.12
817.309	18334.12
817.562	18473.12
817.815	18702.12
818.068	18952.12
818.321	19078.12
818.574	19348.12
818.827	19727.12
819.079	19879.12
819.332	20259.12
819.585	20416.12
819.838	20730.12
820.09	20825.12
820.343	20989.12
820.595	21121.12
820.848	21293.12
821.1	21298.12
821.353	21347.12
821.605	21266.12
821.857	21331.12
822.11	21278.12
822.362	21190.12
822.614	21163.12
822.866	21195.12
823.118	21203.12
823.37	21276.12
823.622	21226.12
823.874	21378.12
824.126	21393.12
824.378	21414.12
824.63	21415.12
824.882	21540.12
825.134	21564.12
825.385	21549.12
825.637	21498.12
825.888	21459.12
826.14	21420.12
826.392	21298.12
826.643	21211.12
826.895	21290.12
827.146	21048.12
827.397	21086.12
827.649	21014.12
827.9	21055.12
828.151	21153.12
828.402	21114.12
828.653	21116.12
828.905	21368.12
829.156	21337.12
829.407	21277.12
829.658	21383.12
829.909	21301.12
830.159	21324.12
830.41	21143.12
830.661	21078.12
830.912	20948.12
831.162	20798.12
831.413	20831.12
831.664	20915.12
831.914	20880.12
832.165	20755.12
832.415	20838.12
832.666	20785.12
832.916	21006.12
833.167	20854.12
833.417	20837.12
833.667	20819.12
833.917	20622.12
834.168	20815.12
834.418	20630.12
834.668	20545.12
834.918	20281.12
835.168	20437.12
835.418	20357.12
835.668	20246.12
835.918	20252.12
836.167	20229.12
836.417	20157.12
836.667	20247.12
836.917	20224.12
837.166	20278.12
837.416	20261.12
837.666	20145.12
837.915	20122.12
838.165	20047.12
838.414	20010.12
838.663	19905.12
838.913	19978.12
839.162	19789.12
839.411	20039.12
839.661	19771.12
839.91	19842.12
840.159	19760.12
840.408	19709.12
840.657	19746.12
840.906	19828.12
841.155	19901.12
841.404	19768.12
841.653	19799.12
841.902	19888.12
842.15	19890.12
842.399	19900.12
842.648	19894.12
842.897	19793.12
843.145	19640.12
843.394	19599.12
843.642	19422.12
843.891	19307.12
844.139	19172.12
844.388	19023.12
844.636	19115.12
844.884	19045.12
845.133	19015.12
845.381	18993.12
845.629	19008.12
845.877	18938.12
846.125	18963.12
846.373	18907.12
846.621	18805.12
846.869	18826.12
847.117	18718.12
847.365	18654.12
847.613	18557.12
847.861	18536.12
848.108	18571.12
848.356	18498.12
848.604	18533.12
848.851	18433.12
849.099	18422.12
849.346	18468.12
849.594	18763.12
849.841	18745.12
850.089	18921.12
850.336	18983.12
850.583	18978.12
850.831	18834.12
851.078	18673.12
851.325	18675.12
851.572	18462.12
851.819	18324.12
852.066	17998.12
852.313	17801.12
852.56	17664.12
852.807	17591.12
853.054	17552.12
853.301	17626.12
853.548	17636.12
853.794	17675.12
854.041	17713.12
854.288	17799.12
854.534	17983.12
854.781	17974.12
855.028	17986.12
855.274	17936.12
855.52	17741.12
855.767	17627.12
856.013	17589.12
856.26	17871.12
856.506	17394.12
856.752	17553.12
856.998	17457.12
857.244	17503.12
857.49	17654.12
857.736	17568.12
857.982	17694.12
858.228	17655.12
858.474	17546.12
858.72	17382.12
858.966	17176.12
859.212	16995.12
859.458	16866.12
859.703	16782.12
859.949	16532.12
860.195	16534.12
860.44	16545.12
860.686	16361.12
860.931	16379.12
861.177	16292.12
861.422	16256.12
861.667	16102.12
861.913	16113.12
862.158	16174.12
862.403	16231.12
862.648	16421.12
862.893	16316.12
863.138	16277.12
863.384	16233.12
863.629	16231.12
863.873	16231.12
864.118	16314.12
864.363	16195.12
864.608	16141.12
864.853	16010.12
865.098	15905.12
865.342	15927.12
865.587	15720.12
865.832	15765.12
866.076	15711.12
866.321	15638.12
866.565	15770.12
866.81	15542.12
867.054	15567.12
867.298	15454.12
867.543	15424.12
867.787	15378.12
868.031	15441.12
868.275	15300.12
868.519	15345.12
868.764	15358.12
869.008	15335.12
869.252	15295.12
869.496	15203.12
869.739	15078.12
869.983	15139.12
870.227	15214.12
870.471	15132.12
870.715	15301.12
870.958	15232.12
871.202	15204.12
871.446	15283.12
871.689	15254.12
871.933	15187.12
872.176	15195.12
872.42	15206.12
872.663	15260.12
872.906	15181.12
873.15	15103.12
873.393	15048.12
873.636	15006.12
873.879	14889.12
874.122	14739.12
874.366	14533.12
874.609	14481.12
874.852	14431.12
875.095	14290.12
875.337	14214.12
875.58	14049.12
875.823	14063.12
876.066	14081.12
876.309	14076.12
876.551	13982.12
876.794	13874.12
877.037	14001.12
877.279	13815.12
877.522	13878.12
877.764	13874.12
878.007	13866.12
878.249	13884.12
878.491	13803.12
878.734	13859.12
878.976	13781.12
879.218	13625.12
879.46	13662.12
879.702	13578.12
879.945	13378.12
880.187	13249.12
880.429	13310.12
880.671	13188.12
880.912	13119.12
881.154	13143.12
881.396	13030.12
881.638	13071.12
881.88	13075.12
882.121	12964.12
882.363	12949.12
882.605	13013.12
882.846	12971.12
883.088	12890.12
883.329	12885.12
883.571	12896.12
883.812	12995.12
884.053	13091.12
884.295	13371.12
884.536	13452.12
884.777	13335.12
885.018	13167.12
885.259	13222.12
885.5	13184.12
885.742	13244.12
885.982	13134.12
886.223	12975.12
886.464	12939.12
886.705	12755.12
886.946	12704.12
887.187	12564.12
887.428	12518.12
887.668	12301.12
887.909	12145.12
888.15	12025.12
888.39	12078.12
888.631	12084.12
888.871	11906.12
889.111	11809.12
889.352	11747.12
889.592	11610.12
889.833	11580.12
890.073	11495.12
890.313	11487.12
890.553	11319.12
890.793	11271.12
891.033	11147.12
891.273	11190.12
891.513	11068.12
891.753	11102.12
891.993	11063.12
892.233	11083.12
892.473	11159.12
892.713	11158.12
892.952	11062.12
893.192	11108.12
893.432	11104.12
893.671	11140.12
893.911	11029.12
894.15	10967.12
894.39	10850.12
894.629	10839.12
894.869	10793.12
895.108	10853.12
895.347	10714.12
895.587	10696.12
895.826	10724.12
896.065	10599.12
896.304	10629.12
896.543	10615.12
896.782	10599.12
897.021	10568.12
897.26	10518.12
897.499	10520.12
897.738	10495.12
897.977	10384.12
898.216	10310.12
898.454	10243.12
898.693	10159.12
898.932	10178.12
899.17	10109.12
899.409	10102.12
899.647	10077.12
899.886	10125.12
900.124	10166.12
900.363	10119.12
900.601	10098.12
900.839	10162.12
901.078	10184.12
901.316	10151.12
901.554	10178.12
901.792	10240.12
902.03	10161.12
902.268	10134.12
902.506	10166.12
902.744	10016.12
902.982	10088.12
903.22	9873.12
903.458	9662.12
903.695	9629.12
903.933	9478.12
904.171	9332.12
904.409	9211.12
904.646	9209.12
904.884	9022.12
905.121	9042.12
905.359	8843.12
905.596	8733.12
905.833	8706.12
906.071	8661.12
906.308	8649.12
906.545	8656.12
906.783	8513.12
907.02	8573.12
907.257	8479.12
907.494	8460.12
907.731	8508.12
907.968	8435.12
908.205	8352.12
908.442	8278.12
908.679	8248.12
908.915	8229.12
909.152	8175.12
909.389	7992.12
909.626	7996.12
909.862	7958.12
910.099	7947.12
910.335	7917.12
910.572	7825.12
910.808	7865.12
911.045	7813.12
911.281	7786.12
911.518	7733.12
911.754	7699.12
911.99	7706.12
912.226	7627.12
912.463	7576.12
912.699	7489.12
912.935	7434.12
913.171	7429.12
913.407	7351.12
913.643	7344.12
913.879	7259.12
914.114	7154.12
914.35	7064.12
914.586	6968.12
914.822	6945.12
915.057	7057.12
915.293	6864.12
915.529	6790.12
915.764	6898.12
916	6797.12
916.235	6831.12
916.471	6804.12
916.706	6691.12
916.941	6737.12
917.177	6778.12
917.412	6773.12
917.647	6787.12
917.882	6718.12
918.117	6749.12
918.352	6669.12
918.588	6705.12
918.823	6563.12
919.057	6571.12
919.292	6477.12
919.527	6484.12
919.762	6303.12
919.997	6355.12
920.232	6266.12
920.466	6260.12
920.701	6121.12
920.935	6092.12
921.17	6083.12
921.405	6002.12
921.639	6005.12
921.873	5959.12
922.108	5989.12
922.342	5957.12
922.576	5895.12
922.811	5880.12
923.045	5926.12
923.279	5916.12
923.513	5756.12
923.747	5794.12
923.981	5768.12
924.215	5695.12
924.449	5662.12
924.683	5646.12
924.917	5624.12
925.151	5596.12
925.385	5644.12
925.618	5546.12
925.852	5536.12
926.086	5456.12
926.319	5544.12
926.553	5491.12
926.786	5529.12
927.02	5524.12
927.253	5499.12
927.486	5500.12
927.72	5437.12
927.953	5492.12
928.186	5469.12
928.42	5493.12
928.653	5358.12
928.886	5361.12
929.119	5353.12
929.352	5329.12
929.585	5359.12
929.818	5235.12
930.051	5202.12
930.284	5184.12
930.516	5063.12
930.749	5076.12
930.982	5143.12
931.215	5113.12
931.447	5022.12
931.68	5037.12
931.912	5000.12
932.145	4957.12
932.377	4984.12
932.61	5101.12
932.842	4907.12
933.074	5014.12
933.307	4910.12
933.539	5002.12
933.771	5013.12
934.003	4918.12
934.236	4963.12
934.468	5014.12
934.7	4911.12
934.932	4962.12
935.164	4915.12
935.395	4846.12
935.627	4926.12
935.859	4888.12
936.091	4836.12
936.323	4761.12
936.554	4794.12
936.786	4726.12
937.017	4724.12
937.249	4735.12
937.481	4680.12
937.712	4742.12
937.943	4707.12
938.175	4674.12
938.406	4680.12
938.637	4696.12
938.869	4651.12
939.1	4730.12
939.331	4617.12
939.562	4618.12
939.793	4643.12
940.024	4681.12
940.255	4654.12
940.486	4533.12
940.717	4553.12
940.948	4531.12
941.179	4485.12
941.409	4440.12
941.64	4437.12
941.871	4493.12
942.102	4439.12
942.332	4485.12
942.563	4486.12
942.793	4494.12
943.024	4407.12
943.254	4467.12
943.484	4459.12
943.715	4516.12
943.945	4420.12
944.175	4435.12
944.405	4342.12
944.636	4367.12
944.866	4437.12
945.096	4399.12
945.326	4347.12
945.556	4409.12
945.786	4354.12
946.016	4347.12
946.245	4277.12
946.475	4234.12
946.705	4239.12
946.935	4194.12
947.164	4239.12
947.394	4122.12
947.624	4162.12
947.853	4187.12
948.083	4171.12
948.312	4090.12
948.542	4055.12
948.771	4019.12
949	4045.12
949.23	4027.12
949.459	4012.12
949.688	4087.12
949.917	4093.12
950.146	4022.12
950.375	4091.12
950.604	3942.12
950.833	4072.12
951.062	4068.12
951.291	3984.12
951.52	3980.12
951.749	3966.12
951.978	3883.12
952.206	3900.12
952.435	3936.12
952.664	3899.12
952.892	3903.12
953.121	3888.12
953.349	3875.12
953.578	3874.12
953.806	3852.12
954.035	3787.12
954.263	3803.12
954.491	3742.12
954.719	3832.12
954.948	3733.12
955.176	3728.12
955.404	3643.12
955.632	3713.12
955.86	3693.12
956.088	3651.12
956.316	3668.12
956.544	3641.12
956.772	3622.12
956.999	3601.12
957.227	3602.12
957.455	3597.12
957.683	3536.12
957.91	3503.12
958.138	3473.12
958.365	3480.12
958.593	3455.12
958.82	3368.12
959.048	3472.12
959.275	3425.12
959.502	3459.12
959.73	3394.12
959.957	3438.12
960.184	3429.12
960.411	3363.12
960.638	3434.12
960.865	3334.12
961.092	3420.12
961.319	3348.12
961.546	3397.12
961.773	3432.12
962	3355.12
962.227	3388.12
962.454	3355.12
962.68	3305.12
962.907	3309.12
963.134	3278.12
963.36	3305.12
963.587	3319.12
963.813	3220.12
964.04	3269.12
964.266	3176.12
964.493	3255.12
964.719	3195.12
964.945	3202.12
965.171	3097.12
965.398	3174.12
965.624	3160.12
965.85	3099.12
966.076	3085.12
966.302	3082.12
966.528	3058.12
966.754	3073.12
966.98	3090.12
967.206	3052.12
967.431	2984.12
967.657	3062.12
967.883	3028.12
968.109	3036.12
968.334	2974.12
968.56	2937.12
968.785	2981.12
969.011	2921.12
969.236	2968.12
969.462	2904.12
969.687	2938.12
969.912	2979.12
970.138	2995.12
970.363	2894.12
970.588	2912.12
970.813	2876.12
971.038	2884.12
971.263	2881.12
971.488	2832.12
971.713	2879.12
971.938	2891.12
972.163	2781.12
972.388	2784.12
972.613	2792.12
972.838	2805.12
973.062	2784.12
973.287	2750.12
973.512	2705.12
973.736	2742.12
973.961	2697.12
974.185	2669.12
974.41	2716.12
974.634	2615.12
974.858	2678.12
975.083	2647.12
975.307	2699.12
975.531	2583.12
975.755	2551.12
975.98	2575.12
976.204	2511.12
976.428	2500.12
976.652	2475.12
976.876	2496.12
977.1	2545.12
977.324	2475.12
977.547	2503.12
977.771	2533.12
977.995	2487.12
978.219	2416.12
978.442	2542.12
978.666	2497.12
978.89	2459.12
979.113	2453.12
979.337	2455.12
979.56	2424.12
979.783	2479.12
980.007	2382.12
980.23	2372.12
980.453	2358.12
980.677	2368.12
980.9	2410.12
981.123	2278.12
981.346	2384.12
981.569	2310.12
981.792	2375.12
982.015	2313.12
982.238	2279.12
982.461	2297.12
982.684	2262.12
982.907	2248.12
983.129	2247.12
983.352	2268.12
983.575	2268.12
983.797	2252.12
984.02	2186.12
984.242	2166.12
984.465	2163.12
984.687	2225.12
984.91	2216.12
985.132	2209.12
985.354	2232.12
985.577	2194.12
985.799	2165.12
986.021	2084.12
986.243	2112.12
986.465	2116.12
986.687	2173.12
986.909	2203.12
987.131	2100.12
987.353	2095.12
987.575	2117.12
987.797	2065.12
988.019	2032.12
988.241	2069.12
988.462	2014.12
988.684	2077.12
988.906	2094.12
989.127	2132.12
989.349	2000.12
989.57	2029.12
989.792	2051.12
990.013	2086.12
990.234	2086.12
990.456	2093.12
990.677	2066.12
990.898	2020.12
991.119	1993.12
991.341	2023.12
991.562	1956.12
991.783	2009.12
992.004	1944.12
992.225	1908.12
992.446	1978.12
992.667	1894.12
992.887	1951.12
993.108	1862.12
993.329	1957.12
993.55	1910.12
993.77	1847.12
993.991	1859.12
994.212	1884.12
994.432	1886.12
994.653	1888.12
994.873	1861.12
995.093	1767.12
995.314	1802.12
995.534	1868.12
995.754	1884.12
995.975	1890.12
996.195	1789.12
996.415	1833.12
996.635	1796.12
996.855	1859.12
997.075	1790.12
997.295	1795.12
997.515	1760.12
997.735	1816.12
997.955	1816.12
998.174	1790.12
998.394	1759.12
998.614	1787.12
998.834	1769.12
999.053	1805.12
999.273	1801.12
999.492	1835.12
999.712	1772.12
999.931	1714.12
1000.151	1780.12
1000.37	1758.12
1000.589	1784.12
1000.809	1712.12
1001.028	1798.12
1001.247	1744.12
1001.466	1644.12
1001.685	1771.12
1001.904	1717.12
1002.123	1719.12
1002.342	1710.12
1002.561	1674.12
1002.78	1696.12
1002.999	1745.12
1003.218	1675.12
1003.436	1668.12
1003.655	1711.12
1003.874	1636.12
1004.092	1658.12
1004.311	1707.12
1004.53	1652.12
1004.748	1703.12
1004.966	1652.12
1005.185	1708.12
1005.403	1692.12
1005.622	1656.12
1005.84	1724.12
1006.058	1632.12
1006.276	1658.12
1006.494	2130.12
1006.712	1660.12
1006.931	1701.12
1007.149	1628.12
1007.367	1630.12
1007.584	1678.12
1007.802	1717.12
1008.02	1649.12
1008.238	1748.12
1008.456	1730.12
1008.673	1594.12
1008.891	1743.12
1009.109	1663.12
1009.326	1713.12
1009.544	1785.12
1009.761	1676.12
1009.979	1801.12
1010.196	1803.12
1010.413	1917.12
1010.631	1930.12
1010.848	1979.12
1011.065	1977.12
1011.282	1885.12
1011.5	1836.12
1011.717	1959.12
1011.934	1908.12
1012.151	1930.12
1012.368	1897.12
1012.585	1887.12
1012.801	1923.12
1013.018	1873.12
1013.235	1825.12
1013.452	1864.12
1013.669	1867.12
1013.885	1845.12
1014.102	1896.12
1014.318	1852.12
1014.535	1822.12
1014.751	1823.12
1014.968	1840.12
1015.184	1890.12
1015.401	1742.12
1015.617	1801.12
1015.833	1737.12
1016.049	1735.12
1016.266	1680.12
1016.482	1721.12
1016.698	1663.12
1016.914	1717.12
1017.13	1646.12
1017.346	1631.12
1017.562	1719.12
1017.778	1617.12
1017.993	1610.12
1018.209	1646.12
1018.425	1646.12
1018.641	1590.12
1018.856	1554.12
1019.072	1591.12
1019.288	1644.12
1019.503	1605.12
1019.719	1504.12
1019.934	1534.12
1020.149	1617.12
1020.365	1564.12
1020.58	1493.12
1020.795	1525.12
1021.011	1470.12
1021.226	1481.12
1021.441	1464.12
1021.656	1390.12
1021.871	1327.12
1022.086	1307.12
1022.301	1318.12
1022.516	1320.12
1022.731	1377.12
1022.946	1258.12
1023.16	1249.12
1023.375	1234.12
1023.59	1201.12
1023.804	1175.12
1024.019	1275.12
1024.234	1126.12
1024.448	1185.12
1024.663	1094.12
1024.877	1107.12
1025.092	1117.12
1025.306	1123.12
1025.52	1041.12
1025.734	1087.12
1025.949	1023.12
1026.163	994.12
1026.377	944.12
1026.591	975.12
1026.805	912.12
1027.019	926.12
1027.233	877.12
1027.447	817.12
1027.661	930.12
1027.875	867.12
1028.088	884.12
1028.302	771.12
1028.516	798.12
1028.73	772.12
1028.943	772.12
1029.157	725.12
1029.37	661.12
1029.584	-0.88
1029.797	-0.88
1030.011	1.12
1030.224	-1.88
