Data from QEP037381__69__11-32-25-596.txt Node

Date: Wed Dec 21 11:32:25 EST 2022
User: dcclab
Spectrometer: QEP03738
Trigger mode: 4
Integration Time (sec): 1.000000E1
Scans to average: 1
Electric dark correction enabled: true
Nonlinearity correction enabled: false
Boxcar width: 0
XAxis mode: Wavelengths
Number of Pixels in Spectrum: 1044
>>>>>Begin Spectral Data<<<<<
784.041	15.12
784.3	-2.88
784.558	2.12
784.817	-4.88
785.075	38609.12
785.334	8033.12
785.592	4311.12
785.851	3039.12
786.109	2351.12
786.368	1868.12
786.626	1533.12
786.884	1296.12
787.143	1104.12
787.401	931.12
787.659	868.12
787.917	765.12
788.175	731.12
788.433	639.12
788.691	589.12
788.949	574.12
789.207	558.12
789.465	467.12
789.723	482.12
789.98	443.12
790.238	490.12
790.496	466.12
790.753	446.12
791.011	506.12
791.268	444.12
791.526	421.12
791.783	453.12
792.041	439.12
792.298	363.12
792.556	426.12
792.813	414.12
793.07	393.12
793.327	387.12
793.584	447.12
793.841	395.12
794.099	402.12
794.356	464.12
794.613	374.12
794.869	419.12
795.126	370.12
795.383	361.12
795.64	391.12
795.897	332.12
796.153	403.12
796.41	380.12
796.667	364.12
796.923	372.12
797.18	380.12
797.436	396.12
797.693	374.12
797.949	406.12
798.206	437.12
798.462	359.12
798.718	419.12
798.974	408.12
799.231	430.12
799.487	417.12
799.743	430.12
799.999	444.12
800.255	438.12
800.511	433.12
800.767	452.12
801.023	451.12
801.279	467.12
801.534	486.12
801.79	525.12
802.046	554.12
802.302	657.12
802.557	706.12
802.813	851.12
803.068	1004.12
803.324	1363.12
803.579	1764.12
803.835	2450.12
804.09	3319.12
804.345	4270.12
804.601	5351.12
804.856	6467.12
805.111	7415.12
805.366	8120.12
805.621	8672.12
805.876	8971.12
806.131	9283.12
806.386	9444.12
806.641	9584.12
806.896	9777.12
807.151	9984.12
807.406	10177.12
807.661	10274.12
807.915	10471.12
808.17	10690.12
808.425	10827.12
808.679	10909.12
808.934	11146.12
809.188	11089.12
809.443	11302.12
809.697	11502.12
809.951	11506.12
810.206	11684.12
810.46	11776.12
810.714	11864.12
810.968	11974.12
811.223	12042.12
811.477	12209.12
811.731	12296.12
811.985	12258.12
812.239	12383.12
812.493	12408.12
812.747	12458.12
813	12479.12
813.254	12599.12
813.508	12724.12
813.762	12713.12
814.015	12771.12
814.269	12913.12
814.522	13038.12
814.776	13234.12
815.03	13302.12
815.283	13631.12
815.536	13820.12
815.79	14046.12
816.043	14172.12
816.296	14393.12
816.55	14599.12
816.803	14856.12
817.056	15137.12
817.309	15159.12
817.562	15281.12
817.815	15462.12
818.068	15592.12
818.321	15762.12
818.574	15939.12
818.827	16190.12
819.079	16322.12
819.332	16756.12
819.585	16772.12
819.838	17107.12
820.09	17153.12
820.343	17359.12
820.595	17378.12
820.848	17588.12
821.1	17575.12
821.353	17539.12
821.605	17540.12
821.857	17509.12
822.11	17471.12
822.362	17531.12
822.614	17544.12
822.866	17488.12
823.118	17408.12
823.37	17633.12
823.622	17607.12
823.874	17637.12
824.126	17729.12
824.378	17573.12
824.63	17791.12
824.882	17793.12
825.134	17819.12
825.385	17764.12
825.637	17783.12
825.888	17731.12
826.14	17734.12
826.392	17663.12
826.643	17549.12
826.895	17551.12
827.146	17478.12
827.397	17452.12
827.649	17431.12
827.9	17413.12
828.151	17382.12
828.402	17554.12
828.653	17583.12
828.905	17627.12
829.156	17659.12
829.407	17634.12
829.658	17708.12
829.909	17749.12
830.159	17679.12
830.41	17577.12
830.661	17525.12
830.912	17327.12
831.162	17324.12
831.413	17275.12
831.664	17283.12
831.914	17293.12
832.165	17307.12
832.415	17256.12
832.666	17334.12
832.916	17306.12
833.167	17255.12
833.417	17298.12
833.667	17226.12
833.917	17219.12
834.168	17248.12
834.418	17172.12
834.668	17117.12
834.918	16961.12
835.168	17015.12
835.418	16866.12
835.668	16819.12
835.918	16884.12
836.167	16840.12
836.417	16734.12
836.667	16764.12
836.917	16824.12
837.166	16734.12
837.416	16804.12
837.666	16818.12
837.915	16728.12
838.165	16631.12
838.414	16610.12
838.663	16558.12
838.913	16564.12
839.162	16519.12
839.411	16684.12
839.661	16568.12
839.91	16473.12
840.159	16460.12
840.408	16516.12
840.657	16430.12
840.906	16426.12
841.155	16566.12
841.404	16423.12
841.653	16492.12
841.902	16550.12
842.15	16622.12
842.399	16700.12
842.648	16634.12
842.897	16579.12
843.145	16401.12
843.394	16360.12
843.642	16244.12
843.891	16187.12
844.139	16095.12
844.388	16008.12
844.636	15861.12
844.884	15908.12
845.133	15900.12
845.381	15846.12
845.629	15875.12
845.877	15879.12
846.125	15804.12
846.373	15831.12
846.621	15752.12
846.869	15793.12
847.117	15668.12
847.365	15584.12
847.613	15615.12
847.861	15463.12
848.108	15489.12
848.356	15461.12
848.604	15417.12
848.851	15556.12
849.099	15473.12
849.346	15605.12
849.594	15648.12
849.841	15740.12
850.089	15905.12
850.336	15843.12
850.583	15953.12
850.831	15866.12
851.078	15788.12
851.325	15653.12
851.572	15684.12
851.819	15463.12
852.066	15120.12
852.313	14989.12
852.56	14886.12
852.807	14725.12
853.054	14747.12
853.301	14679.12
853.548	14680.12
853.794	14854.12
854.041	14873.12
854.288	14989.12
854.534	15124.12
854.781	15049.12
855.028	14994.12
855.274	15060.12
855.52	15001.12
855.767	14900.12
856.013	14888.12
856.26	15238.12
856.506	14804.12
856.752	14782.12
856.998	14706.12
857.244	14832.12
857.49	14918.12
857.736	14886.12
857.982	14915.12
858.228	14848.12
858.474	14730.12
858.72	14661.12
858.966	14479.12
859.212	14422.12
859.458	14200.12
859.703	14129.12
859.949	13959.12
860.195	13877.12
860.44	13951.12
860.686	13776.12
860.931	13821.12
861.177	13643.12
861.422	13671.12
861.667	13640.12
861.913	13578.12
862.158	13621.12
862.403	13664.12
862.648	13732.12
862.893	13724.12
863.138	13758.12
863.384	13704.12
863.629	13696.12
863.873	13589.12
864.118	13625.12
864.363	13572.12
864.608	13548.12
864.853	13489.12
865.098	13479.12
865.342	13399.12
865.587	13302.12
865.832	13280.12
866.076	13269.12
866.321	13232.12
866.565	13320.12
866.81	13097.12
867.054	13174.12
867.298	13144.12
867.543	13093.12
867.787	13135.12
868.031	12956.12
868.275	12958.12
868.519	13015.12
868.764	12930.12
869.008	12927.12
869.252	12950.12
869.496	12982.12
869.739	12867.12
869.983	12877.12
870.227	12899.12
870.471	12820.12
870.715	12934.12
870.958	12935.12
871.202	12924.12
871.446	13016.12
871.689	13034.12
871.933	12985.12
872.176	12989.12
872.42	12943.12
872.663	12872.12
872.906	12946.12
873.15	12851.12
873.393	12773.12
873.636	12852.12
873.879	12664.12
874.122	12533.12
874.366	12415.12
874.609	12288.12
874.852	12232.12
875.095	12150.12
875.337	12079.12
875.58	12004.12
875.823	12127.12
876.066	12024.12
876.309	12009.12
876.551	11862.12
876.794	11753.12
877.037	11795.12
877.279	11763.12
877.522	11789.12
877.764	11843.12
878.007	11752.12
878.249	11694.12
878.491	11713.12
878.734	11721.12
878.976	11742.12
879.218	11644.12
879.46	11530.12
879.702	11614.12
879.945	11506.12
880.187	11270.12
880.429	11295.12
880.671	11227.12
880.912	11228.12
881.154	11142.12
881.396	11162.12
881.638	11160.12
881.88	11103.12
882.121	11158.12
882.363	11120.12
882.605	11118.12
882.846	11046.12
883.088	11092.12
883.329	11052.12
883.571	11102.12
883.812	11180.12
884.053	11309.12
884.295	11472.12
884.536	11666.12
884.777	11420.12
885.018	11463.12
885.259	11280.12
885.5	11344.12
885.742	11532.12
885.982	11252.12
886.223	11146.12
886.464	11013.12
886.705	10915.12
886.946	11030.12
887.187	10742.12
887.428	10688.12
887.668	10633.12
887.909	10418.12
888.15	10317.12
888.39	10298.12
888.631	10348.12
888.871	10173.12
889.111	10076.12
889.352	10041.12
889.592	9875.12
889.833	9887.12
890.073	9836.12
890.313	9848.12
890.553	9606.12
890.793	9627.12
891.033	9568.12
891.273	9580.12
891.513	9493.12
891.753	9505.12
891.993	9470.12
892.233	9513.12
892.473	9635.12
892.713	9590.12
892.952	9555.12
893.192	9575.12
893.432	9526.12
893.671	9543.12
893.911	9461.12
894.15	9405.12
894.39	9262.12
894.629	9262.12
894.869	9321.12
895.108	9173.12
895.347	9176.12
895.587	9193.12
895.826	9161.12
896.065	9135.12
896.304	9165.12
896.543	9100.12
896.782	9010.12
897.021	9108.12
897.26	9054.12
897.499	9064.12
897.738	9008.12
897.977	9031.12
898.216	8953.12
898.454	8841.12
898.693	8801.12
898.932	8830.12
899.17	8755.12
899.409	8661.12
899.647	8747.12
899.886	8678.12
900.124	8699.12
900.363	8633.12
900.601	8750.12
900.839	8725.12
901.078	8750.12
901.316	8741.12
901.554	8862.12
901.792	8920.12
902.03	8841.12
902.268	8806.12
902.506	8827.12
902.744	8699.12
902.982	8684.12
903.22	8515.12
903.458	8390.12
903.695	8363.12
903.933	8255.12
904.171	8048.12
904.409	7975.12
904.646	7972.12
904.884	7808.12
905.121	7749.12
905.359	7658.12
905.596	7627.12
905.833	7474.12
906.071	7489.12
906.308	7459.12
906.545	7482.12
906.783	7375.12
907.02	7368.12
907.257	7348.12
907.494	7314.12
907.731	7328.12
907.968	7300.12
908.205	7219.12
908.442	7217.12
908.679	7200.12
908.915	7100.12
909.152	7054.12
909.389	6966.12
909.626	6951.12
909.862	6891.12
910.099	6941.12
910.335	6844.12
910.572	6787.12
910.808	6789.12
911.045	6793.12
911.281	6760.12
911.518	6774.12
911.754	6637.12
911.99	6635.12
912.226	6556.12
912.463	6531.12
912.699	6469.12
912.935	6468.12
913.171	6404.12
913.407	6335.12
913.643	6389.12
913.879	6301.12
914.114	6269.12
914.35	6158.12
914.586	6178.12
914.822	6049.12
915.057	6122.12
915.293	5928.12
915.529	5945.12
915.764	5961.12
916	5958.12
916.235	5945.12
916.471	5944.12
916.706	5809.12
916.941	5898.12
917.177	5857.12
917.412	5894.12
917.647	5873.12
917.882	5810.12
918.117	5882.12
918.352	5853.12
918.588	5854.12
918.823	5744.12
919.057	5681.12
919.292	5546.12
919.527	5651.12
919.762	5580.12
919.997	5611.12
920.232	5410.12
920.466	5481.12
920.701	5375.12
920.935	5424.12
921.17	5278.12
921.405	5277.12
921.639	5280.12
921.873	5269.12
922.108	5268.12
922.342	5225.12
922.576	5160.12
922.811	5161.12
923.045	5171.12
923.279	5201.12
923.513	5009.12
923.747	5155.12
923.981	5086.12
924.215	4993.12
924.449	5000.12
924.683	4915.12
924.917	4889.12
925.151	4908.12
925.385	4955.12
925.618	4886.12
925.852	4878.12
926.086	4828.12
926.319	4853.12
926.553	4863.12
926.786	4852.12
927.02	4845.12
927.253	4874.12
927.486	4879.12
927.72	4782.12
927.953	4808.12
928.186	4777.12
928.42	4817.12
928.653	4749.12
928.886	4730.12
929.119	4747.12
929.352	4704.12
929.585	4644.12
929.818	4584.12
930.051	4603.12
930.284	4635.12
930.516	4479.12
930.749	4474.12
930.982	4486.12
931.215	4485.12
931.447	4377.12
931.68	4386.12
931.912	4398.12
932.145	4397.12
932.377	4395.12
932.61	4510.12
932.842	4285.12
933.074	4426.12
933.307	4350.12
933.539	4452.12
933.771	4415.12
934.003	4360.12
934.236	4394.12
934.468	4434.12
934.7	4358.12
934.932	4375.12
935.164	4325.12
935.395	4274.12
935.627	4313.12
935.859	4327.12
936.091	4256.12
936.323	4254.12
936.554	4308.12
936.786	4239.12
937.017	4165.12
937.249	4247.12
937.481	4149.12
937.712	4190.12
937.943	4158.12
938.175	4157.12
938.406	4137.12
938.637	4194.12
938.869	4110.12
939.1	4159.12
939.331	4075.12
939.562	4112.12
939.793	4117.12
940.024	4118.12
940.255	4115.12
940.486	4029.12
940.717	4036.12
940.948	3988.12
941.179	3957.12
941.409	3975.12
941.64	3958.12
941.871	4009.12
942.102	3950.12
942.332	4004.12
942.563	3992.12
942.793	4027.12
943.024	3927.12
943.254	3977.12
943.484	3992.12
943.715	3969.12
943.945	3931.12
944.175	3875.12
944.405	3827.12
944.636	3918.12
944.866	3923.12
945.096	3952.12
945.326	3829.12
945.556	3891.12
945.786	3905.12
946.016	3870.12
946.245	3794.12
946.475	3743.12
946.705	3776.12
946.935	3718.12
947.164	3757.12
947.394	3686.12
947.624	3687.12
947.853	3717.12
948.083	3678.12
948.312	3630.12
948.542	3565.12
948.771	3567.12
949	3602.12
949.23	3606.12
949.459	3623.12
949.688	3663.12
949.917	3571.12
950.146	3569.12
950.375	3614.12
950.604	3564.12
950.833	3625.12
951.062	3617.12
951.291	3518.12
951.52	3519.12
951.749	3540.12
951.978	3465.12
952.206	3506.12
952.435	3510.12
952.664	3509.12
952.892	3502.12
953.121	3454.12
953.349	3506.12
953.578	3461.12
953.806	3451.12
954.035	3382.12
954.263	3402.12
954.491	3331.12
954.719	3382.12
954.948	3373.12
955.176	3333.12
955.404	3235.12
955.632	3312.12
955.86	3310.12
956.088	3314.12
956.316	3333.12
956.544	3281.12
956.772	3232.12
956.999	3207.12
957.227	3274.12
957.455	3176.12
957.683	3160.12
957.91	3134.12
958.138	3118.12
958.365	3121.12
958.593	3128.12
958.82	3035.12
959.048	3113.12
959.275	3068.12
959.502	3074.12
959.73	3020.12
959.957	3085.12
960.184	3106.12
960.411	3045.12
960.638	3111.12
960.865	3037.12
961.092	3046.12
961.319	2953.12
961.546	3094.12
961.773	3032.12
962	3004.12
962.227	3029.12
962.454	3006.12
962.68	3001.12
962.907	3035.12
963.134	2937.12
963.36	2939.12
963.587	2962.12
963.813	2909.12
964.04	2969.12
964.266	2863.12
964.493	2943.12
964.719	2893.12
964.945	2895.12
965.171	2809.12
965.398	2837.12
965.624	2835.12
965.85	2755.12
966.076	2784.12
966.302	2784.12
966.528	2753.12
966.754	2781.12
966.98	2782.12
967.206	2788.12
967.431	2672.12
967.657	2762.12
967.883	2723.12
968.109	2739.12
968.334	2672.12
968.56	2671.12
968.785	2711.12
969.011	2640.12
969.236	2716.12
969.462	2602.12
969.687	2654.12
969.912	2691.12
970.138	2678.12
970.363	2618.12
970.588	2634.12
970.813	2625.12
971.038	2590.12
971.263	2588.12
971.488	2584.12
971.713	2622.12
971.938	2604.12
972.163	2500.12
972.388	2540.12
972.613	2480.12
972.838	2540.12
973.062	2532.12
973.287	2511.12
973.512	2445.12
973.736	2468.12
973.961	2473.12
974.185	2435.12
974.41	2463.12
974.634	2354.12
974.858	2408.12
975.083	2416.12
975.307	2427.12
975.531	2377.12
975.755	2323.12
975.98	2346.12
976.204	2275.12
976.428	2279.12
976.652	2250.12
976.876	2288.12
977.1	2259.12
977.324	2247.12
977.547	2285.12
977.771	2289.12
977.995	2235.12
978.219	2204.12
978.442	2290.12
978.666	2245.12
978.89	2247.12
979.113	2214.12
979.337	2227.12
979.56	2203.12
979.783	2249.12
980.007	2147.12
980.23	2200.12
980.453	2146.12
980.677	2191.12
980.9	2172.12
981.123	2070.12
981.346	2185.12
981.569	2173.12
981.792	2149.12
982.015	2120.12
982.238	2057.12
982.461	2090.12
982.684	2063.12
982.907	2013.12
983.129	2017.12
983.352	2099.12
983.575	2062.12
983.797	2061.12
984.02	2008.12
984.242	1976.12
984.465	1999.12
984.687	2024.12
984.91	2040.12
985.132	1998.12
985.354	2024.12
985.577	1992.12
985.799	1970.12
986.021	1883.12
986.243	1944.12
986.465	1944.12
986.687	1990.12
986.909	2026.12
987.131	1941.12
987.353	1916.12
987.575	1944.12
987.797	1933.12
988.019	1841.12
988.241	1892.12
988.462	1866.12
988.684	1948.12
988.906	1920.12
989.127	1959.12
989.349	1844.12
989.57	1855.12
989.792	1894.12
990.013	1918.12
990.234	1902.12
990.456	1968.12
990.677	1902.12
990.898	1863.12
991.119	1870.12
991.341	1859.12
991.562	1798.12
991.783	1883.12
992.004	1783.12
992.225	1743.12
992.446	1825.12
992.667	1693.12
992.887	1818.12
993.108	1691.12
993.329	1820.12
993.55	1753.12
993.77	1691.12
993.991	1679.12
994.212	1731.12
994.432	1686.12
994.653	1745.12
994.873	1715.12
995.093	1640.12
995.314	1662.12
995.534	1727.12
995.754	1731.12
995.975	1752.12
996.195	1666.12
996.415	1710.12
996.635	1648.12
996.855	1662.12
997.075	1672.12
997.295	1668.12
997.515	1612.12
997.735	1692.12
997.955	1681.12
998.174	1676.12
998.394	1605.12
998.614	1670.12
998.834	1609.12
999.053	1695.12
999.273	1662.12
999.492	1723.12
999.712	1634.12
999.931	1577.12
1000.151	1639.12
1000.37	1623.12
1000.589	1671.12
1000.809	1602.12
1001.028	1704.12
1001.247	1638.12
1001.466	1506.12
1001.685	1678.12
1001.904	1627.12
1002.123	1580.12
1002.342	1617.12
1002.561	1555.12
1002.78	1571.12
1002.999	1638.12
1003.218	1611.12
1003.436	1549.12
1003.655	1610.12
1003.874	1509.12
1004.092	1562.12
1004.311	1583.12
1004.53	1542.12
1004.748	1650.12
1004.966	1541.12
1005.185	1601.12
1005.403	1570.12
1005.622	1542.12
1005.84	1616.12
1006.058	1554.12
1006.276	1565.12
1006.494	2050.12
1006.712	1515.12
1006.931	1606.12
1007.149	1507.12
1007.367	1517.12
1007.584	1536.12
1007.802	1581.12
1008.02	1523.12
1008.238	1627.12
1008.456	1653.12
1008.673	1500.12
1008.891	1582.12
1009.109	1527.12
1009.326	1611.12
1009.544	1688.12
1009.761	1570.12
1009.979	1689.12
1010.196	1683.12
1010.413	1778.12
1010.631	1813.12
1010.848	1808.12
1011.065	1833.12
1011.282	1776.12
1011.5	1723.12
1011.717	1837.12
1011.934	1741.12
1012.151	1783.12
1012.368	1783.12
1012.585	1725.12
1012.801	1769.12
1013.018	1740.12
1013.235	1721.12
1013.452	1734.12
1013.669	1730.12
1013.885	1725.12
1014.102	1745.12
1014.318	1731.12
1014.535	1688.12
1014.751	1685.12
1014.968	1704.12
1015.184	1727.12
1015.401	1620.12
1015.617	1660.12
1015.833	1607.12
1016.049	1622.12
1016.266	1608.12
1016.482	1581.12
1016.698	1540.12
1016.914	1586.12
1017.13	1527.12
1017.346	1510.12
1017.562	1574.12
1017.778	1524.12
1017.993	1487.12
1018.209	1534.12
1018.425	1503.12
1018.641	1500.12
1018.856	1454.12
1019.072	1493.12
1019.288	1524.12
1019.503	1481.12
1019.719	1406.12
1019.934	1405.12
1020.149	1498.12
1020.365	1421.12
1020.58	1334.12
1020.795	1440.12
1021.011	1371.12
1021.226	1355.12
1021.441	1357.12
1021.656	1271.12
1021.871	1215.12
1022.086	1233.12
1022.301	1218.12
1022.516	1216.12
1022.731	1269.12
1022.946	1176.12
1023.16	1153.12
1023.375	1103.12
1023.59	1115.12
1023.804	1080.12
1024.019	1177.12
1024.234	1039.12
1024.448	1075.12
1024.663	1027.12
1024.877	1050.12
1025.092	1049.12
1025.306	1054.12
1025.52	980.12
1025.734	1037.12
1025.949	968.12
1026.163	948.12
1026.377	878.12
1026.591	929.12
1026.805	847.12
1027.019	868.12
1027.233	822.12
1027.447	767.12
1027.661	863.12
1027.875	802.12
1028.088	813.12
1028.302	733.12
1028.516	730.12
1028.73	717.12
1028.943	716.12
1029.157	661.12
1029.37	621.12
1029.584	-1.88
1029.797	-1.88
1030.011	-2.88
1030.224	-2.88
