Data from QEP037381__35__11-26-45-594.txt Node

Date: Wed Dec 21 11:26:45 EST 2022
User: dcclab
Spectrometer: QEP03738
Trigger mode: 4
Integration Time (sec): 1.000000E1
Scans to average: 1
Electric dark correction enabled: true
Nonlinearity correction enabled: false
Boxcar width: 0
XAxis mode: Wavelengths
Number of Pixels in Spectrum: 1044
>>>>>Begin Spectral Data<<<<<
784.041	14.38
784.3	0.38
784.558	-2.62
784.817	-3.62
785.075	43313.38
785.334	8775.38
785.592	4626.38
785.851	3260.38
786.109	2528.38
786.368	2011.38
786.626	1647.38
786.884	1382.38
787.143	1161.38
787.401	971.38
787.659	913.38
787.917	800.38
788.175	755.38
788.433	645.38
788.691	615.38
788.949	574.38
789.207	563.38
789.465	481.38
789.723	468.38
789.98	435.38
790.238	516.38
790.496	455.38
790.753	435.38
791.011	511.38
791.268	462.38
791.526	439.38
791.783	453.38
792.041	453.38
792.298	354.38
792.556	424.38
792.813	404.38
793.07	383.38
793.327	384.38
793.584	447.38
793.841	382.38
794.099	396.38
794.356	460.38
794.613	369.38
794.869	415.38
795.126	372.38
795.383	349.38
795.64	378.38
795.897	331.38
796.153	382.38
796.41	373.38
796.667	362.38
796.923	375.38
797.18	357.38
797.436	396.38
797.693	356.38
797.949	395.38
798.206	414.38
798.462	354.38
798.718	399.38
798.974	375.38
799.231	411.38
799.487	394.38
799.743	397.38
799.999	418.38
800.255	423.38
800.511	402.38
800.767	436.38
801.023	419.38
801.279	443.38
801.534	465.38
801.79	494.38
802.046	498.38
802.302	579.38
802.557	624.38
802.813	755.38
803.068	864.38
803.324	1133.38
803.579	1447.38
803.835	1982.38
804.09	2672.38
804.345	3345.38
804.601	4159.38
804.856	4994.38
805.111	5659.38
805.366	6154.38
805.621	6570.38
805.876	6858.38
806.131	6960.38
806.386	7080.38
806.641	7166.38
806.896	7323.38
807.151	7477.38
807.406	7566.38
807.661	7658.38
807.915	7849.38
808.17	7983.38
808.425	8027.38
808.679	8080.38
808.934	8200.38
809.188	8221.38
809.443	8392.38
809.697	8457.38
809.951	8489.38
810.206	8514.38
810.46	8654.38
810.714	8700.38
810.968	8820.38
811.223	8866.38
811.477	8935.38
811.731	8901.38
811.985	8977.38
812.239	8979.38
812.493	9061.38
812.747	9110.38
813	9108.38
813.254	9170.38
813.508	9191.38
813.762	9215.38
814.015	9267.38
814.269	9315.38
814.522	9439.38
814.776	9534.38
815.03	9621.38
815.283	9767.38
815.536	9867.38
815.79	10021.38
816.043	10177.38
816.296	10317.38
816.55	10409.38
816.803	10506.38
817.056	10667.38
817.309	10798.38
817.562	10786.38
817.815	10991.38
818.068	10997.38
818.321	11175.38
818.574	11189.38
818.827	11398.38
819.079	11517.38
819.332	11791.38
819.585	11860.38
819.838	11983.38
820.09	11962.38
820.343	12112.38
820.595	12112.38
820.848	12174.38
821.1	12246.38
821.353	12141.38
821.605	12199.38
821.857	12240.38
822.11	12107.38
822.362	12114.38
822.614	12078.38
822.866	12043.38
823.118	11986.38
823.37	12136.38
823.622	12101.38
823.874	12193.38
824.126	12255.38
824.378	12165.38
824.63	12230.38
824.882	12303.38
825.134	12200.38
825.385	12199.38
825.637	12150.38
825.888	12058.38
826.14	12111.38
826.392	12011.38
826.643	11948.38
826.895	11938.38
827.146	11872.38
827.397	11820.38
827.649	11949.38
827.9	11807.38
828.151	11846.38
828.402	11864.38
828.653	11918.38
828.905	11849.38
829.156	12008.38
829.407	11893.38
829.658	11974.38
829.909	12126.38
830.159	12110.38
830.41	12001.38
830.661	11924.38
830.912	11790.38
831.162	11781.38
831.413	11731.38
831.664	11815.38
831.914	11719.38
832.165	11672.38
832.415	11714.38
832.666	11677.38
832.916	11710.38
833.167	11751.38
833.417	11802.38
833.667	11673.38
833.917	11623.38
834.168	11642.38
834.418	11572.38
834.668	11495.38
834.918	11384.38
835.168	11397.38
835.418	11336.38
835.668	11333.38
835.918	11363.38
836.167	11349.38
836.417	11246.38
836.667	11224.38
836.917	11288.38
837.166	11224.38
837.416	11314.38
837.666	11316.38
837.915	11232.38
838.165	11239.38
838.414	11127.38
838.663	11102.38
838.913	11211.38
839.162	11149.38
839.411	11184.38
839.661	11100.38
839.91	11085.38
840.159	11093.38
840.408	11134.38
840.657	11125.38
840.906	11133.38
841.155	11113.38
841.404	11064.38
841.653	11153.38
841.902	11140.38
842.15	11128.38
842.399	11218.38
842.648	11177.38
842.897	11089.38
843.145	11024.38
843.394	10904.38
843.642	10817.38
843.891	10783.38
844.139	10661.38
844.388	10575.38
844.636	10559.38
844.884	10546.38
845.133	10572.38
845.381	10586.38
845.629	10602.38
845.877	10540.38
846.125	10506.38
846.373	10527.38
846.621	10446.38
846.869	10449.38
847.117	10404.38
847.365	10355.38
847.613	10377.38
847.861	10290.38
848.108	10327.38
848.356	10304.38
848.604	10195.38
848.851	10284.38
849.099	10278.38
849.346	10324.38
849.594	10361.38
849.841	10524.38
850.089	10595.38
850.336	10603.38
850.583	10761.38
850.831	10698.38
851.078	10601.38
851.325	10445.38
851.572	10490.38
851.819	10401.38
852.066	10050.38
852.313	9850.38
852.56	9811.38
852.807	9868.38
853.054	9745.38
853.301	9779.38
853.548	9742.38
853.794	9918.38
854.041	9883.38
854.288	9913.38
854.534	10039.38
854.781	10042.38
855.028	9993.38
855.274	10029.38
855.52	10021.38
855.767	10002.38
856.013	10079.38
856.26	10371.38
856.506	9856.38
856.752	9921.38
856.998	9910.38
857.244	9892.38
857.49	9900.38
857.736	10006.38
857.982	9930.38
858.228	9889.38
858.474	9791.38
858.72	9744.38
858.966	9627.38
859.212	9530.38
859.458	9381.38
859.703	9308.38
859.949	9198.38
860.195	9244.38
860.44	9183.38
860.686	9168.38
860.931	9205.38
861.177	8987.38
861.422	9068.38
861.667	8909.38
861.913	8881.38
862.158	8943.38
862.403	8997.38
862.648	8956.38
862.893	9016.38
863.138	8902.38
863.384	8888.38
863.629	8973.38
863.873	8878.38
864.118	8956.38
864.363	8826.38
864.608	8831.38
864.853	8833.38
865.098	8694.38
865.342	8761.38
865.587	8672.38
865.832	8705.38
866.076	8650.38
866.321	8596.38
866.565	8605.38
866.81	8483.38
867.054	8600.38
867.298	8549.38
867.543	8464.38
867.787	8557.38
868.031	8462.38
868.275	8515.38
868.519	8461.38
868.764	8436.38
869.008	8424.38
869.252	8468.38
869.496	8461.38
869.739	8429.38
869.983	8491.38
870.227	8532.38
870.471	8498.38
870.715	8558.38
870.958	8573.38
871.202	8618.38
871.446	8600.38
871.689	8555.38
871.933	8558.38
872.176	8632.38
872.42	8606.38
872.663	8598.38
872.906	8617.38
873.15	8602.38
873.393	8675.38
873.636	8673.38
873.879	8563.38
874.122	8424.38
874.366	8298.38
874.609	8211.38
874.852	8109.38
875.095	8018.38
875.337	7943.38
875.58	7873.38
875.823	7943.38
876.066	7886.38
876.309	7912.38
876.551	7770.38
876.794	7683.38
877.037	7764.38
877.279	7729.38
877.522	7724.38
877.764	7664.38
878.007	7656.38
878.249	7616.38
878.491	7615.38
878.734	7645.38
878.976	7679.38
879.218	7517.38
879.46	7530.38
879.702	7476.38
879.945	7363.38
880.187	7312.38
880.429	7277.38
880.671	7247.38
880.912	7286.38
881.154	7258.38
881.396	7108.38
881.638	7144.38
881.88	7163.38
882.121	7139.38
882.363	7117.38
882.605	7217.38
882.846	7242.38
883.088	7179.38
883.329	7178.38
883.571	7301.38
883.812	7474.38
884.053	7706.38
884.295	7961.38
884.536	8086.38
884.777	7978.38
885.018	7896.38
885.259	7847.38
885.5	7618.38
885.742	7905.38
885.982	7675.38
886.223	7606.38
886.464	7539.38
886.705	7430.38
886.946	7271.38
887.187	7079.38
887.428	6995.38
887.668	6848.38
887.909	6695.38
888.15	6616.38
888.39	6638.38
888.631	6628.38
888.871	6572.38
889.111	6486.38
889.352	6416.38
889.592	6331.38
889.833	6236.38
890.073	6276.38
890.313	6294.38
890.553	6136.38
890.793	6129.38
891.033	6108.38
891.273	6049.38
891.513	6103.38
891.753	6160.38
891.993	6092.38
892.233	6134.38
892.473	6178.38
892.713	6131.38
892.952	6056.38
893.192	6165.38
893.432	6047.38
893.671	6117.38
893.911	6055.38
894.15	6034.38
894.39	6005.38
894.629	5962.38
894.869	6004.38
895.108	5870.38
895.347	5854.38
895.587	5900.38
895.826	5863.38
896.065	5798.38
896.304	5875.38
896.543	5918.38
896.782	5813.38
897.021	5891.38
897.26	5838.38
897.499	5867.38
897.738	5872.38
897.977	5865.38
898.216	5756.38
898.454	5743.38
898.693	5698.38
898.932	5749.38
899.17	5695.38
899.409	5645.38
899.647	5707.38
899.886	5721.38
900.124	5687.38
900.363	5678.38
900.601	5717.38
900.839	5731.38
901.078	5814.38
901.316	5857.38
901.554	5870.38
901.792	5923.38
902.03	5939.38
902.268	5919.38
902.506	5837.38
902.744	5869.38
902.982	5796.38
903.22	5621.38
903.458	5543.38
903.695	5459.38
903.933	5398.38
904.171	5230.38
904.409	5178.38
904.646	5121.38
904.884	4955.38
905.121	5003.38
905.359	4911.38
905.596	4873.38
905.833	4794.38
906.071	4708.38
906.308	4822.38
906.545	4763.38
906.783	4681.38
907.02	4727.38
907.257	4669.38
907.494	4639.38
907.731	4656.38
907.968	4640.38
908.205	4584.38
908.442	4576.38
908.679	4574.38
908.915	4497.38
909.152	4538.38
909.389	4373.38
909.626	4388.38
909.862	4314.38
910.099	4391.38
910.335	4385.38
910.572	4280.38
910.808	4277.38
911.045	4251.38
911.281	4282.38
911.518	4266.38
911.754	4226.38
911.99	4163.38
912.226	4152.38
912.463	4088.38
912.699	4096.38
912.935	4097.38
913.171	4033.38
913.407	4028.38
913.643	4058.38
913.879	3929.38
914.114	3964.38
914.35	3870.38
914.586	3873.38
914.822	3842.38
915.057	3875.38
915.293	3724.38
915.529	3734.38
915.764	3823.38
916	3781.38
916.235	3774.38
916.471	3725.38
916.706	3655.38
916.941	3705.38
917.177	3663.38
917.412	3716.38
917.647	3723.38
917.882	3664.38
918.117	3697.38
918.352	3679.38
918.588	3700.38
918.823	3605.38
919.057	3577.38
919.292	3448.38
919.527	3576.38
919.762	3527.38
919.997	3554.38
920.232	3442.38
920.466	3481.38
920.701	3366.38
920.935	3374.38
921.17	3313.38
921.405	3324.38
921.639	3338.38
921.873	3307.38
922.108	3376.38
922.342	3326.38
922.576	3278.38
922.811	3225.38
923.045	3303.38
923.279	3311.38
923.513	3169.38
923.747	3184.38
923.981	3180.38
924.215	3168.38
924.449	3182.38
924.683	3104.38
924.917	3089.38
925.151	3148.38
925.385	3143.38
925.618	3118.38
925.852	3109.38
926.086	3026.38
926.319	3118.38
926.553	3091.38
926.786	3097.38
927.02	3048.38
927.253	3105.38
927.486	3107.38
927.72	3019.38
927.953	3068.38
928.186	3015.38
928.42	3037.38
928.653	3009.38
928.886	2975.38
929.119	2983.38
929.352	3007.38
929.585	2953.38
929.818	2901.38
930.051	2938.38
930.284	2940.38
930.516	2825.38
930.749	2821.38
930.982	2837.38
931.215	2871.38
931.447	2774.38
931.68	2835.38
931.912	2776.38
932.145	2794.38
932.377	2831.38
932.61	2934.38
932.842	2757.38
933.074	2832.38
933.307	2765.38
933.539	2862.38
933.771	2819.38
934.003	2779.38
934.236	2852.38
934.468	2875.38
934.7	2758.38
934.932	2805.38
935.164	2756.38
935.395	2737.38
935.627	2770.38
935.859	2771.38
936.091	2706.38
936.323	2761.38
936.554	2778.38
936.786	2704.38
937.017	2645.38
937.249	2686.38
937.481	2643.38
937.712	2730.38
937.943	2697.38
938.175	2611.38
938.406	2699.38
938.637	2734.38
938.869	2647.38
939.1	2683.38
939.331	2587.38
939.562	2630.38
939.793	2648.38
940.024	2614.38
940.255	2634.38
940.486	2604.38
940.717	2612.38
940.948	2598.38
941.179	2551.38
941.409	2575.38
941.64	2513.38
941.871	2592.38
942.102	2556.38
942.332	2544.38
942.563	2596.38
942.793	2555.38
943.024	2528.38
943.254	2519.38
943.484	2598.38
943.715	2565.38
943.945	2555.38
944.175	2497.38
944.405	2461.38
944.636	2477.38
944.866	2542.38
945.096	2521.38
945.326	2441.38
945.556	2495.38
945.786	2545.38
946.016	2465.38
946.245	2405.38
946.475	2418.38
946.705	2455.38
946.935	2426.38
947.164	2447.38
947.394	2423.38
947.624	2359.38
947.853	2428.38
948.083	2385.38
948.312	2366.38
948.542	2323.38
948.771	2291.38
949	2306.38
949.23	2309.38
949.459	2298.38
949.688	2375.38
949.917	2315.38
950.146	2320.38
950.375	2392.38
950.604	2262.38
950.833	2357.38
951.062	2365.38
951.291	2283.38
951.52	2285.38
951.749	2272.38
951.978	2238.38
952.206	2241.38
952.435	2234.38
952.664	2270.38
952.892	2268.38
953.121	2266.38
953.349	2260.38
953.578	2251.38
953.806	2212.38
954.035	2158.38
954.263	2193.38
954.491	2175.38
954.719	2185.38
954.948	2132.38
955.176	2128.38
955.404	2087.38
955.632	2155.38
955.86	2161.38
956.088	2151.38
956.316	2142.38
956.544	2168.38
956.772	2089.38
956.999	2060.38
957.227	2162.38
957.455	2053.38
957.683	2102.38
957.91	2048.38
958.138	2043.38
958.365	2035.38
958.593	2042.38
958.82	1954.38
959.048	2083.38
959.275	2014.38
959.502	2006.38
959.73	1944.38
959.957	2019.38
960.184	2019.38
960.411	1982.38
960.638	2050.38
960.865	1965.38
961.092	2018.38
961.319	1915.38
961.546	2011.38
961.773	2021.38
962	1964.38
962.227	2016.38
962.454	1958.38
962.68	1974.38
962.907	1983.38
963.134	1902.38
963.36	1962.38
963.587	1963.38
963.813	1886.38
964.04	1920.38
964.266	1875.38
964.493	1979.38
964.719	1911.38
964.945	1964.38
965.171	1818.38
965.398	1898.38
965.624	1887.38
965.85	1858.38
966.076	1822.38
966.302	1883.38
966.528	1839.38
966.754	1861.38
966.98	1862.38
967.206	1840.38
967.431	1772.38
967.657	1852.38
967.883	1831.38
968.109	1824.38
968.334	1751.38
968.56	1764.38
968.785	1780.38
969.011	1759.38
969.236	1798.38
969.462	1747.38
969.687	1752.38
969.912	1779.38
970.138	1830.38
970.363	1731.38
970.588	1764.38
970.813	1762.38
971.038	1698.38
971.263	1763.38
971.488	1740.38
971.713	1787.38
971.938	1746.38
972.163	1655.38
972.388	1677.38
972.613	1671.38
972.838	1674.38
973.062	1662.38
973.287	1662.38
973.512	1617.38
973.736	1669.38
973.961	1666.38
974.185	1634.38
974.41	1700.38
974.634	1574.38
974.858	1618.38
975.083	1639.38
975.307	1670.38
975.531	1572.38
975.755	1539.38
975.98	1537.38
976.204	1510.38
976.428	1509.38
976.652	1525.38
976.876	1490.38
977.1	1540.38
977.324	1499.38
977.547	1535.38
977.771	1560.38
977.995	1542.38
978.219	1448.38
978.442	1600.38
978.666	1513.38
978.89	1513.38
979.113	1497.38
979.337	1504.38
979.56	1488.38
979.783	1557.38
980.007	1444.38
980.23	1493.38
980.453	1435.38
980.677	1489.38
980.9	1470.38
981.123	1404.38
981.346	1496.38
981.569	1466.38
981.792	1481.38
982.015	1457.38
982.238	1410.38
982.461	1460.38
982.684	1413.38
982.907	1364.38
983.129	1395.38
983.352	1436.38
983.575	1407.38
983.797	1429.38
984.02	1381.38
984.242	1399.38
984.465	1402.38
984.687	1438.38
984.91	1422.38
985.132	1408.38
985.354	1427.38
985.577	1375.38
985.799	1390.38
986.021	1305.38
986.243	1340.38
986.465	1363.38
986.687	1411.38
986.909	1435.38
987.131	1391.38
987.353	1345.38
987.575	1375.38
987.797	1341.38
988.019	1281.38
988.241	1349.38
988.462	1301.38
988.684	1378.38
988.906	1390.38
989.127	1425.38
989.349	1296.38
989.57	1338.38
989.792	1371.38
990.013	1384.38
990.234	1389.38
990.456	1397.38
990.677	1409.38
990.898	1330.38
991.119	1342.38
991.341	1384.38
991.562	1293.38
991.783	1372.38
992.004	1256.38
992.225	1253.38
992.446	1333.38
992.667	1241.38
992.887	1332.38
993.108	1207.38
993.329	1352.38
993.55	1311.38
993.77	1255.38
993.991	1241.38
994.212	1295.38
994.432	1257.38
994.653	1277.38
994.873	1287.38
995.093	1161.38
995.314	1222.38
995.534	1329.38
995.754	1308.38
995.975	1330.38
996.195	1236.38
996.415	1278.38
996.635	1235.38
996.855	1295.38
997.075	1275.38
997.295	1269.38
997.515	1219.38
997.735	1303.38
997.955	1238.38
998.174	1270.38
998.394	1219.38
998.614	1266.38
998.834	1241.38
999.053	1310.38
999.273	1269.38
999.492	1319.38
999.712	1257.38
999.931	1244.38
1000.151	1265.38
1000.37	1240.38
1000.589	1297.38
1000.809	1246.38
1001.028	1331.38
1001.247	1277.38
1001.466	1189.38
1001.685	1308.38
1001.904	1246.38
1002.123	1229.38
1002.342	1235.38
1002.561	1190.38
1002.78	1236.38
1002.999	1276.38
1003.218	1221.38
1003.436	1201.38
1003.655	1269.38
1003.874	1214.38
1004.092	1235.38
1004.311	1270.38
1004.53	1248.38
1004.748	1305.38
1004.966	1225.38
1005.185	1283.38
1005.403	1291.38
1005.622	1267.38
1005.84	1339.38
1006.058	1223.38
1006.276	1263.38
1006.494	1740.38
1006.712	1244.38
1006.931	1317.38
1007.149	1247.38
1007.367	1249.38
1007.584	1302.38
1007.802	1333.38
1008.02	1266.38
1008.238	1358.38
1008.456	1344.38
1008.673	1256.38
1008.891	1388.38
1009.109	1325.38
1009.326	1414.38
1009.544	1487.38
1009.761	1395.38
1009.979	1540.38
1010.196	1576.38
1010.413	1696.38
1010.631	1710.38
1010.848	1802.38
1011.065	1756.38
1011.282	1718.38
1011.5	1679.38
1011.717	1771.38
1011.934	1729.38
1012.151	1756.38
1012.368	1737.38
1012.585	1682.38
1012.801	1738.38
1013.018	1715.38
1013.235	1691.38
1013.452	1722.38
1013.669	1746.38
1013.885	1720.38
1014.102	1732.38
1014.318	1720.38
1014.535	1686.38
1014.751	1709.38
1014.968	1696.38
1015.184	1744.38
1015.401	1641.38
1015.617	1638.38
1015.833	1595.38
1016.049	1610.38
1016.266	1576.38
1016.482	1615.38
1016.698	1512.38
1016.914	1570.38
1017.13	1508.38
1017.346	1486.38
1017.562	1557.38
1017.778	1495.38
1017.993	1455.38
1018.209	1505.38
1018.425	1467.38
1018.641	1432.38
1018.856	1434.38
1019.072	1458.38
1019.288	1526.38
1019.503	1439.38
1019.719	1388.38
1019.934	1379.38
1020.149	1434.38
1020.365	1362.38
1020.58	1358.38
1020.795	1374.38
1021.011	1301.38
1021.226	1310.38
1021.441	1321.38
1021.656	1225.38
1021.871	1152.38
1022.086	1132.38
1022.301	1166.38
1022.516	1152.38
1022.731	1209.38
1022.946	1086.38
1023.16	1088.38
1023.375	1065.38
1023.59	1019.38
1023.804	1013.38
1024.019	1070.38
1024.234	971.38
1024.448	1002.38
1024.663	938.38
1024.877	927.38
1025.092	951.38
1025.306	965.38
1025.52	861.38
1025.734	951.38
1025.949	881.38
1026.163	852.38
1026.377	789.38
1026.591	834.38
1026.805	784.38
1027.019	781.38
1027.233	729.38
1027.447	691.38
1027.661	782.38
1027.875	715.38
1028.088	733.38
1028.302	682.38
1028.516	643.38
1028.73	664.38
1028.943	650.38
1029.157	601.38
1029.37	567.38
1029.584	-1.62
1029.797	-3.62
1030.011	-3.62
1030.224	0.38
