Data from QEP037381__103__11-38-05-597.txt Node

Date: Wed Dec 21 11:38:05 EST 2022
User: dcclab
Spectrometer: QEP03738
Trigger mode: 4
Integration Time (sec): 1.000000E1
Scans to average: 1
Electric dark correction enabled: true
Nonlinearity correction enabled: false
Boxcar width: 0
XAxis mode: Wavelengths
Number of Pixels in Spectrum: 1044
>>>>>Begin Spectral Data<<<<<
784.041	7.88
784.3	-1.12
784.558	0.88
784.817	-3.12
785.075	39324.88
785.334	8087.88
785.592	4243.88
785.851	3033.88
786.109	2345.88
786.368	1857.88
786.626	1517.88
786.884	1331.88
787.143	1107.88
787.401	926.88
787.659	866.88
787.917	740.88
788.175	740.88
788.433	652.88
788.691	594.88
788.949	561.88
789.207	550.88
789.465	480.88
789.723	468.88
789.98	429.88
790.238	494.88
790.496	457.88
790.753	421.88
791.011	479.88
791.268	433.88
791.526	419.88
791.783	443.88
792.041	439.88
792.298	342.88
792.556	420.88
792.813	406.88
793.07	396.88
793.327	379.88
793.584	461.88
793.841	382.88
794.099	403.88
794.356	460.88
794.613	358.88
794.869	403.88
795.126	357.88
795.383	346.88
795.64	375.88
795.897	326.88
796.153	395.88
796.41	363.88
796.667	369.88
796.923	353.88
797.18	361.88
797.436	390.88
797.693	357.88
797.949	416.88
798.206	433.88
798.462	341.88
798.718	404.88
798.974	380.88
799.231	405.88
799.487	391.88
799.743	404.88
799.999	437.88
800.255	393.88
800.511	403.88
800.767	440.88
801.023	408.88
801.279	423.88
801.534	436.88
801.79	477.88
802.046	479.88
802.302	569.88
802.557	592.88
802.813	698.88
803.068	794.88
803.324	1052.88
803.579	1329.88
803.835	1752.88
804.09	2380.88
804.345	3087.88
804.601	3854.88
804.856	4675.88
805.111	5390.88
805.366	5968.88
805.621	6417.88
805.876	6739.88
806.131	6930.88
806.386	7075.88
806.641	7113.88
806.896	7312.88
807.151	7398.88
807.406	7550.88
807.661	7723.88
807.915	7832.88
808.17	7974.88
808.425	7989.88
808.679	8037.88
808.934	8263.88
809.188	8262.88
809.443	8428.88
809.697	8516.88
809.951	8531.88
810.206	8572.88
810.46	8706.88
810.714	8761.88
810.968	8861.88
811.223	8889.88
811.477	8998.88
811.731	9061.88
811.985	9088.88
812.239	9098.88
812.493	9041.88
812.747	9230.88
813	9141.88
813.254	9209.88
813.508	9273.88
813.762	9302.88
814.015	9335.88
814.269	9387.88
814.522	9526.88
814.776	9585.88
815.03	9722.88
815.283	9761.88
815.536	10100.88
815.79	10177.88
816.043	10284.88
816.296	10484.88
816.55	10587.88
816.803	10644.88
817.056	10937.88
817.309	10945.88
817.562	11016.88
817.815	11151.88
818.068	11249.88
818.321	11400.88
818.574	11495.88
818.827	11689.88
819.079	11781.88
819.332	12071.88
819.585	12159.88
819.838	12332.88
820.09	12320.88
820.343	12371.88
820.595	12432.88
820.848	12481.88
821.1	12527.88
821.353	12519.88
821.605	12540.88
821.857	12532.88
822.11	12417.88
822.362	12380.88
822.614	12452.88
822.866	12459.88
823.118	12305.88
823.37	12441.88
823.622	12424.88
823.874	12553.88
824.126	12588.88
824.378	12525.88
824.63	12551.88
824.882	12608.88
825.134	12533.88
825.385	12629.88
825.637	12480.88
825.888	12476.88
826.14	12420.88
826.392	12394.88
826.643	12376.88
826.895	12285.88
827.146	12181.88
827.397	12275.88
827.649	12322.88
827.9	12205.88
828.151	12250.88
828.402	12281.88
828.653	12287.88
828.905	12307.88
829.156	12385.88
829.407	12366.88
829.658	12332.88
829.909	12377.88
830.159	12304.88
830.41	12314.88
830.661	12211.88
830.912	12140.88
831.162	12036.88
831.413	12071.88
831.664	12072.88
831.914	12017.88
832.165	12070.88
832.415	12005.88
832.666	12029.88
832.916	12016.88
833.167	11976.88
833.417	12116.88
833.667	11916.88
833.917	11948.88
834.168	11874.88
834.418	11868.88
834.668	11803.88
834.918	11655.88
835.168	11656.88
835.418	11522.88
835.668	11642.88
835.918	11603.88
836.167	11603.88
836.417	11449.88
836.667	11517.88
836.917	11555.88
837.166	11493.88
837.416	11618.88
837.666	11518.88
837.915	11540.88
838.165	11585.88
838.414	11436.88
838.663	11428.88
838.913	11386.88
839.162	11319.88
839.411	11451.88
839.661	11311.88
839.91	11338.88
840.159	11328.88
840.408	11397.88
840.657	11293.88
840.906	11384.88
841.155	11296.88
841.404	11291.88
841.653	11307.88
841.902	11237.88
842.15	11279.88
842.399	11351.88
842.648	11333.88
842.897	11285.88
843.145	11213.88
843.394	11079.88
843.642	11016.88
843.891	11008.88
844.139	10900.88
844.388	10802.88
844.636	10758.88
844.884	10757.88
845.133	10696.88
845.381	10767.88
845.629	10766.88
845.877	10746.88
846.125	10730.88
846.373	10678.88
846.621	10714.88
846.869	10590.88
847.117	10542.88
847.365	10405.88
847.613	10482.88
847.861	10449.88
848.108	10426.88
848.356	10454.88
848.604	10396.88
848.851	10422.88
849.099	10508.88
849.346	10455.88
849.594	10570.88
849.841	10624.88
850.089	10642.88
850.336	10742.88
850.583	10837.88
850.831	10695.88
851.078	10645.88
851.325	10562.88
851.572	10496.88
851.819	10454.88
852.066	10161.88
852.313	9995.88
852.56	9951.88
852.807	9865.88
853.054	9873.88
853.301	9868.88
853.548	9833.88
853.794	9982.88
854.041	9944.88
854.288	9995.88
854.534	10124.88
854.781	10134.88
855.028	10071.88
855.274	10100.88
855.52	10006.88
855.767	9969.88
856.013	10100.88
856.26	10244.88
856.506	9802.88
856.752	9896.88
856.998	9809.88
857.244	9871.88
857.49	9942.88
857.736	9955.88
857.982	9956.88
858.228	9912.88
858.474	9758.88
858.72	9693.88
858.966	9670.88
859.212	9558.88
859.458	9357.88
859.703	9310.88
859.949	9241.88
860.195	9292.88
860.44	9191.88
860.686	9106.88
860.931	9186.88
861.177	9039.88
861.422	9032.88
861.667	8959.88
861.913	8966.88
862.158	8987.88
862.403	9040.88
862.648	9034.88
862.893	9064.88
863.138	9100.88
863.384	8961.88
863.629	9012.88
863.873	9022.88
864.118	9004.88
864.363	8856.88
864.608	8918.88
864.853	8864.88
865.098	8817.88
865.342	8766.88
865.587	8695.88
865.832	8759.88
866.076	8724.88
866.321	8671.88
866.565	8680.88
866.81	8603.88
867.054	8668.88
867.298	8602.88
867.543	8486.88
867.787	8521.88
868.031	8520.88
868.275	8528.88
868.519	8515.88
868.764	8518.88
869.008	8468.88
869.252	8432.88
869.496	8369.88
869.739	8355.88
869.983	8451.88
870.227	8414.88
870.471	8404.88
870.715	8436.88
870.958	8559.88
871.202	8536.88
871.446	8485.88
871.689	8478.88
871.933	8523.88
872.176	8527.88
872.42	8473.88
872.663	8488.88
872.906	8517.88
873.15	8492.88
873.393	8397.88
873.636	8408.88
873.879	8335.88
874.122	8298.88
874.366	8176.88
874.609	8081.88
874.852	8009.88
875.095	7962.88
875.337	7847.88
875.58	7829.88
875.823	7871.88
876.066	7820.88
876.309	7838.88
876.551	7717.88
876.794	7709.88
877.037	7741.88
877.279	7680.88
877.522	7676.88
877.764	7634.88
878.007	7668.88
878.249	7642.88
878.491	7599.88
878.734	7604.88
878.976	7614.88
879.218	7497.88
879.46	7551.88
879.702	7439.88
879.945	7438.88
880.187	7277.88
880.429	7275.88
880.671	7301.88
880.912	7269.88
881.154	7264.88
881.396	7126.88
881.638	7255.88
881.88	7142.88
882.121	7174.88
882.363	7176.88
882.605	7153.88
882.846	7134.88
883.088	7187.88
883.329	7186.88
883.571	7141.88
883.812	7279.88
884.053	7417.88
884.295	7615.88
884.536	7731.88
884.777	7607.88
885.018	7543.88
885.259	7474.88
885.5	7396.88
885.742	7614.88
885.982	7385.88
886.223	7227.88
886.464	7226.88
886.705	7153.88
886.946	7170.88
887.187	6918.88
887.428	6956.88
887.668	6755.88
887.909	6639.88
888.15	6648.88
888.39	6682.88
888.631	6636.88
888.871	6565.88
889.111	6534.88
889.352	6445.88
889.592	6321.88
889.833	6337.88
890.073	6311.88
890.313	6321.88
890.553	6144.88
890.793	6176.88
891.033	6118.88
891.273	6126.88
891.513	6123.88
891.753	6130.88
891.993	6127.88
892.233	6091.88
892.473	6196.88
892.713	6178.88
892.952	6102.88
893.192	6114.88
893.432	6090.88
893.671	6152.88
893.911	6069.88
894.15	6011.88
894.39	5893.88
894.629	5943.88
894.869	5978.88
895.108	5954.88
895.347	5880.88
895.587	5905.88
895.826	5892.88
896.065	5813.88
896.304	5916.88
896.543	5874.88
896.782	5765.88
897.021	5916.88
897.26	5811.88
897.499	5936.88
897.738	5831.88
897.977	5827.88
898.216	5767.88
898.454	5726.88
898.693	5679.88
898.932	5712.88
899.17	5695.88
899.409	5644.88
899.647	5644.88
899.886	5574.88
900.124	5689.88
900.363	5583.88
900.601	5633.88
900.839	5661.88
901.078	5787.88
901.316	5729.88
901.554	5756.88
901.792	5795.88
902.03	5706.88
902.268	5751.88
902.506	5775.88
902.744	5679.88
902.982	5686.88
903.22	5530.88
903.458	5482.88
903.695	5405.88
903.933	5276.88
904.171	5150.88
904.409	5091.88
904.646	5092.88
904.884	4948.88
905.121	5009.88
905.359	4899.88
905.596	4887.88
905.833	4785.88
906.071	4725.88
906.308	4777.88
906.545	4737.88
906.783	4688.88
907.02	4738.88
907.257	4667.88
907.494	4668.88
907.731	4681.88
907.968	4671.88
908.205	4607.88
908.442	4545.88
908.679	4592.88
908.915	4488.88
909.152	4486.88
909.389	4423.88
909.626	4401.88
909.862	4353.88
910.099	4360.88
910.335	4396.88
910.572	4259.88
910.808	4338.88
911.045	4324.88
911.281	4249.88
911.518	4315.88
911.754	4208.88
911.99	4241.88
912.226	4198.88
912.463	4152.88
912.699	4114.88
912.935	4098.88
913.171	4080.88
913.407	3976.88
913.643	4054.88
913.879	3995.88
914.114	3983.88
914.35	3910.88
914.586	3869.88
914.822	3811.88
915.057	3892.88
915.293	3797.88
915.529	3724.88
915.764	3821.88
916	3765.88
916.235	3778.88
916.471	3785.88
916.706	3717.88
916.941	3685.88
917.177	3724.88
917.412	3767.88
917.647	3759.88
917.882	3693.88
918.117	3739.88
918.352	3719.88
918.588	3731.88
918.823	3643.88
919.057	3606.88
919.292	3501.88
919.527	3606.88
919.762	3492.88
919.997	3549.88
920.232	3457.88
920.466	3475.88
920.701	3343.88
920.935	3414.88
921.17	3418.88
921.405	3324.88
921.639	3389.88
921.873	3309.88
922.108	3359.88
922.342	3315.88
922.576	3246.88
922.811	3266.88
923.045	3295.88
923.279	3319.88
923.513	3202.88
923.747	3260.88
923.981	3254.88
924.215	3207.88
924.449	3161.88
924.683	3116.88
924.917	3102.88
925.151	3103.88
925.385	3209.88
925.618	3115.88
925.852	3119.88
926.086	3041.88
926.319	3096.88
926.553	3067.88
926.786	3118.88
927.02	3104.88
927.253	3119.88
927.486	3145.88
927.72	3041.88
927.953	3091.88
928.186	3055.88
928.42	3066.88
928.653	3042.88
928.886	3024.88
929.119	3024.88
929.352	2991.88
929.585	2957.88
929.818	2945.88
930.051	2954.88
930.284	2960.88
930.516	2844.88
930.749	2857.88
930.982	2901.88
931.215	2856.88
931.447	2779.88
931.68	2840.88
931.912	2805.88
932.145	2785.88
932.377	2823.88
932.61	2946.88
932.842	2740.88
933.074	2801.88
933.307	2781.88
933.539	2855.88
933.771	2868.88
934.003	2797.88
934.236	2852.88
934.468	2902.88
934.7	2779.88
934.932	2814.88
935.164	2739.88
935.395	2741.88
935.627	2756.88
935.859	2772.88
936.091	2707.88
936.323	2748.88
936.554	2797.88
936.786	2762.88
937.017	2652.88
937.249	2712.88
937.481	2653.88
937.712	2689.88
937.943	2677.88
938.175	2678.88
938.406	2653.88
938.637	2759.88
938.869	2656.88
939.1	2660.88
939.331	2639.88
939.562	2658.88
939.793	2677.88
940.024	2689.88
940.255	2679.88
940.486	2617.88
940.717	2603.88
940.948	2590.88
941.179	2537.88
941.409	2551.88
941.64	2544.88
941.871	2548.88
942.102	2536.88
942.332	2563.88
942.563	2598.88
942.793	2569.88
943.024	2492.88
943.254	2572.88
943.484	2609.88
943.715	2622.88
943.945	2547.88
944.175	2478.88
944.405	2467.88
944.636	2466.88
944.866	2551.88
945.096	2539.88
945.326	2476.88
945.556	2531.88
945.786	2535.88
946.016	2461.88
946.245	2387.88
946.475	2452.88
946.705	2442.88
946.935	2432.88
947.164	2427.88
947.394	2365.88
947.624	2366.88
947.853	2449.88
948.083	2433.88
948.312	2360.88
948.542	2316.88
948.771	2278.88
949	2293.88
949.23	2335.88
949.459	2317.88
949.688	2379.88
949.917	2336.88
950.146	2363.88
950.375	2404.88
950.604	2246.88
950.833	2353.88
951.062	2368.88
951.291	2278.88
951.52	2260.88
951.749	2280.88
951.978	2235.88
952.206	2257.88
952.435	2236.88
952.664	2273.88
952.892	2281.88
953.121	2263.88
953.349	2273.88
953.578	2258.88
953.806	2218.88
954.035	2184.88
954.263	2207.88
954.491	2145.88
954.719	2190.88
954.948	2183.88
955.176	2155.88
955.404	2111.88
955.632	2130.88
955.86	2142.88
956.088	2162.88
956.316	2146.88
956.544	2190.88
956.772	2111.88
956.999	2077.88
957.227	2142.88
957.455	2054.88
957.683	2073.88
957.91	2044.88
958.138	2051.88
958.365	2045.88
958.593	2026.88
958.82	1961.88
959.048	2046.88
959.275	2002.88
959.502	2013.88
959.73	1948.88
959.957	1988.88
960.184	2054.88
960.411	1947.88
960.638	2046.88
960.865	2004.88
961.092	2016.88
961.319	1921.88
961.546	2038.88
961.773	2015.88
962	1961.88
962.227	1995.88
962.454	1984.88
962.68	1969.88
962.907	1962.88
963.134	1937.88
963.36	1960.88
963.587	1953.88
963.813	1901.88
964.04	1927.88
964.266	1859.88
964.493	2000.88
964.719	1939.88
964.945	1917.88
965.171	1808.88
965.398	1887.88
965.624	1890.88
965.85	1809.88
966.076	1856.88
966.302	1873.88
966.528	1838.88
966.754	1860.88
966.98	1859.88
967.206	1848.88
967.431	1764.88
967.657	1848.88
967.883	1838.88
968.109	1824.88
968.334	1780.88
968.56	1762.88
968.785	1771.88
969.011	1756.88
969.236	1801.88
969.462	1727.88
969.687	1737.88
969.912	1792.88
970.138	1803.88
970.363	1718.88
970.588	1755.88
970.813	1756.88
971.038	1703.88
971.263	1769.88
971.488	1771.88
971.713	1756.88
971.938	1779.88
972.163	1677.88
972.388	1708.88
972.613	1655.88
972.838	1696.88
973.062	1674.88
973.287	1646.88
973.512	1613.88
973.736	1653.88
973.961	1652.88
974.185	1645.88
974.41	1662.88
974.634	1579.88
974.858	1582.88
975.083	1609.88
975.307	1650.88
975.531	1602.88
975.755	1533.88
975.98	1588.88
976.204	1491.88
976.428	1506.88
976.652	1501.88
976.876	1480.88
977.1	1549.88
977.324	1492.88
977.547	1550.88
977.771	1529.88
977.995	1543.88
978.219	1470.88
978.442	1587.88
978.666	1524.88
978.89	1517.88
979.113	1500.88
979.337	1526.88
979.56	1456.88
979.783	1554.88
980.007	1437.88
980.23	1484.88
980.453	1426.88
980.677	1470.88
980.9	1483.88
981.123	1383.88
981.346	1481.88
981.569	1470.88
981.792	1479.88
982.015	1437.88
982.238	1414.88
982.461	1442.88
982.684	1402.88
982.907	1412.88
983.129	1387.88
983.352	1425.88
983.575	1414.88
983.797	1407.88
984.02	1353.88
984.242	1397.88
984.465	1385.88
984.687	1416.88
984.91	1437.88
985.132	1413.88
985.354	1397.88
985.577	1366.88
985.799	1371.88
986.021	1300.88
986.243	1331.88
986.465	1371.88
986.687	1405.88
986.909	1437.88
987.131	1353.88
987.353	1326.88
987.575	1394.88
987.797	1343.88
988.019	1261.88
988.241	1321.88
988.462	1292.88
988.684	1364.88
988.906	1409.88
989.127	1399.88
989.349	1292.88
989.57	1327.88
989.792	1371.88
990.013	1362.88
990.234	1373.88
990.456	1391.88
990.677	1393.88
990.898	1340.88
991.119	1319.88
991.341	1352.88
991.562	1279.88
991.783	1335.88
992.004	1255.88
992.225	1222.88
992.446	1325.88
992.667	1244.88
992.887	1285.88
993.108	1218.88
993.329	1331.88
993.55	1294.88
993.77	1210.88
993.991	1228.88
994.212	1245.88
994.432	1234.88
994.653	1268.88
994.873	1271.88
995.093	1163.88
995.314	1197.88
995.534	1281.88
995.754	1283.88
995.975	1305.88
996.195	1197.88
996.415	1251.88
996.635	1240.88
996.855	1249.88
997.075	1219.88
997.295	1209.88
997.515	1212.88
997.735	1247.88
997.955	1226.88
998.174	1213.88
998.394	1187.88
998.614	1228.88
998.834	1179.88
999.053	1274.88
999.273	1222.88
999.492	1273.88
999.712	1204.88
999.931	1168.88
1000.151	1245.88
1000.37	1220.88
1000.589	1271.88
1000.809	1194.88
1001.028	1313.88
1001.247	1250.88
1001.466	1159.88
1001.685	1308.88
1001.904	1228.88
1002.123	1217.88
1002.342	1216.88
1002.561	1181.88
1002.78	1219.88
1002.999	1268.88
1003.218	1200.88
1003.436	1198.88
1003.655	1239.88
1003.874	1182.88
1004.092	1211.88
1004.311	1246.88
1004.53	1219.88
1004.748	1291.88
1004.966	1210.88
1005.185	1240.88
1005.403	1261.88
1005.622	1232.88
1005.84	1310.88
1006.058	1220.88
1006.276	1220.88
1006.494	1719.88
1006.712	1221.88
1006.931	1282.88
1007.149	1203.88
1007.367	1210.88
1007.584	1258.88
1007.802	1270.88
1008.02	1206.88
1008.238	1307.88
1008.456	1298.88
1008.673	1173.88
1008.891	1294.88
1009.109	1239.88
1009.326	1291.88
1009.544	1376.88
1009.761	1273.88
1009.979	1365.88
1010.196	1381.88
1010.413	1462.88
1010.631	1488.88
1010.848	1561.88
1011.065	1550.88
1011.282	1474.88
1011.5	1415.88
1011.717	1552.88
1011.934	1449.88
1012.151	1537.88
1012.368	1470.88
1012.585	1437.88
1012.801	1485.88
1013.018	1454.88
1013.235	1402.88
1013.452	1433.88
1013.669	1459.88
1013.885	1433.88
1014.102	1484.88
1014.318	1435.88
1014.535	1420.88
1014.751	1457.88
1014.968	1421.88
1015.184	1461.88
1015.401	1366.88
1015.617	1394.88
1015.833	1350.88
1016.049	1355.88
1016.266	1356.88
1016.482	1375.88
1016.698	1273.88
1016.914	1338.88
1017.13	1290.88
1017.346	1293.88
1017.562	1338.88
1017.778	1270.88
1017.993	1252.88
1018.209	1305.88
1018.425	1261.88
1018.641	1249.88
1018.856	1222.88
1019.072	1262.88
1019.288	1310.88
1019.503	1249.88
1019.719	1174.88
1019.934	1197.88
1020.149	1279.88
1020.365	1204.88
1020.58	1125.88
1020.795	1217.88
1021.011	1152.88
1021.226	1130.88
1021.441	1142.88
1021.656	1075.88
1021.871	1019.88
1022.086	1048.88
1022.301	1034.88
1022.516	1021.88
1022.731	1071.88
1022.946	989.88
1023.16	1001.88
1023.375	949.88
1023.59	944.88
1023.804	920.88
1024.019	1012.88
1024.234	875.88
1024.448	913.88
1024.663	854.88
1024.877	884.88
1025.092	871.88
1025.306	905.88
1025.52	805.88
1025.734	898.88
1025.949	823.88
1026.163	806.88
1026.377	740.88
1026.591	807.88
1026.805	720.88
1027.019	715.88
1027.233	714.88
1027.447	630.88
1027.661	723.88
1027.875	686.88
1028.088	701.88
1028.302	643.88
1028.516	624.88
1028.73	624.88
1028.943	615.88
1029.157	577.88
1029.37	550.88
1029.584	-5.12
1029.797	1.88
1030.011	-2.12
1030.224	0.88
