Data from QEP037381__47__11-28-45-595.txt Node

Date: Wed Dec 21 11:28:45 EST 2022
User: dcclab
Spectrometer: QEP03738
Trigger mode: 4
Integration Time (sec): 1.000000E1
Scans to average: 1
Electric dark correction enabled: true
Nonlinearity correction enabled: false
Boxcar width: 0
XAxis mode: Wavelengths
Number of Pixels in Spectrum: 1044
>>>>>Begin Spectral Data<<<<<
784.041	14.38
784.3	0.38
784.558	-3.62
784.817	-2.62
785.075	39619.38
785.334	8198.38
785.592	4351.38
785.851	3092.38
786.109	2450.38
786.368	1903.38
786.626	1601.38
786.884	1360.38
787.143	1147.38
787.401	951.38
787.659	900.38
787.917	788.38
788.175	747.38
788.433	654.38
788.691	602.38
788.949	582.38
789.207	567.38
789.465	477.38
789.723	492.38
789.98	445.38
790.238	505.38
790.496	461.38
790.753	444.38
791.011	494.38
791.268	432.38
791.526	432.38
791.783	440.38
792.041	430.38
792.298	343.38
792.556	438.38
792.813	406.38
793.07	405.38
793.327	382.38
793.584	457.38
793.841	388.38
794.099	400.38
794.356	460.38
794.613	372.38
794.869	404.38
795.126	362.38
795.383	362.38
795.64	377.38
795.897	332.38
796.153	389.38
796.41	378.38
796.667	367.38
796.923	365.38
797.18	367.38
797.436	392.38
797.693	363.38
797.949	405.38
798.206	438.38
798.462	348.38
798.718	419.38
798.974	373.38
799.231	420.38
799.487	407.38
799.743	421.38
799.999	434.38
800.255	429.38
800.511	410.38
800.767	440.38
801.023	435.38
801.279	447.38
801.534	479.38
801.79	501.38
802.046	504.38
802.302	607.38
802.557	655.38
802.813	785.38
803.068	880.38
803.324	1203.38
803.579	1555.38
803.835	2101.38
804.09	2869.38
804.345	3644.38
804.601	4545.38
804.856	5403.38
805.111	6192.38
805.366	6792.38
805.621	7264.38
805.876	7604.38
806.131	7809.38
806.386	7957.38
806.641	8040.38
806.896	8199.38
807.151	8420.38
807.406	8482.38
807.661	8659.38
807.915	8795.38
808.17	8964.38
808.425	9062.38
808.679	9106.38
808.934	9215.38
809.188	9340.38
809.443	9473.38
809.697	9602.38
809.951	9573.38
810.206	9580.38
810.46	9740.38
810.714	9834.38
810.968	10026.38
811.223	10038.38
811.477	10093.38
811.731	10231.38
811.985	10139.38
812.239	10190.38
812.493	10261.38
812.747	10305.38
813	10324.38
813.254	10397.38
813.508	10465.38
813.762	10517.38
814.015	10517.38
814.269	10631.38
814.522	10752.38
814.776	10829.38
815.03	10970.38
815.283	11109.38
815.536	11263.38
815.79	11493.38
816.043	11611.38
816.296	11779.38
816.55	11915.38
816.803	12063.38
817.056	12247.38
817.309	12340.38
817.562	12418.38
817.815	12651.38
818.068	12639.38
818.321	12840.38
818.574	12939.38
818.827	13141.38
819.079	13235.38
819.332	13552.38
819.585	13519.38
819.838	13891.38
820.09	13876.38
820.343	13962.38
820.595	13921.38
820.848	14113.38
821.1	14215.38
821.353	14087.38
821.605	14105.38
821.857	14094.38
822.11	13990.38
822.362	13951.38
822.614	13930.38
822.866	13954.38
823.118	13895.38
823.37	14114.38
823.622	14079.38
823.874	14134.38
824.126	14143.38
824.378	14218.38
824.63	14150.38
824.882	14245.38
825.134	14248.38
825.385	14214.38
825.637	14156.38
825.888	14076.38
826.14	14047.38
826.392	14010.38
826.643	13873.38
826.895	13924.38
827.146	13870.38
827.397	13809.38
827.649	14037.38
827.9	13847.38
828.151	13883.38
828.402	13824.38
828.653	13912.38
828.905	13897.38
829.156	13993.38
829.407	13920.38
829.658	13891.38
829.909	14045.38
830.159	13977.38
830.41	13994.38
830.661	13845.38
830.912	13796.38
831.162	13673.38
831.413	13661.38
831.664	13676.38
831.914	13695.38
832.165	13619.38
832.415	13617.38
832.666	13582.38
832.916	13698.38
833.167	13594.38
833.417	13627.38
833.667	13541.38
833.917	13577.38
834.168	13545.38
834.418	13498.38
834.668	13381.38
834.918	13369.38
835.168	13311.38
835.418	13256.38
835.668	13160.38
835.918	13178.38
836.167	13180.38
836.417	13073.38
836.667	13155.38
836.917	13197.38
837.166	13069.38
837.416	13126.38
837.666	13118.38
837.915	13075.38
838.165	13112.38
838.414	12984.38
838.663	12992.38
838.913	12987.38
839.162	13006.38
839.411	13045.38
839.661	12841.38
839.91	12943.38
840.159	12873.38
840.408	12923.38
840.657	12858.38
840.906	12885.38
841.155	12852.38
841.404	12928.38
841.653	12924.38
841.902	12892.38
842.15	12909.38
842.399	12946.38
842.648	12873.38
842.897	12846.38
843.145	12787.38
843.394	12684.38
843.642	12585.38
843.891	12515.38
844.139	12479.38
844.388	12305.38
844.636	12261.38
844.884	12300.38
845.133	12259.38
845.381	12250.38
845.629	12300.38
845.877	12195.38
846.125	12227.38
846.373	12314.38
846.621	12168.38
846.869	12148.38
847.117	12036.38
847.365	12025.38
847.613	11982.38
847.861	11994.38
848.108	12032.38
848.356	11902.38
848.604	11894.38
848.851	11944.38
849.099	11974.38
849.346	11984.38
849.594	12114.38
849.841	12124.38
850.089	12305.38
850.336	12251.38
850.583	12361.38
850.831	12226.38
851.078	12131.38
851.325	12100.38
851.572	12023.38
851.819	11914.38
852.066	11636.38
852.313	11527.38
852.56	11418.38
852.807	11293.38
853.054	11239.38
853.301	11362.38
853.548	11316.38
853.794	11422.38
854.041	11447.38
854.288	11392.38
854.534	11571.38
854.781	11549.38
855.028	11404.38
855.274	11562.38
855.52	11473.38
855.767	11475.38
856.013	11521.38
856.26	11712.38
856.506	11363.38
856.752	11375.38
856.998	11336.38
857.244	11384.38
857.49	11407.38
857.736	11524.38
857.982	11427.38
858.228	11359.38
858.474	11240.38
858.72	11259.38
858.966	11093.38
859.212	10903.38
859.458	10846.38
859.703	10791.38
859.949	10641.38
860.195	10662.38
860.44	10606.38
860.686	10556.38
860.931	10555.38
861.177	10469.38
861.422	10396.38
861.667	10294.38
861.913	10275.38
862.158	10359.38
862.403	10449.38
862.648	10328.38
862.893	10455.38
863.138	10417.38
863.384	10422.38
863.629	10394.38
863.873	10248.38
864.118	10264.38
864.363	10197.38
864.608	10249.38
864.853	10168.38
865.098	10043.38
865.342	10085.38
865.587	10061.38
865.832	10051.38
866.076	10053.38
866.321	9937.38
866.565	9976.38
866.81	9913.38
867.054	9902.38
867.298	9858.38
867.543	9810.38
867.787	9890.38
868.031	9745.38
868.275	9797.38
868.519	9774.38
868.764	9734.38
869.008	9804.38
869.252	9729.38
869.496	9733.38
869.739	9757.38
869.983	9764.38
870.227	9767.38
870.471	9779.38
870.715	9735.38
870.958	9818.38
871.202	9815.38
871.446	9877.38
871.689	9891.38
871.933	9825.38
872.176	9838.38
872.42	9809.38
872.663	9707.38
872.906	9798.38
873.15	9782.38
873.393	9784.38
873.636	9798.38
873.879	9638.38
874.122	9580.38
874.366	9424.38
874.609	9333.38
874.852	9243.38
875.095	9175.38
875.337	9147.38
875.58	9110.38
875.823	8998.38
876.066	9072.38
876.309	9003.38
876.551	8929.38
876.794	8896.38
877.037	8902.38
877.279	8837.38
877.522	8865.38
877.764	8849.38
878.007	8802.38
878.249	8733.38
878.491	8741.38
878.734	8832.38
878.976	8746.38
879.218	8668.38
879.46	8727.38
879.702	8551.38
879.945	8524.38
880.187	8398.38
880.429	8470.38
880.671	8363.38
880.912	8374.38
881.154	8332.38
881.396	8191.38
881.638	8328.38
881.88	8295.38
882.121	8260.38
882.363	8248.38
882.605	8251.38
882.846	8268.38
883.088	8267.38
883.329	8240.38
883.571	8293.38
883.812	8365.38
884.053	8683.38
884.295	8814.38
884.536	8988.38
884.777	8815.38
885.018	8786.38
885.259	8700.38
885.5	8638.38
885.742	8819.38
885.982	8669.38
886.223	8498.38
886.464	8438.38
886.705	8306.38
886.946	8177.38
887.187	8031.38
887.428	7978.38
887.668	7818.38
887.909	7662.38
888.15	7668.38
888.39	7685.38
888.631	7610.38
888.871	7431.38
889.111	7456.38
889.352	7394.38
889.592	7356.38
889.833	7211.38
890.073	7226.38
890.313	7197.38
890.553	7114.38
890.793	7066.38
891.033	7041.38
891.273	7004.38
891.513	7012.38
891.753	7031.38
891.993	6999.38
892.233	7025.38
892.473	7049.38
892.713	7030.38
892.952	6957.38
893.192	7006.38
893.432	6997.38
893.671	6990.38
893.911	6982.38
894.15	6946.38
894.39	6817.38
894.629	6779.38
894.869	6804.38
895.108	6818.38
895.347	6679.38
895.587	6695.38
895.826	6687.38
896.065	6610.38
896.304	6767.38
896.543	6726.38
896.782	6600.38
897.021	6620.38
897.26	6583.38
897.499	6671.38
897.738	6692.38
897.977	6619.38
898.216	6516.38
898.454	6484.38
898.693	6470.38
898.932	6521.38
899.17	6415.38
899.409	6416.38
899.647	6411.38
899.886	6404.38
900.124	6408.38
900.363	6427.38
900.601	6410.38
900.839	6513.38
901.078	6475.38
901.316	6547.38
901.554	6537.38
901.792	6631.38
902.03	6549.38
902.268	6622.38
902.506	6614.38
902.744	6545.38
902.982	6484.38
903.22	6294.38
903.458	6183.38
903.695	6179.38
903.933	6097.38
904.171	5941.38
904.409	5867.38
904.646	5815.38
904.884	5715.38
905.121	5690.38
905.359	5567.38
905.596	5484.38
905.833	5440.38
906.071	5468.38
906.308	5448.38
906.545	5434.38
906.783	5335.38
907.02	5383.38
907.257	5282.38
907.494	5308.38
907.731	5305.38
907.968	5324.38
908.205	5209.38
908.442	5203.38
908.679	5166.38
908.915	5149.38
909.152	5150.38
909.389	5048.38
909.626	5097.38
909.862	4946.38
910.099	5006.38
910.335	4983.38
910.572	4911.38
910.808	4909.38
911.045	4852.38
911.281	4847.38
911.518	4920.38
911.754	4856.38
911.99	4832.38
912.226	4800.38
912.463	4671.38
912.699	4726.38
912.935	4653.38
913.171	4641.38
913.407	4576.38
913.643	4617.38
913.879	4542.38
914.114	4509.38
914.35	4465.38
914.586	4437.38
914.822	4354.38
915.057	4465.38
915.293	4280.38
915.529	4283.38
915.764	4379.38
916	4343.38
916.235	4265.38
916.471	4316.38
916.706	4215.38
916.941	4216.38
917.177	4237.38
917.412	4286.38
917.647	4275.38
917.882	4168.38
918.117	4243.38
918.352	4176.38
918.588	4279.38
918.823	4154.38
919.057	4118.38
919.292	4007.38
919.527	4078.38
919.762	3993.38
919.997	4019.38
920.232	3956.38
920.466	3955.38
920.701	3807.38
920.935	3856.38
921.17	3866.38
921.405	3829.38
921.639	3855.38
921.873	3779.38
922.108	3827.38
922.342	3827.38
922.576	3767.38
922.811	3720.38
923.045	3756.38
923.279	3765.38
923.513	3621.38
923.747	3680.38
923.981	3687.38
924.215	3625.38
924.449	3620.38
924.683	3559.38
924.917	3583.38
925.151	3547.38
925.385	3562.38
925.618	3539.38
925.852	3518.38
926.086	3461.38
926.319	3535.38
926.553	3493.38
926.786	3552.38
927.02	3516.38
927.253	3487.38
927.486	3516.38
927.72	3470.38
927.953	3506.38
928.186	3446.38
928.42	3492.38
928.653	3424.38
928.886	3407.38
929.119	3462.38
929.352	3428.38
929.585	3377.38
929.818	3302.38
930.051	3338.38
930.284	3319.38
930.516	3232.38
930.749	3228.38
930.982	3286.38
931.215	3243.38
931.447	3133.38
931.68	3207.38
931.912	3133.38
932.145	3196.38
932.377	3186.38
932.61	3323.38
932.842	3162.38
933.074	3213.38
933.307	3122.38
933.539	3213.38
933.771	3194.38
934.003	3128.38
934.236	3243.38
934.468	3227.38
934.7	3165.38
934.932	3181.38
935.164	3108.38
935.395	3123.38
935.627	3138.38
935.859	3164.38
936.091	3051.38
936.323	3102.38
936.554	3112.38
936.786	3066.38
937.017	3028.38
937.249	3060.38
937.481	2992.38
937.712	3068.38
937.943	3045.38
938.175	2983.38
938.406	3020.38
938.637	3077.38
938.869	2935.38
939.1	3030.38
939.331	2962.38
939.562	2983.38
939.793	2973.38
940.024	2984.38
940.255	2974.38
940.486	2931.38
940.717	2913.38
940.948	2900.38
941.179	2851.38
941.409	2857.38
941.64	2896.38
941.871	2911.38
942.102	2833.38
942.332	2882.38
942.563	2901.38
942.793	2881.38
943.024	2846.38
943.254	2805.38
943.484	2905.38
943.715	2921.38
943.945	2841.38
944.175	2789.38
944.405	2809.38
944.636	2824.38
944.866	2855.38
945.096	2814.38
945.326	2777.38
945.556	2808.38
945.786	2847.38
946.016	2788.38
946.245	2761.38
946.475	2724.38
946.705	2694.38
946.935	2725.38
947.164	2712.38
947.394	2673.38
947.624	2672.38
947.853	2740.38
948.083	2671.38
948.312	2632.38
948.542	2608.38
948.771	2543.38
949	2564.38
949.23	2564.38
949.459	2606.38
949.688	2649.38
949.917	2621.38
950.146	2614.38
950.375	2626.38
950.604	2540.38
950.833	2667.38
951.062	2591.38
951.291	2560.38
951.52	2569.38
951.749	2563.38
951.978	2541.38
952.206	2516.38
952.435	2503.38
952.664	2557.38
952.892	2558.38
953.121	2514.38
953.349	2532.38
953.578	2518.38
953.806	2501.38
954.035	2446.38
954.263	2478.38
954.491	2400.38
954.719	2466.38
954.948	2425.38
955.176	2414.38
955.404	2336.38
955.632	2419.38
955.86	2397.38
956.088	2360.38
956.316	2389.38
956.544	2401.38
956.772	2328.38
956.999	2309.38
957.227	2415.38
957.455	2311.38
957.683	2341.38
957.91	2323.38
958.138	2267.38
958.365	2231.38
958.593	2261.38
958.82	2235.38
959.048	2270.38
959.275	2255.38
959.502	2226.38
959.73	2219.38
959.957	2261.38
960.184	2263.38
960.411	2216.38
960.638	2241.38
960.865	2230.38
961.092	2268.38
961.319	2171.38
961.546	2216.38
961.773	2252.38
962	2213.38
962.227	2221.38
962.454	2198.38
962.68	2177.38
962.907	2186.38
963.134	2173.38
963.36	2173.38
963.587	2188.38
963.813	2099.38
964.04	2122.38
964.266	2086.38
964.493	2159.38
964.719	2110.38
964.945	2137.38
965.171	2011.38
965.398	2089.38
965.624	2100.38
965.85	2007.38
966.076	2014.38
966.302	2086.38
966.528	2041.38
966.754	2051.38
966.98	2058.38
967.206	2029.38
967.431	1996.38
967.657	2078.38
967.883	2031.38
968.109	2034.38
968.334	1983.38
968.56	1950.38
968.785	1986.38
969.011	1943.38
969.236	1998.38
969.462	1931.38
969.687	1960.38
969.912	1976.38
970.138	1996.38
970.363	1912.38
970.588	1936.38
970.813	1923.38
971.038	1880.38
971.263	1913.38
971.488	1937.38
971.713	1948.38
971.938	1949.38
972.163	1889.38
972.388	1893.38
972.613	1840.38
972.838	1851.38
973.062	1860.38
973.287	1819.38
973.512	1791.38
973.736	1831.38
973.961	1794.38
974.185	1799.38
974.41	1861.38
974.634	1722.38
974.858	1758.38
975.083	1790.38
975.307	1816.38
975.531	1742.38
975.755	1679.38
975.98	1739.38
976.204	1651.38
976.428	1669.38
976.652	1669.38
976.876	1658.38
977.1	1676.38
977.324	1654.38
977.547	1681.38
977.771	1711.38
977.995	1686.38
978.219	1605.38
978.442	1734.38
978.666	1665.38
978.89	1656.38
979.113	1643.38
979.337	1636.38
979.56	1615.38
979.783	1686.38
980.007	1589.38
980.23	1594.38
980.453	1576.38
980.677	1624.38
980.9	1604.38
981.123	1564.38
981.346	1640.38
981.569	1581.38
981.792	1620.38
982.015	1580.38
982.238	1538.38
982.461	1571.38
982.684	1545.38
982.907	1507.38
983.129	1520.38
983.352	1563.38
983.575	1528.38
983.797	1553.38
984.02	1515.38
984.242	1480.38
984.465	1510.38
984.687	1545.38
984.91	1581.38
985.132	1507.38
985.354	1548.38
985.577	1520.38
985.799	1469.38
986.021	1436.38
986.243	1427.38
986.465	1451.38
986.687	1512.38
986.909	1549.38
987.131	1495.38
987.353	1457.38
987.575	1487.38
987.797	1442.38
988.019	1401.38
988.241	1449.38
988.462	1425.38
988.684	1493.38
988.906	1482.38
989.127	1502.38
989.349	1395.38
989.57	1440.38
989.792	1457.38
990.013	1471.38
990.234	1501.38
990.456	1495.38
990.677	1468.38
990.898	1424.38
991.119	1408.38
991.341	1452.38
991.562	1395.38
991.783	1442.38
992.004	1362.38
992.225	1353.38
992.446	1403.38
992.667	1348.38
992.887	1422.38
993.108	1326.38
993.329	1419.38
993.55	1376.38
993.77	1306.38
993.991	1341.38
994.212	1341.38
994.432	1344.38
994.653	1366.38
994.873	1342.38
995.093	1233.38
995.314	1281.38
995.534	1367.38
995.754	1359.38
995.975	1395.38
996.195	1278.38
996.415	1364.38
996.635	1320.38
996.855	1363.38
997.075	1320.38
997.295	1313.38
997.515	1284.38
997.735	1344.38
997.955	1332.38
998.174	1302.38
998.394	1309.38
998.614	1309.38
998.834	1288.38
999.053	1354.38
999.273	1325.38
999.492	1381.38
999.712	1313.38
999.931	1280.38
1000.151	1319.38
1000.37	1286.38
1000.589	1344.38
1000.809	1269.38
1001.028	1378.38
1001.247	1312.38
1001.466	1226.38
1001.685	1356.38
1001.904	1303.38
1002.123	1296.38
1002.342	1319.38
1002.561	1232.38
1002.78	1273.38
1002.999	1340.38
1003.218	1280.38
1003.436	1238.38
1003.655	1308.38
1003.874	1250.38
1004.092	1256.38
1004.311	1320.38
1004.53	1273.38
1004.748	1323.38
1004.966	1263.38
1005.185	1342.38
1005.403	1321.38
1005.622	1284.38
1005.84	1343.38
1006.058	1256.38
1006.276	1312.38
1006.494	1777.38
1006.712	1306.38
1006.931	1350.38
1007.149	1264.38
1007.367	1260.38
1007.584	1301.38
1007.802	1320.38
1008.02	1288.38
1008.238	1417.38
1008.456	1394.38
1008.673	1253.38
1008.891	1369.38
1009.109	1338.38
1009.326	1387.38
1009.544	1457.38
1009.761	1373.38
1009.979	1464.38
1010.196	1498.38
1010.413	1576.38
1010.631	1606.38
1010.848	1612.38
1011.065	1674.38
1011.282	1590.38
1011.5	1518.38
1011.717	1644.38
1011.934	1591.38
1012.151	1596.38
1012.368	1596.38
1012.585	1532.38
1012.801	1587.38
1013.018	1570.38
1013.235	1539.38
1013.452	1561.38
1013.669	1573.38
1013.885	1531.38
1014.102	1594.38
1014.318	1546.38
1014.535	1541.38
1014.751	1549.38
1014.968	1525.38
1015.184	1589.38
1015.401	1451.38
1015.617	1502.38
1015.833	1458.38
1016.049	1460.38
1016.266	1446.38
1016.482	1454.38
1016.698	1385.38
1016.914	1413.38
1017.13	1371.38
1017.346	1362.38
1017.562	1432.38
1017.778	1350.38
1017.993	1341.38
1018.209	1366.38
1018.425	1366.38
1018.641	1351.38
1018.856	1302.38
1019.072	1360.38
1019.288	1361.38
1019.503	1338.38
1019.719	1240.38
1019.934	1271.38
1020.149	1315.38
1020.365	1259.38
1020.58	1214.38
1020.795	1279.38
1021.011	1198.38
1021.226	1186.38
1021.441	1218.38
1021.656	1123.38
1021.871	1090.38
1022.086	1089.38
1022.301	1082.38
1022.516	1076.38
1022.731	1139.38
1022.946	1034.38
1023.16	1016.38
1023.375	1001.38
1023.59	963.38
1023.804	955.38
1024.019	1039.38
1024.234	922.38
1024.448	988.38
1024.663	891.38
1024.877	898.38
1025.092	903.38
1025.306	928.38
1025.52	827.38
1025.734	922.38
1025.949	828.38
1026.163	816.38
1026.377	755.38
1026.591	824.38
1026.805	739.38
1027.019	730.38
1027.233	700.38
1027.447	654.38
1027.661	760.38
1027.875	690.38
1028.088	710.38
1028.302	632.38
1028.516	630.38
1028.73	644.38
1028.943	626.38
1029.157	582.38
1029.37	548.38
1029.584	-3.62
1029.797	-3.62
1030.011	-1.62
1030.224	0.38
