Data from QEP037381__3__11-21-25-593.txt Node

Date: Wed Dec 21 11:21:25 EST 2022
User: dcclab
Spectrometer: QEP03738
Trigger mode: 4
Integration Time (sec): 1.000000E1
Scans to average: 1
Electric dark correction enabled: true
Nonlinearity correction enabled: false
Boxcar width: 0
XAxis mode: Wavelengths
Number of Pixels in Spectrum: 1044
>>>>>Begin Spectral Data<<<<<
784.041	10.5
784.3	0.5
784.558	-3.5
784.817	-1.5
785.075	41281.5
785.334	8319.5
785.592	4325.5
785.851	3073.5
786.109	2352.5
786.368	1868.5
786.626	1518.5
786.884	1301.5
787.143	1135.5
787.401	927.5
787.659	880.5
787.917	757.5
788.175	719.5
788.433	653.5
788.691	620.5
788.949	576.5
789.207	563.5
789.465	495.5
789.723	480.5
789.98	448.5
790.238	506.5
790.496	482.5
790.753	466.5
791.011	509.5
791.268	457.5
791.526	432.5
791.783	457.5
792.041	446.5
792.298	381.5
792.556	438.5
792.813	424.5
793.07	397.5
793.327	392.5
793.584	476.5
793.841	408.5
794.099	412.5
794.356	478.5
794.613	378.5
794.869	411.5
795.126	396.5
795.383	370.5
795.64	404.5
795.897	354.5
796.153	415.5
796.41	396.5
796.667	374.5
796.923	383.5
797.18	409.5
797.436	422.5
797.693	386.5
797.949	433.5
798.206	460.5
798.462	382.5
798.718	451.5
798.974	415.5
799.231	460.5
799.487	451.5
799.743	453.5
799.999	481.5
800.255	483.5
800.511	451.5
800.767	513.5
801.023	516.5
801.279	535.5
801.534	557.5
801.79	597.5
802.046	624.5
802.302	764.5
802.557	878.5
802.813	1099.5
803.068	1303.5
803.324	1837.5
803.579	2460.5
803.835	3404.5
804.09	4604.5
804.345	6005.5
804.601	7557.5
804.856	9107.5
805.111	10477.5
805.366	11540.5
805.621	12361.5
805.876	12924.5
806.131	13268.5
806.386	13551.5
806.641	13841.5
806.896	13983.5
807.151	14362.5
807.406	14505.5
807.661	14748.5
807.915	15031.5
808.17	15221.5
808.425	15414.5
808.679	15615.5
808.934	15779.5
809.188	15912.5
809.443	16157.5
809.697	16204.5
809.951	16367.5
810.206	16518.5
810.46	16732.5
810.714	16895.5
810.968	17041.5
811.223	17104.5
811.477	17301.5
811.731	17405.5
811.985	17524.5
812.239	17607.5
812.493	17698.5
812.747	17898.5
813	17729.5
813.254	17916.5
813.508	18020.5
813.762	18076.5
814.015	18177.5
814.269	18366.5
814.522	18445.5
814.776	18694.5
815.03	18937.5
815.283	19224.5
815.536	19500.5
815.79	19757.5
816.043	20084.5
816.296	20356.5
816.55	20610.5
816.803	20895.5
817.056	21167.5
817.309	21352.5
817.562	21605.5
817.815	21756.5
818.068	21964.5
818.321	22134.5
818.574	22414.5
818.827	22818.5
819.079	22946.5
819.332	23446.5
819.585	23555.5
819.838	23977.5
820.09	23946.5
820.343	24220.5
820.595	24405.5
820.848	24532.5
821.1	24551.5
821.353	24649.5
821.605	24559.5
821.857	24646.5
822.11	24457.5
822.362	24401.5
822.614	24370.5
822.866	24365.5
823.118	24456.5
823.37	24501.5
823.622	24420.5
823.874	24469.5
824.126	24693.5
824.378	24724.5
824.63	24909.5
824.882	24966.5
825.134	24872.5
825.385	24882.5
825.637	24834.5
825.888	24760.5
826.14	24660.5
826.392	24659.5
826.643	24492.5
826.895	24528.5
827.146	24382.5
827.397	24276.5
827.649	24542.5
827.9	24240.5
828.151	24369.5
828.402	24469.5
828.653	24505.5
828.905	24562.5
829.156	24709.5
829.407	24607.5
829.658	24611.5
829.909	24650.5
830.159	24700.5
830.41	24466.5
830.661	24365.5
830.912	24243.5
831.162	24021.5
831.413	23991.5
831.664	24114.5
831.914	23939.5
832.165	24057.5
832.415	24017.5
832.666	24114.5
832.916	24107.5
833.167	24002.5
833.417	23920.5
833.667	23952.5
833.917	24079.5
834.168	23843.5
834.418	23886.5
834.668	23750.5
834.918	23585.5
835.168	23406.5
835.418	23435.5
835.668	23442.5
835.918	23286.5
836.167	23337.5
836.417	23216.5
836.667	23270.5
836.917	23140.5
837.166	23138.5
837.416	23236.5
837.666	23179.5
837.915	23142.5
838.165	23137.5
838.414	23040.5
838.663	22938.5
838.913	22926.5
839.162	22895.5
839.411	22873.5
839.661	22850.5
839.91	22825.5
840.159	22678.5
840.408	22658.5
840.657	22713.5
840.906	22690.5
841.155	22885.5
841.404	22688.5
841.653	22766.5
841.902	22687.5
842.15	22924.5
842.399	22972.5
842.648	22948.5
842.897	22678.5
843.145	22555.5
843.394	22294.5
843.642	22219.5
843.891	22241.5
844.139	22086.5
844.388	21924.5
844.636	21847.5
844.884	21867.5
845.133	21865.5
845.381	21850.5
845.629	21801.5
845.877	21774.5
846.125	21867.5
846.373	21809.5
846.621	21667.5
846.869	21637.5
847.117	21532.5
847.365	21275.5
847.613	21336.5
847.861	21382.5
848.108	21274.5
848.356	21134.5
848.604	21114.5
848.851	21181.5
849.099	21096.5
849.346	21234.5
849.594	21421.5
849.841	21518.5
850.089	21612.5
850.336	21703.5
850.583	21760.5
850.831	21696.5
851.078	21379.5
851.325	21302.5
851.572	21366.5
851.819	20959.5
852.066	20656.5
852.313	20493.5
852.56	20286.5
852.807	20232.5
853.054	20157.5
853.301	20048.5
853.548	20187.5
853.794	20233.5
854.041	20285.5
854.288	20355.5
854.534	20591.5
854.781	20418.5
855.028	20445.5
855.274	20422.5
855.52	20372.5
855.767	20220.5
856.013	20201.5
856.26	20464.5
856.506	20075.5
856.752	20077.5
856.998	19934.5
857.244	20080.5
857.49	20184.5
857.736	20173.5
857.982	20178.5
858.228	20140.5
858.474	19991.5
858.72	19897.5
858.966	19622.5
859.212	19485.5
859.458	19305.5
859.703	19186.5
859.949	18944.5
860.195	18887.5
860.44	18852.5
860.686	18708.5
860.931	18776.5
861.177	18563.5
861.422	18557.5
861.667	18620.5
861.913	18559.5
862.158	18559.5
862.403	18585.5
862.648	18518.5
862.893	18649.5
863.138	18551.5
863.384	18619.5
863.629	18507.5
863.873	18510.5
864.118	18502.5
864.363	18403.5
864.608	18433.5
864.853	18278.5
865.098	18204.5
865.342	18083.5
865.587	18064.5
865.832	18094.5
866.076	18011.5
866.321	17929.5
866.565	17923.5
866.81	17743.5
867.054	17718.5
867.298	17751.5
867.543	17646.5
867.787	17693.5
868.031	17476.5
868.275	17578.5
868.519	17528.5
868.764	17394.5
869.008	17477.5
869.252	17364.5
869.496	17348.5
869.739	17281.5
869.983	17268.5
870.227	17319.5
870.471	17208.5
870.715	17323.5
870.958	17366.5
871.202	17353.5
871.446	17412.5
871.689	17399.5
871.933	17339.5
872.176	17285.5
872.42	17290.5
872.663	17238.5
872.906	17323.5
873.15	17129.5
873.393	17056.5
873.636	17117.5
873.879	16870.5
874.122	16728.5
874.366	16489.5
874.609	16403.5
874.852	16326.5
875.095	16258.5
875.337	16316.5
875.58	16117.5
875.823	16026.5
876.066	16088.5
876.309	15992.5
876.551	15793.5
876.794	15857.5
877.037	15754.5
877.279	15733.5
877.522	15794.5
877.764	15775.5
878.007	15746.5
878.249	15822.5
878.491	15740.5
878.734	15675.5
878.976	15685.5
879.218	15598.5
879.46	15546.5
879.702	15422.5
879.945	15291.5
880.187	15136.5
880.429	15090.5
880.671	15036.5
880.912	15022.5
881.154	14976.5
881.396	14910.5
881.638	14913.5
881.88	14821.5
882.121	14833.5
882.363	14764.5
882.605	14806.5
882.846	14702.5
883.088	14704.5
883.329	14665.5
883.571	14614.5
883.812	14686.5
884.053	14851.5
884.295	15056.5
884.536	15145.5
884.777	15001.5
885.018	14919.5
885.259	14918.5
885.5	14810.5
885.742	15015.5
885.982	14821.5
886.223	14714.5
886.464	14716.5
886.705	14400.5
886.946	14476.5
887.187	14248.5
887.428	14169.5
887.668	13984.5
887.909	13848.5
888.15	13688.5
888.39	13570.5
888.631	13583.5
888.871	13494.5
889.111	13410.5
889.352	13322.5
889.592	13193.5
889.833	13090.5
890.073	13074.5
890.313	12994.5
890.553	12863.5
890.793	12797.5
891.033	12802.5
891.273	12709.5
891.513	12596.5
891.753	12728.5
891.993	12614.5
892.233	12611.5
892.473	12728.5
892.713	12701.5
892.952	12691.5
893.192	12645.5
893.432	12631.5
893.671	12666.5
893.911	12531.5
894.15	12476.5
894.39	12383.5
894.629	12325.5
894.869	12276.5
895.108	12247.5
895.347	12210.5
895.587	12115.5
895.826	12056.5
896.065	12044.5
896.304	12054.5
896.543	12031.5
896.782	11994.5
897.021	11988.5
897.26	11834.5
897.499	11931.5
897.738	11851.5
897.977	11815.5
898.216	11662.5
898.454	11506.5
898.693	11521.5
898.932	11439.5
899.17	11412.5
899.409	11415.5
899.647	11393.5
899.886	11414.5
900.124	11363.5
900.363	11341.5
900.601	11410.5
900.839	11395.5
901.078	11420.5
901.316	11448.5
901.554	11469.5
901.792	11452.5
902.03	11410.5
902.268	11369.5
902.506	11370.5
902.744	11335.5
902.982	11242.5
903.22	11098.5
903.458	11001.5
903.695	10865.5
903.933	10743.5
904.171	10477.5
904.409	10441.5
904.646	10363.5
904.884	10235.5
905.121	10191.5
905.359	9977.5
905.596	9918.5
905.833	9842.5
906.071	9819.5
906.308	9844.5
906.545	9788.5
906.783	9654.5
907.02	9665.5
907.257	9667.5
907.494	9673.5
907.731	9602.5
907.968	9565.5
908.205	9440.5
908.442	9379.5
908.679	9440.5
908.915	9285.5
909.152	9266.5
909.389	9164.5
909.626	9162.5
909.862	9038.5
910.099	9055.5
910.335	9032.5
910.572	8871.5
910.808	8967.5
911.045	8889.5
911.281	8847.5
911.518	8931.5
911.754	8739.5
911.99	8707.5
912.226	8754.5
912.463	8578.5
912.699	8550.5
912.935	8416.5
913.171	8450.5
913.407	8333.5
913.643	8327.5
913.879	8184.5
914.114	8113.5
914.35	8058.5
914.586	7958.5
914.822	7868.5
915.057	7939.5
915.293	7793.5
915.529	7713.5
915.764	7882.5
916	7809.5
916.235	7730.5
916.471	7785.5
916.706	7702.5
916.941	7676.5
917.177	7685.5
917.412	7711.5
917.647	7633.5
917.882	7586.5
918.117	7655.5
918.352	7632.5
918.588	7650.5
918.823	7510.5
919.057	7417.5
919.292	7319.5
919.527	7360.5
919.762	7277.5
919.997	7226.5
920.232	7115.5
920.466	7122.5
920.701	6906.5
920.935	6947.5
921.17	6846.5
921.405	6846.5
921.639	6904.5
921.873	6800.5
922.108	6806.5
922.342	6746.5
922.576	6695.5
922.811	6675.5
923.045	6768.5
923.279	6699.5
923.513	6582.5
923.747	6594.5
923.981	6516.5
924.215	6523.5
924.449	6503.5
924.683	6393.5
924.917	6367.5
925.151	6353.5
925.385	6433.5
925.618	6343.5
925.852	6295.5
926.086	6241.5
926.319	6282.5
926.553	6297.5
926.786	6291.5
927.02	6286.5
927.253	6236.5
927.486	6274.5
927.72	6175.5
927.953	6229.5
928.186	6193.5
928.42	6141.5
928.653	6090.5
928.886	6053.5
929.119	6136.5
929.352	6056.5
929.585	6032.5
929.818	5917.5
930.051	5938.5
930.284	5882.5
930.516	5735.5
930.749	5755.5
930.982	5817.5
931.215	5735.5
931.447	5685.5
931.68	5643.5
931.912	5629.5
932.145	5620.5
932.377	5671.5
932.61	5725.5
932.842	5595.5
933.074	5607.5
933.307	5606.5
933.539	5652.5
933.771	5637.5
934.003	5586.5
934.236	5709.5
934.468	5684.5
934.7	5543.5
934.932	5565.5
935.164	5513.5
935.395	5516.5
935.627	5548.5
935.859	5532.5
936.091	5450.5
936.323	5490.5
936.554	5509.5
936.786	5442.5
937.017	5341.5
937.249	5375.5
937.481	5276.5
937.712	5365.5
937.943	5374.5
938.175	5278.5
938.406	5308.5
938.637	5378.5
938.869	5238.5
939.1	5361.5
939.331	5216.5
939.562	5236.5
939.793	5230.5
940.024	5199.5
940.255	5222.5
940.486	5116.5
940.717	5135.5
940.948	5116.5
941.179	5061.5
941.409	5038.5
941.64	5049.5
941.871	5076.5
942.102	5039.5
942.332	5078.5
942.563	5051.5
942.793	5071.5
943.024	4952.5
943.254	5018.5
943.484	5060.5
943.715	5056.5
943.945	4971.5
944.175	4964.5
944.405	4922.5
944.636	4958.5
944.866	4943.5
945.096	4996.5
945.326	4883.5
945.556	4915.5
945.786	4907.5
946.016	4836.5
946.245	4802.5
946.475	4809.5
946.705	4774.5
946.935	4712.5
947.164	4733.5
947.394	4674.5
947.624	4661.5
947.853	4690.5
948.083	4637.5
948.312	4608.5
948.542	4537.5
948.771	4475.5
949	4490.5
949.23	4520.5
949.459	4540.5
949.688	4590.5
949.917	4570.5
950.146	4522.5
950.375	4564.5
950.604	4441.5
950.833	4543.5
951.062	4545.5
951.291	4448.5
951.52	4426.5
951.749	4413.5
951.978	4412.5
952.206	4338.5
952.435	4370.5
952.664	4416.5
952.892	4415.5
953.121	4332.5
953.349	4413.5
953.578	4383.5
953.806	4292.5
954.035	4273.5
954.263	4323.5
954.491	4166.5
954.719	4276.5
954.948	4176.5
955.176	4165.5
955.404	4093.5
955.632	4140.5
955.86	4130.5
956.088	4122.5
956.316	4138.5
956.544	4142.5
956.772	4047.5
956.999	4027.5
957.227	4064.5
957.455	3963.5
957.683	3976.5
957.91	3958.5
958.138	3954.5
958.365	3899.5
958.593	3885.5
958.82	3844.5
959.048	3859.5
959.275	3868.5
959.502	3839.5
959.73	3836.5
959.957	3832.5
960.184	3854.5
960.411	3774.5
960.638	3848.5
960.865	3797.5
961.092	3796.5
961.319	3694.5
961.546	3805.5
961.773	3819.5
962	3752.5
962.227	3801.5
962.454	3740.5
962.68	3715.5
962.907	3753.5
963.134	3668.5
963.36	3712.5
963.587	3691.5
963.813	3604.5
964.04	3619.5
964.266	3551.5
964.493	3651.5
964.719	3579.5
964.945	3587.5
965.171	3475.5
965.398	3491.5
965.624	3525.5
965.85	3452.5
966.076	3404.5
966.302	3494.5
966.528	3414.5
966.754	3433.5
966.98	3422.5
967.206	3394.5
967.431	3323.5
967.657	3425.5
967.883	3387.5
968.109	3362.5
968.334	3283.5
968.56	3296.5
968.785	3315.5
969.011	3289.5
969.236	3319.5
969.462	3247.5
969.687	3248.5
969.912	3305.5
970.138	3328.5
970.363	3210.5
970.588	3257.5
970.813	3224.5
971.038	3177.5
971.263	3169.5
971.488	3173.5
971.713	3196.5
971.938	3155.5
972.163	3079.5
972.388	3114.5
972.613	3116.5
972.838	3091.5
973.062	3066.5
973.287	3059.5
973.512	3012.5
973.736	3013.5
973.961	3005.5
974.185	2975.5
974.41	2999.5
974.634	2918.5
974.858	2923.5
975.083	2946.5
975.307	2951.5
975.531	2870.5
975.755	2812.5
975.98	2842.5
976.204	2768.5
976.428	2792.5
976.652	2764.5
976.876	2732.5
977.1	2792.5
977.324	2720.5
977.547	2789.5
977.771	2780.5
977.995	2774.5
978.219	2687.5
978.442	2790.5
978.666	2730.5
978.89	2698.5
979.113	2723.5
979.337	2687.5
979.56	2648.5
979.783	2758.5
980.007	2613.5
980.23	2616.5
980.453	2571.5
980.677	2624.5
980.9	2613.5
981.123	2534.5
981.346	2646.5
981.569	2606.5
981.792	2609.5
982.015	2557.5
982.238	2502.5
982.461	2521.5
982.684	2493.5
982.907	2488.5
983.129	2427.5
983.352	2502.5
983.575	2465.5
983.797	2443.5
984.02	2409.5
984.242	2407.5
984.465	2400.5
984.687	2438.5
984.91	2487.5
985.132	2411.5
985.354	2400.5
985.577	2402.5
985.799	2380.5
986.021	2238.5
986.243	2303.5
986.465	2343.5
986.687	2350.5
986.909	2380.5
987.131	2311.5
987.353	2258.5
987.575	2300.5
987.797	2279.5
988.019	2217.5
988.241	2292.5
988.462	2203.5
988.684	2286.5
988.906	2277.5
989.127	2357.5
989.349	2227.5
989.57	2207.5
989.792	2238.5
990.013	2275.5
990.234	2266.5
990.456	2267.5
990.677	2268.5
990.898	2189.5
991.119	2204.5
991.341	2207.5
991.562	2180.5
991.783	2199.5
992.004	2078.5
992.225	2081.5
992.446	2128.5
992.667	2034.5
992.887	2100.5
993.108	1982.5
993.329	2113.5
993.55	2074.5
993.77	2012.5
993.991	2024.5
994.212	2029.5
994.432	2034.5
994.653	2043.5
994.873	2034.5
995.093	1906.5
995.314	1951.5
995.534	2002.5
995.754	2047.5
995.975	2032.5
996.195	1937.5
996.415	1974.5
996.635	1957.5
996.855	1934.5
997.075	1943.5
997.295	1935.5
997.515	1894.5
997.735	1965.5
997.955	1925.5
998.174	1918.5
998.394	1912.5
998.614	1932.5
998.834	1885.5
999.053	1936.5
999.273	1908.5
999.492	1938.5
999.712	1922.5
999.931	1849.5
1000.151	1872.5
1000.37	1862.5
1000.589	1929.5
1000.809	1824.5
1001.028	1908.5
1001.247	1879.5
1001.466	1782.5
1001.685	1881.5
1001.904	1829.5
1002.123	1813.5
1002.342	1830.5
1002.561	1768.5
1002.78	1818.5
1002.999	1843.5
1003.218	1804.5
1003.436	1792.5
1003.655	1822.5
1003.874	1753.5
1004.092	1781.5
1004.311	1798.5
1004.53	1748.5
1004.748	1833.5
1004.966	1738.5
1005.185	1791.5
1005.403	1796.5
1005.622	1756.5
1005.84	1842.5
1006.058	1717.5
1006.276	1744.5
1006.494	2244.5
1006.712	1739.5
1006.931	1788.5
1007.149	1711.5
1007.367	1706.5
1007.584	1741.5
1007.802	1812.5
1008.02	1739.5
1008.238	1827.5
1008.456	1804.5
1008.673	1670.5
1008.891	1796.5
1009.109	1730.5
1009.326	1761.5
1009.544	1858.5
1009.761	1766.5
1009.979	1831.5
1010.196	1830.5
1010.413	1963.5
1010.631	1994.5
1010.848	1981.5
1011.065	2000.5
1011.282	1952.5
1011.5	1874.5
1011.717	1980.5
1011.934	1920.5
1012.151	1947.5
1012.368	1954.5
1012.585	1866.5
1012.801	1920.5
1013.018	1899.5
1013.235	1852.5
1013.452	1878.5
1013.669	1875.5
1013.885	1842.5
1014.102	1905.5
1014.318	1852.5
1014.535	1807.5
1014.751	1850.5
1014.968	1847.5
1015.184	1849.5
1015.401	1780.5
1015.617	1798.5
1015.833	1765.5
1016.049	1763.5
1016.266	1722.5
1016.482	1724.5
1016.698	1648.5
1016.914	1712.5
1017.13	1649.5
1017.346	1620.5
1017.562	1697.5
1017.778	1614.5
1017.993	1583.5
1018.209	1628.5
1018.425	1632.5
1018.641	1604.5
1018.856	1544.5
1019.072	1578.5
1019.288	1647.5
1019.503	1555.5
1019.719	1513.5
1019.934	1523.5
1020.149	1562.5
1020.365	1524.5
1020.58	1469.5
1020.795	1538.5
1021.011	1462.5
1021.226	1428.5
1021.441	1467.5
1021.656	1390.5
1021.871	1324.5
1022.086	1341.5
1022.301	1325.5
1022.516	1306.5
1022.731	1370.5
1022.946	1248.5
1023.16	1236.5
1023.375	1194.5
1023.59	1218.5
1023.804	1180.5
1024.019	1271.5
1024.234	1148.5
1024.448	1145.5
1024.663	1082.5
1024.877	1097.5
1025.092	1122.5
1025.306	1135.5
1025.52	1012.5
1025.734	1128.5
1025.949	1019.5
1026.163	1015.5
1026.377	943.5
1026.591	999.5
1026.805	908.5
1027.019	901.5
1027.233	879.5
1027.447	839.5
1027.661	933.5
1027.875	862.5
1028.088	866.5
1028.302	789.5
1028.516	786.5
1028.73	775.5
1028.943	776.5
1029.157	718.5
1029.37	679.5
1029.584	-1.5
1029.797	-3.5
1030.011	-0.5
1030.224	-0.5
