Data from QEP037381__7__11-22-05-593.txt Node

Date: Wed Dec 21 11:22:05 EST 2022
User: dcclab
Spectrometer: QEP03738
Trigger mode: 4
Integration Time (sec): 1.000000E1
Scans to average: 1
Electric dark correction enabled: true
Nonlinearity correction enabled: false
Boxcar width: 0
XAxis mode: Wavelengths
Number of Pixels in Spectrum: 1044
>>>>>Begin Spectral Data<<<<<
784.041	17
784.3	1
784.558	-3
784.817	-4
785.075	41850
785.334	8435
785.592	4362
785.851	3138
786.109	2396
786.368	1963
786.626	1577
786.884	1375
787.143	1157
787.401	969
787.659	884
787.917	786
788.175	758
788.433	648
788.691	618
788.949	575
789.207	565
789.465	489
789.723	485
789.98	443
790.238	500
790.496	476
790.753	448
791.011	504
791.268	434
791.526	445
791.783	457
792.041	444
792.298	372
792.556	434
792.813	414
793.07	388
793.327	381
793.584	463
793.841	393
794.099	407
794.356	474
794.613	374
794.869	412
795.126	365
795.383	361
795.64	398
795.897	334
796.153	390
796.41	374
796.667	378
796.923	378
797.18	360
797.436	402
797.693	347
797.949	414
798.206	437
798.462	358
798.718	415
798.974	395
799.231	433
799.487	424
799.743	419
799.999	449
800.255	433
800.511	428
800.767	466
801.023	447
801.279	461
801.534	485
801.79	523
802.046	543
802.302	643
802.557	683
802.813	847
803.068	973
803.324	1362
803.579	1755
803.835	2374
804.09	3238
804.345	4097
804.601	5169
804.856	6300
805.111	7198
805.366	7901
805.621	8458
805.876	8788
806.131	9043
806.386	9217
806.641	9354
806.896	9493
807.151	9702
807.406	9747
807.661	9955
807.915	10125
808.17	10335
808.425	10398
808.679	10555
808.934	10655
809.188	10653
809.443	10833
809.697	10996
809.951	10954
810.206	11072
810.46	11217
810.714	11188
810.968	11412
811.223	11378
811.477	11489
811.731	11603
811.985	11649
812.239	11661
812.493	11702
812.747	11750
813	11741
813.254	11821
813.508	11980
813.762	11950
814.015	12060
814.269	12096
814.522	12238
814.776	12294
815.03	12466
815.283	12682
815.536	12847
815.79	13048
816.043	13191
816.296	13411
816.55	13467
816.803	13679
817.056	13878
817.309	13924
817.562	14081
817.815	14172
818.068	14276
818.321	14334
818.574	14591
818.827	14821
819.079	14914
819.332	15281
819.585	15315
819.838	15531
820.09	15593
820.343	15574
820.595	15714
820.848	15907
821.1	15880
821.353	15772
821.605	15773
821.857	15906
822.11	15747
822.362	15667
822.614	15707
822.866	15720
823.118	15638
823.37	15744
823.622	15751
823.874	15792
824.126	15857
824.378	15802
824.63	15853
824.882	15862
825.134	15916
825.385	15932
825.637	15829
825.888	15753
826.14	15763
826.392	15576
826.643	15528
826.895	15542
827.146	15550
827.397	15529
827.649	15559
827.9	15439
828.151	15455
828.402	15475
828.653	15569
828.905	15524
829.156	15703
829.407	15562
829.658	15553
829.909	15726
830.159	15694
830.41	15641
830.661	15473
830.912	15228
831.162	15273
831.413	15247
831.664	15264
831.914	15232
832.165	15244
832.415	15301
832.666	15199
832.916	15340
833.167	15141
833.417	15226
833.667	15156
833.917	15126
834.168	15167
834.418	15005
834.668	15087
834.918	14937
835.168	14798
835.418	14823
835.668	14688
835.918	14780
836.167	14692
836.417	14656
836.667	14611
836.917	14671
837.166	14636
837.416	14684
837.666	14664
837.915	14617
838.165	14629
838.414	14550
838.663	14518
838.913	14595
839.162	14490
839.411	14474
839.661	14378
839.91	14392
840.159	14450
840.408	14402
840.657	14371
840.906	14417
841.155	14420
841.404	14390
841.653	14420
841.902	14351
842.15	14570
842.399	14478
842.648	14463
842.897	14356
843.145	14286
843.394	14194
843.642	14050
843.891	13978
844.139	13986
844.388	13806
844.636	13752
844.884	13743
845.133	13692
845.381	13695
845.629	13642
845.877	13733
846.125	13681
846.373	13751
846.621	13556
846.869	13551
847.117	13458
847.365	13391
847.613	13325
847.861	13408
848.108	13372
848.356	13382
848.604	13249
848.851	13300
849.099	13386
849.346	13352
849.594	13347
849.841	13495
850.089	13567
850.336	13629
850.583	13726
850.831	13682
851.078	13492
851.325	13451
851.572	13492
851.819	13220
852.066	12912
852.313	12783
852.56	12768
852.807	12661
853.054	12650
853.301	12583
853.548	12635
853.794	12756
854.041	12697
854.288	12797
854.534	12919
854.781	12877
855.028	12846
855.274	12920
855.52	12815
855.767	12790
856.013	12890
856.26	13120
856.506	12639
856.752	12673
856.998	12668
857.244	12662
857.49	12797
857.736	12863
857.982	12779
858.228	12684
858.474	12574
858.72	12524
858.966	12387
859.212	12276
859.458	12108
859.703	11979
859.949	11901
860.195	11925
860.44	11750
860.686	11842
860.931	11846
861.177	11658
861.422	11632
861.667	11496
861.913	11514
862.158	11537
862.403	11579
862.648	11652
862.893	11683
863.138	11598
863.384	11581
863.629	11567
863.873	11559
864.118	11501
864.363	11405
864.608	11449
864.853	11390
865.098	11264
865.342	11305
865.587	11181
865.832	11181
866.076	11252
866.321	11112
866.565	11196
866.81	11028
867.054	11096
867.298	11032
867.543	10977
867.787	11041
868.031	11013
868.275	10993
868.519	10897
868.764	10905
869.008	10895
869.252	10932
869.496	10815
869.739	10858
869.983	10887
870.227	10896
870.471	10810
870.715	10851
870.958	10878
871.202	10965
871.446	11003
871.689	10953
871.933	10960
872.176	10970
872.42	10924
872.663	10943
872.906	10887
873.15	10925
873.393	10885
873.636	10923
873.879	10865
874.122	10623
874.366	10473
874.609	10349
874.852	10316
875.095	10285
875.337	10131
875.58	10079
875.823	10070
876.066	10118
876.309	10039
876.551	9920
876.794	9905
877.037	9895
877.279	9854
877.522	9868
877.764	9882
878.007	9807
878.249	9891
878.491	9811
878.734	9869
878.976	9728
879.218	9676
879.46	9702
879.702	9634
879.945	9548
880.187	9392
880.429	9417
880.671	9333
880.912	9379
881.154	9308
881.396	9139
881.638	9257
881.88	9219
882.121	9211
882.363	9208
882.605	9251
882.846	9210
883.088	9201
883.329	9240
883.571	9308
883.812	9433
884.053	9706
884.295	9951
884.536	10070
884.777	9923
885.018	9849
885.259	9692
885.5	9624
885.742	9868
885.982	9581
886.223	9469
886.464	9343
886.705	9300
886.946	9169
887.187	9031
887.428	9011
887.668	8792
887.909	8682
888.15	8530
888.39	8554
888.631	8534
888.871	8390
889.111	8369
889.352	8271
889.592	8168
889.833	8157
890.073	8058
890.313	8051
890.553	7907
890.793	7904
891.033	7888
891.273	7892
891.513	7815
891.753	7850
891.993	7745
892.233	7760
892.473	7920
892.713	7844
892.952	7837
893.192	7831
893.432	7801
893.671	7875
893.911	7787
894.15	7727
894.39	7667
894.629	7647
894.869	7628
895.108	7569
895.347	7542
895.587	7564
895.826	7553
896.065	7536
896.304	7512
896.543	7526
896.782	7411
897.021	7405
897.26	7461
897.499	7472
897.738	7474
897.977	7415
898.216	7382
898.454	7237
898.693	7231
898.932	7299
899.17	7235
899.409	7216
899.647	7190
899.886	7115
900.124	7232
900.363	7206
900.601	7223
900.839	7231
901.078	7255
901.316	7373
901.554	7301
901.792	7398
902.03	7367
902.268	7383
902.506	7349
902.744	7323
902.982	7293
903.22	7052
903.458	6984
903.695	6880
903.933	6821
904.171	6633
904.409	6584
904.646	6518
904.884	6420
905.121	6362
905.359	6328
905.596	6235
905.833	6194
906.071	6013
906.308	6150
906.545	6038
906.783	6025
907.02	6041
907.257	5955
907.494	6011
907.731	6013
907.968	5913
908.205	5908
908.442	5828
908.679	5807
908.915	5763
909.152	5784
909.389	5648
909.626	5629
909.862	5649
910.099	5669
910.335	5625
910.572	5511
910.808	5467
911.045	5471
911.281	5491
911.518	5501
911.754	5405
911.99	5417
912.226	5391
912.463	5319
912.699	5303
912.935	5263
913.171	5230
913.407	5143
913.643	5180
913.879	5076
914.114	5054
914.35	5011
914.586	4986
914.822	4902
915.057	4977
915.293	4844
915.529	4824
915.764	4884
916	4862
916.235	4836
916.471	4823
916.706	4715
916.941	4725
917.177	4741
917.412	4810
917.647	4755
917.882	4679
918.117	4788
918.352	4706
918.588	4783
918.823	4705
919.057	4657
919.292	4530
919.527	4628
919.762	4535
919.997	4539
920.232	4401
920.466	4430
920.701	4323
920.935	4361
921.17	4291
921.405	4219
921.639	4291
921.873	4240
922.108	4279
922.342	4231
922.576	4164
922.811	4199
923.045	4176
923.279	4220
923.513	4089
923.747	4157
923.981	4069
924.215	4052
924.449	4071
924.683	3956
924.917	3985
925.151	3972
925.385	4056
925.618	3963
925.852	3990
926.086	3897
926.319	3910
926.553	3915
926.786	3946
927.02	3901
927.253	3955
927.486	3929
927.72	3863
927.953	3903
928.186	3830
928.42	3918
928.653	3814
928.886	3795
929.119	3812
929.352	3799
929.585	3799
929.818	3756
930.051	3721
930.284	3713
930.516	3641
930.749	3598
930.982	3680
931.215	3651
931.447	3551
931.68	3575
931.912	3598
932.145	3538
932.377	3573
932.61	3685
932.842	3557
933.074	3595
933.307	3507
933.539	3611
933.771	3582
934.003	3534
934.236	3612
934.468	3596
934.7	3524
934.932	3591
935.164	3500
935.395	3506
935.627	3476
935.859	3519
936.091	3459
936.323	3438
936.554	3523
936.786	3460
937.017	3388
937.249	3445
937.481	3345
937.712	3398
937.943	3394
938.175	3377
938.406	3357
938.637	3411
938.869	3334
939.1	3409
939.331	3274
939.562	3348
939.793	3332
940.024	3374
940.255	3319
940.486	3274
940.717	3287
940.948	3275
941.179	3188
941.409	3209
941.64	3214
941.871	3200
942.102	3225
942.332	3210
942.563	3245
942.793	3210
943.024	3151
943.254	3225
943.484	3292
943.715	3249
943.945	3209
944.175	3130
944.405	3105
944.636	3116
944.866	3155
945.096	3164
945.326	3142
945.556	3197
945.786	3180
946.016	3094
946.245	3050
946.475	3056
946.705	3086
946.935	3027
947.164	3036
947.394	2952
947.624	2988
947.853	3035
948.083	3029
948.312	2956
948.542	2932
948.771	2866
949	2913
949.23	2913
949.459	2905
949.688	2957
949.917	2904
950.146	2943
950.375	2977
950.604	2838
950.833	2951
951.062	2942
951.291	2886
951.52	2853
951.749	2861
951.978	2850
952.206	2799
952.435	2814
952.664	2827
952.892	2841
953.121	2802
953.349	2831
953.578	2843
953.806	2800
954.035	2723
954.263	2743
954.491	2728
954.719	2760
954.948	2664
955.176	2675
955.404	2597
955.632	2726
955.86	2699
956.088	2678
956.316	2685
956.544	2687
956.772	2610
956.999	2610
957.227	2677
957.455	2547
957.683	2596
957.91	2537
958.138	2513
958.365	2542
958.593	2526
958.82	2473
959.048	2577
959.275	2466
959.502	2522
959.73	2473
959.957	2522
960.184	2510
960.411	2465
960.638	2543
960.865	2458
961.092	2518
961.319	2400
961.546	2469
961.773	2503
962	2465
962.227	2523
962.454	2396
962.68	2418
962.907	2470
963.134	2402
963.36	2423
963.587	2441
963.813	2344
964.04	2405
964.266	2302
964.493	2406
964.719	2382
964.945	2373
965.171	2264
965.398	2314
965.624	2367
965.85	2262
966.076	2278
966.302	2281
966.528	2228
966.754	2301
966.98	2286
967.206	2282
967.431	2175
967.657	2299
967.883	2237
968.109	2210
968.334	2206
968.56	2147
968.785	2180
969.011	2136
969.236	2211
969.462	2137
969.687	2135
969.912	2209
970.138	2208
970.363	2114
970.588	2168
970.813	2145
971.038	2114
971.263	2132
971.488	2149
971.713	2149
971.938	2155
972.163	2048
972.388	2069
972.613	2050
972.838	2047
973.062	2051
973.287	2067
973.512	1977
973.736	2045
973.961	2020
974.185	2005
974.41	2037
974.634	1904
974.858	1943
975.083	1982
975.307	1991
975.531	1903
975.755	1881
975.98	1919
976.204	1865
976.428	1845
976.652	1829
976.876	1824
977.1	1862
977.324	1817
977.547	1858
977.771	1880
977.995	1867
978.219	1800
978.442	1925
978.666	1859
978.89	1835
979.113	1830
979.337	1794
979.56	1783
979.783	1874
980.007	1759
980.23	1803
980.453	1765
980.677	1814
980.9	1794
981.123	1687
981.346	1800
981.569	1744
981.792	1767
982.015	1757
982.238	1729
982.461	1722
982.684	1714
982.907	1678
983.129	1663
983.352	1694
983.575	1669
983.797	1689
984.02	1667
984.242	1670
984.465	1646
984.687	1693
984.91	1699
985.132	1687
985.354	1690
985.577	1655
985.799	1648
986.021	1576
986.243	1611
986.465	1635
986.687	1647
986.909	1685
987.131	1622
987.353	1594
987.575	1630
987.797	1605
988.019	1528
988.241	1604
988.462	1562
988.684	1618
988.906	1663
989.127	1647
989.349	1543
989.57	1561
989.792	1615
990.013	1627
990.234	1623
990.456	1636
990.677	1637
990.898	1572
991.119	1545
991.341	1598
991.562	1524
991.783	1543
992.004	1484
992.225	1456
992.446	1541
992.667	1446
992.887	1545
993.108	1430
993.329	1559
993.55	1476
993.77	1475
993.991	1456
994.212	1492
994.432	1465
994.653	1503
994.873	1467
995.093	1377
995.314	1416
995.534	1497
995.754	1498
995.975	1540
996.195	1381
996.415	1455
996.635	1435
996.855	1475
997.075	1443
997.295	1442
997.515	1399
997.735	1461
997.955	1454
998.174	1425
998.394	1377
998.614	1445
998.834	1384
999.053	1458
999.273	1432
999.492	1473
999.712	1406
999.931	1387
1000.151	1414
1000.37	1379
1000.589	1455
1000.809	1352
1001.028	1482
1001.247	1433
1001.466	1305
1001.685	1467
1001.904	1458
1002.123	1407
1002.342	1401
1002.561	1344
1002.78	1383
1002.999	1415
1003.218	1401
1003.436	1342
1003.655	1391
1003.874	1376
1004.092	1391
1004.311	1404
1004.53	1361
1004.748	1459
1004.966	1358
1005.185	1413
1005.403	1415
1005.622	1367
1005.84	1490
1006.058	1370
1006.276	1394
1006.494	1888
1006.712	1382
1006.931	1450
1007.149	1353
1007.367	1355
1007.584	1397
1007.802	1445
1008.02	1400
1008.238	1485
1008.456	1489
1008.673	1369
1008.891	1470
1009.109	1435
1009.326	1487
1009.544	1556
1009.761	1493
1009.979	1606
1010.196	1618
1010.413	1713
1010.631	1776
1010.848	1804
1011.065	1854
1011.282	1749
1011.5	1698
1011.717	1786
1011.934	1738
1012.151	1773
1012.368	1762
1012.585	1707
1012.801	1766
1013.018	1719
1013.235	1704
1013.452	1698
1013.669	1728
1013.885	1720
1014.102	1751
1014.318	1738
1014.535	1709
1014.751	1701
1014.968	1725
1015.184	1733
1015.401	1651
1015.617	1657
1015.833	1589
1016.049	1594
1016.266	1562
1016.482	1575
1016.698	1525
1016.914	1563
1017.13	1495
1017.346	1513
1017.562	1531
1017.778	1490
1017.993	1429
1018.209	1498
1018.425	1497
1018.641	1468
1018.856	1404
1019.072	1457
1019.288	1475
1019.503	1450
1019.719	1374
1019.934	1376
1020.149	1450
1020.365	1398
1020.58	1337
1020.795	1370
1021.011	1308
1021.226	1281
1021.441	1309
1021.656	1232
1021.871	1180
1022.086	1172
1022.301	1152
1022.516	1158
1022.731	1217
1022.946	1150
1023.16	1084
1023.375	1076
1023.59	1058
1023.804	1030
1024.019	1131
1024.234	980
1024.448	1040
1024.663	931
1024.877	961
1025.092	988
1025.306	981
1025.52	890
1025.734	965
1025.949	886
1026.163	878
1026.377	822
1026.591	889
1026.805	803
1027.019	796
1027.233	756
1027.447	707
1027.661	816
1027.875	728
1028.088	755
1028.302	677
1028.516	689
1028.73	681
1028.943	660
1029.157	643
1029.37	567
1029.584	0
1029.797	-4
1030.011	-3
1030.224	-4
