Data from QEP037381__23__11-24-45-593.txt Node

Date: Wed Dec 21 11:24:45 EST 2022
User: dcclab
Spectrometer: QEP03738
Trigger mode: 4
Integration Time (sec): 1.000000E1
Scans to average: 1
Electric dark correction enabled: true
Nonlinearity correction enabled: false
Boxcar width: 0
XAxis mode: Wavelengths
Number of Pixels in Spectrum: 1044
>>>>>Begin Spectral Data<<<<<
784.041	15.25
784.3	-1.75
784.558	-7.75
784.817	-2.75
785.075	40012.25
785.334	8228.25
785.592	4392.25
785.851	3104.25
786.109	2382.25
786.368	1924.25
786.626	1560.25
786.884	1322.25
787.143	1138.25
787.401	951.25
787.659	889.25
787.917	780.25
788.175	744.25
788.433	676.25
788.691	594.25
788.949	578.25
789.207	580.25
789.465	499.25
789.723	488.25
789.98	448.25
790.238	500.25
790.496	470.25
790.753	465.25
791.011	532.25
791.268	459.25
791.526	442.25
791.783	475.25
792.041	438.25
792.298	361.25
792.556	451.25
792.813	416.25
793.07	414.25
793.327	418.25
793.584	478.25
793.841	391.25
794.099	423.25
794.356	488.25
794.613	376.25
794.869	422.25
795.126	387.25
795.383	380.25
795.64	404.25
795.897	362.25
796.153	420.25
796.41	401.25
796.667	397.25
796.923	387.25
797.18	407.25
797.436	433.25
797.693	386.25
797.949	440.25
798.206	463.25
798.462	380.25
798.718	443.25
798.974	425.25
799.231	452.25
799.487	454.25
799.743	464.25
799.999	485.25
800.255	466.25
800.511	463.25
800.767	504.25
801.023	500.25
801.279	506.25
801.534	552.25
801.79	611.25
802.046	610.25
802.302	760.25
802.557	850.25
802.813	1028.25
803.068	1277.25
803.324	1789.25
803.579	2375.25
803.835	3316.25
804.09	4489.25
804.345	5866.25
804.601	7368.25
804.856	9018.25
805.111	10427.25
805.366	11551.25
805.621	12280.25
805.876	12952.25
806.131	13249.25
806.386	13515.25
806.641	13779.25
806.896	14105.25
807.151	14346.25
807.406	14487.25
807.661	14858.25
807.915	15079.25
808.17	15358.25
808.425	15525.25
808.679	15691.25
808.934	15915.25
809.188	15977.25
809.443	16237.25
809.697	16445.25
809.951	16519.25
810.206	16686.25
810.46	16789.25
810.714	17019.25
810.968	17082.25
811.223	17264.25
811.477	17392.25
811.731	17614.25
811.985	17615.25
812.239	17764.25
812.493	17836.25
812.747	17947.25
813	17891.25
813.254	18025.25
813.508	18160.25
813.762	18195.25
814.015	18364.25
814.269	18496.25
814.522	18593.25
814.776	18896.25
815.03	19020.25
815.283	19341.25
815.536	19706.25
815.79	19958.25
816.043	20422.25
816.296	20596.25
816.55	20868.25
816.803	21126.25
817.056	21408.25
817.309	21610.25
817.562	21702.25
817.815	22044.25
818.068	22074.25
818.321	22530.25
818.574	22687.25
818.827	23021.25
819.079	23284.25
819.332	23786.25
819.585	23955.25
819.838	24122.25
820.09	24343.25
820.343	24564.25
820.595	24610.25
820.848	24908.25
821.1	25035.25
821.353	25087.25
821.605	25032.25
821.857	24894.25
822.11	24926.25
822.362	24915.25
822.614	24688.25
822.866	24836.25
823.118	24829.25
823.37	24921.25
823.622	25008.25
823.874	24970.25
824.126	25204.25
824.378	25197.25
824.63	25303.25
824.882	25387.25
825.134	25327.25
825.385	25361.25
825.637	25331.25
825.888	25215.25
826.14	25157.25
826.392	25066.25
826.643	24930.25
826.895	24911.25
827.146	24733.25
827.397	24694.25
827.649	24913.25
827.9	24781.25
828.151	24848.25
828.402	24898.25
828.653	24995.25
828.905	25014.25
829.156	24941.25
829.407	25071.25
829.658	25106.25
829.909	25128.25
830.159	25101.25
830.41	25037.25
830.661	24673.25
830.912	24792.25
831.162	24577.25
831.413	24467.25
831.664	24624.25
831.914	24448.25
832.165	24486.25
832.415	24455.25
832.666	24581.25
832.916	24563.25
833.167	24471.25
833.417	24573.25
833.667	24580.25
833.917	24398.25
834.168	24345.25
834.418	24228.25
834.668	24188.25
834.918	24005.25
835.168	23942.25
835.418	23950.25
835.668	24061.25
835.918	23872.25
836.167	23781.25
836.417	23710.25
836.667	23857.25
836.917	23779.25
837.166	23699.25
837.416	23715.25
837.666	23775.25
837.915	23758.25
838.165	23606.25
838.414	23614.25
838.663	23337.25
838.913	23367.25
839.162	23479.25
839.411	23504.25
839.661	23266.25
839.91	23294.25
840.159	23239.25
840.408	23212.25
840.657	23262.25
840.906	23206.25
841.155	23396.25
841.404	23301.25
841.653	23238.25
841.902	23375.25
842.15	23453.25
842.399	23501.25
842.648	23417.25
842.897	23306.25
843.145	23111.25
843.394	23097.25
843.642	22787.25
843.891	22764.25
844.139	22579.25
844.388	22476.25
844.636	22451.25
844.884	22463.25
845.133	22395.25
845.381	22314.25
845.629	22369.25
845.877	22369.25
846.125	22335.25
846.373	22289.25
846.621	22148.25
846.869	22206.25
847.117	22004.25
847.365	21952.25
847.613	21846.25
847.861	21870.25
848.108	21760.25
848.356	21729.25
848.604	21842.25
848.851	21660.25
849.099	21651.25
849.346	21930.25
849.594	21988.25
849.841	22106.25
850.089	22126.25
850.336	22176.25
850.583	22348.25
850.831	22184.25
851.078	21985.25
851.325	21874.25
851.572	21701.25
851.819	21549.25
852.066	21275.25
852.313	20920.25
852.56	20957.25
852.807	20843.25
853.054	20790.25
853.301	20779.25
853.548	20724.25
853.794	20807.25
854.041	20812.25
854.288	21000.25
854.534	21110.25
854.781	21150.25
855.028	21093.25
855.274	21117.25
855.52	20992.25
855.767	20902.25
856.013	20976.25
856.26	21084.25
856.506	20723.25
856.752	20698.25
856.998	20682.25
857.244	20795.25
857.49	20848.25
857.736	20890.25
857.982	21001.25
858.228	20806.25
858.474	20720.25
858.72	20581.25
858.966	20464.25
859.212	20183.25
859.458	20017.25
859.703	19768.25
859.949	19548.25
860.195	19512.25
860.44	19461.25
860.686	19288.25
860.931	19314.25
861.177	19267.25
861.422	19106.25
861.667	19131.25
861.913	19089.25
862.158	19226.25
862.403	19133.25
862.648	19210.25
862.893	19294.25
863.138	19170.25
863.384	19243.25
863.629	19227.25
863.873	19252.25
864.118	19143.25
864.363	19007.25
864.608	18986.25
864.853	18900.25
865.098	18782.25
865.342	18801.25
865.587	18683.25
865.832	18644.25
866.076	18572.25
866.321	18607.25
866.565	18576.25
866.81	18430.25
867.054	18419.25
867.298	18353.25
867.543	18294.25
867.787	18227.25
868.031	18183.25
868.275	18130.25
868.519	18049.25
868.764	18121.25
869.008	18094.25
869.252	18053.25
869.496	17932.25
869.739	17962.25
869.983	17877.25
870.227	17977.25
870.471	18002.25
870.715	17939.25
870.958	17996.25
871.202	18033.25
871.446	18094.25
871.689	18025.25
871.933	18031.25
872.176	18040.25
872.42	18048.25
872.663	17963.25
872.906	17965.25
873.15	17925.25
873.393	17822.25
873.636	17784.25
873.879	17632.25
874.122	17432.25
874.366	17223.25
874.609	17145.25
874.852	16985.25
875.095	16878.25
875.337	16856.25
875.58	16703.25
875.823	16780.25
876.066	16737.25
876.309	16610.25
876.551	16442.25
876.794	16419.25
877.037	16424.25
877.279	16456.25
877.522	16415.25
877.764	16344.25
878.007	16381.25
878.249	16385.25
878.491	16301.25
878.734	16386.25
878.976	16287.25
879.218	16102.25
879.46	16052.25
879.702	15980.25
879.945	15857.25
880.187	15722.25
880.429	15748.25
880.671	15571.25
880.912	15536.25
881.154	15556.25
881.396	15494.25
881.638	15524.25
881.88	15482.25
882.121	15379.25
882.363	15444.25
882.605	15424.25
882.846	15353.25
883.088	15252.25
883.329	15248.25
883.571	15187.25
883.812	15430.25
884.053	15539.25
884.295	15766.25
884.536	15933.25
884.777	15773.25
885.018	15739.25
885.259	15681.25
885.5	15486.25
885.742	15716.25
885.982	15604.25
886.223	15420.25
886.464	15288.25
886.705	15279.25
886.946	15127.25
887.187	14785.25
887.428	14823.25
887.668	14649.25
887.909	14449.25
888.15	14322.25
888.39	14200.25
888.631	14251.25
888.871	14139.25
889.111	13975.25
889.352	13829.25
889.592	13746.25
889.833	13666.25
890.073	13604.25
890.313	13634.25
890.553	13347.25
890.793	13347.25
891.033	13350.25
891.273	13241.25
891.513	13235.25
891.753	13255.25
891.993	13075.25
892.233	13228.25
892.473	13254.25
892.713	13196.25
892.952	13215.25
893.192	13263.25
893.432	13183.25
893.671	13184.25
893.911	13123.25
894.15	12992.25
894.39	12912.25
894.629	12881.25
894.869	12906.25
895.108	12731.25
895.347	12663.25
895.587	12628.25
895.826	12685.25
896.065	12593.25
896.304	12550.25
896.543	12621.25
896.782	12467.25
897.021	12505.25
897.26	12436.25
897.499	12446.25
897.738	12484.25
897.977	12317.25
898.216	12285.25
898.454	12141.25
898.693	12023.25
898.932	12068.25
899.17	11972.25
899.409	11936.25
899.647	11855.25
899.886	11933.25
900.124	11908.25
900.363	11938.25
900.601	11898.25
900.839	11991.25
901.078	11993.25
901.316	11950.25
901.554	12032.25
901.792	11983.25
902.03	12056.25
902.268	11934.25
902.506	11933.25
902.744	11870.25
902.982	11833.25
903.22	11731.25
903.458	11472.25
903.695	11397.25
903.933	11229.25
904.171	11035.25
904.409	10892.25
904.646	10850.25
904.884	10662.25
905.121	10683.25
905.359	10431.25
905.596	10416.25
905.833	10248.25
906.071	10201.25
906.308	10287.25
906.545	10231.25
906.783	10130.25
907.02	10223.25
907.257	10122.25
907.494	10118.25
907.731	10100.25
907.968	10088.25
908.205	9930.25
908.442	9949.25
908.679	9810.25
908.915	9804.25
909.152	9651.25
909.389	9544.25
909.626	9537.25
909.862	9465.25
910.099	9498.25
910.335	9489.25
910.572	9374.25
910.808	9330.25
911.045	9281.25
911.281	9206.25
911.518	9313.25
911.754	9187.25
911.99	9116.25
912.226	9077.25
912.463	8926.25
912.699	8898.25
912.935	8878.25
913.171	8775.25
913.407	8699.25
913.643	8721.25
913.879	8589.25
914.114	8540.25
914.35	8471.25
914.586	8301.25
914.822	8280.25
915.057	8381.25
915.293	8180.25
915.529	8142.25
915.764	8267.25
916	8201.25
916.235	8178.25
916.471	8166.25
916.706	8092.25
916.941	8026.25
917.177	8066.25
917.412	8105.25
917.647	8105.25
917.882	7985.25
918.117	8017.25
918.352	7953.25
918.588	7998.25
918.823	7823.25
919.057	7830.25
919.292	7642.25
919.527	7771.25
919.762	7567.25
919.997	7598.25
920.232	7466.25
920.466	7436.25
920.701	7235.25
920.935	7280.25
921.17	7281.25
921.405	7220.25
921.639	7201.25
921.873	7147.25
922.108	7166.25
922.342	7118.25
922.576	7033.25
922.811	7032.25
923.045	7057.25
923.279	6957.25
923.513	6816.25
923.747	6954.25
923.981	6873.25
924.215	6801.25
924.449	6776.25
924.683	6738.25
924.917	6708.25
925.151	6654.25
925.385	6702.25
925.618	6650.25
925.852	6604.25
926.086	6554.25
926.319	6573.25
926.553	6615.25
926.786	6609.25
927.02	6563.25
927.253	6554.25
927.486	6534.25
927.72	6447.25
927.953	6530.25
928.186	6448.25
928.42	6500.25
928.653	6424.25
928.886	6368.25
929.119	6355.25
929.352	6314.25
929.585	6306.25
929.818	6223.25
930.051	6223.25
930.284	6206.25
930.516	6046.25
930.749	6034.25
930.982	6083.25
931.215	6051.25
931.447	5945.25
931.68	5994.25
931.912	5918.25
932.145	5955.25
932.377	5915.25
932.61	6056.25
932.842	5877.25
933.074	5950.25
933.307	5860.25
933.539	5947.25
933.771	5903.25
934.003	5826.25
934.236	5965.25
934.468	5922.25
934.7	5862.25
934.932	5891.25
935.164	5757.25
935.395	5791.25
935.627	5802.25
935.859	5811.25
936.091	5665.25
936.323	5770.25
936.554	5739.25
936.786	5644.25
937.017	5605.25
937.249	5678.25
937.481	5570.25
937.712	5666.25
937.943	5601.25
938.175	5588.25
938.406	5526.25
938.637	5622.25
938.869	5550.25
939.1	5576.25
939.331	5505.25
939.562	5533.25
939.793	5503.25
940.024	5539.25
940.255	5478.25
940.486	5402.25
940.717	5433.25
940.948	5381.25
941.179	5343.25
941.409	5392.25
941.64	5345.25
941.871	5344.25
942.102	5293.25
942.332	5283.25
942.563	5340.25
942.793	5328.25
943.024	5288.25
943.254	5295.25
943.484	5347.25
943.715	5324.25
943.945	5285.25
944.175	5233.25
944.405	5187.25
944.636	5213.25
944.866	5230.25
945.096	5252.25
945.326	5136.25
945.556	5191.25
945.786	5208.25
946.016	5155.25
946.245	5099.25
946.475	5061.25
946.705	5059.25
946.935	4997.25
947.164	5002.25
947.394	5005.25
947.624	4892.25
947.853	4943.25
948.083	4924.25
948.312	4894.25
948.542	4791.25
948.771	4743.25
949	4790.25
949.23	4823.25
949.459	4824.25
949.688	4845.25
949.917	4772.25
950.146	4779.25
950.375	4846.25
950.604	4716.25
950.833	4825.25
951.062	4762.25
951.291	4753.25
951.52	4686.25
951.749	4706.25
951.978	4645.25
952.206	4629.25
952.435	4602.25
952.664	4617.25
952.892	4656.25
953.121	4662.25
953.349	4671.25
953.578	4627.25
953.806	4519.25
954.035	4447.25
954.263	4534.25
954.491	4444.25
954.719	4449.25
954.948	4408.25
955.176	4401.25
955.404	4360.25
955.632	4413.25
955.86	4319.25
956.088	4330.25
956.316	4352.25
956.544	4326.25
956.772	4247.25
956.999	4229.25
957.227	4289.25
957.455	4218.25
957.683	4275.25
957.91	4163.25
958.138	4153.25
958.365	4108.25
958.593	4083.25
958.82	4022.25
959.048	4118.25
959.275	4076.25
959.502	4060.25
959.73	4037.25
959.957	4080.25
960.184	4020.25
960.411	3976.25
960.638	4054.25
960.865	3997.25
961.092	4038.25
961.319	3939.25
961.546	4053.25
961.773	4030.25
962	3972.25
962.227	3983.25
962.454	3947.25
962.68	3895.25
962.907	3935.25
963.134	3840.25
963.36	3861.25
963.587	3906.25
963.813	3830.25
964.04	3809.25
964.266	3750.25
964.493	3841.25
964.719	3786.25
964.945	3760.25
965.171	3612.25
965.398	3717.25
965.624	3673.25
965.85	3587.25
966.076	3650.25
966.302	3689.25
966.528	3609.25
966.754	3620.25
966.98	3628.25
967.206	3570.25
967.431	3482.25
967.657	3567.25
967.883	3577.25
968.109	3554.25
968.334	3434.25
968.56	3500.25
968.785	3478.25
969.011	3449.25
969.236	3536.25
969.462	3424.25
969.687	3439.25
969.912	3446.25
970.138	3499.25
970.363	3404.25
970.588	3443.25
970.813	3385.25
971.038	3375.25
971.263	3355.25
971.488	3396.25
971.713	3403.25
971.938	3376.25
972.163	3258.25
972.388	3293.25
972.613	3256.25
972.838	3259.25
973.062	3262.25
973.287	3219.25
973.512	3180.25
973.736	3202.25
973.961	3198.25
974.185	3171.25
974.41	3186.25
974.634	3090.25
974.858	3086.25
975.083	3064.25
975.307	3106.25
975.531	3032.25
975.755	3021.25
975.98	3001.25
976.204	2947.25
976.428	2941.25
976.652	2944.25
976.876	2914.25
977.1	2908.25
977.324	2874.25
977.547	2958.25
977.771	2960.25
977.995	2907.25
978.219	2844.25
978.442	2912.25
978.666	2871.25
978.89	2904.25
979.113	2896.25
979.337	2831.25
979.56	2823.25
979.783	2899.25
980.007	2783.25
980.23	2803.25
980.453	2736.25
980.677	2797.25
980.9	2785.25
981.123	2675.25
981.346	2767.25
981.569	2744.25
981.792	2748.25
982.015	2670.25
982.238	2642.25
982.461	2699.25
982.684	2611.25
982.907	2614.25
983.129	2575.25
983.352	2633.25
983.575	2593.25
983.797	2601.25
984.02	2549.25
984.242	2522.25
984.465	2537.25
984.687	2553.25
984.91	2580.25
985.132	2533.25
985.354	2525.25
985.577	2501.25
985.799	2515.25
986.021	2419.25
986.243	2429.25
986.465	2461.25
986.687	2504.25
986.909	2512.25
987.131	2467.25
987.353	2402.25
987.575	2432.25
987.797	2388.25
988.019	2344.25
988.241	2434.25
988.462	2373.25
988.684	2415.25
988.906	2443.25
989.127	2462.25
989.349	2330.25
989.57	2337.25
989.792	2394.25
990.013	2379.25
990.234	2363.25
990.456	2393.25
990.677	2381.25
990.898	2295.25
991.119	2330.25
991.341	2302.25
991.562	2250.25
991.783	2263.25
992.004	2197.25
992.225	2204.25
992.446	2222.25
992.667	2187.25
992.887	2249.25
993.108	2117.25
993.329	2240.25
993.55	2184.25
993.77	2117.25
993.991	2123.25
994.212	2149.25
994.432	2182.25
994.653	2142.25
994.873	2109.25
995.093	2025.25
995.314	2056.25
995.534	2132.25
995.754	2134.25
995.975	2142.25
996.195	2023.25
996.415	2100.25
996.635	2068.25
996.855	2089.25
997.075	2071.25
997.295	2019.25
997.515	2015.25
997.735	2073.25
997.955	2026.25
998.174	2009.25
998.394	1989.25
998.614	2023.25
998.834	1988.25
999.053	2030.25
999.273	2007.25
999.492	2069.25
999.712	1981.25
999.931	1976.25
1000.151	1998.25
1000.37	1995.25
1000.589	2016.25
1000.809	1957.25
1001.028	2034.25
1001.247	1984.25
1001.466	1865.25
1001.685	1996.25
1001.904	1944.25
1002.123	1907.25
1002.342	1911.25
1002.561	1853.25
1002.78	1899.25
1002.999	1945.25
1003.218	1873.25
1003.436	1847.25
1003.655	1908.25
1003.874	1838.25
1004.092	1842.25
1004.311	1894.25
1004.53	1843.25
1004.748	1930.25
1004.966	1840.25
1005.185	1890.25
1005.403	1846.25
1005.622	1859.25
1005.84	1904.25
1006.058	1821.25
1006.276	1841.25
1006.494	2344.25
1006.712	1810.25
1006.931	1895.25
1007.149	1790.25
1007.367	1812.25
1007.584	1838.25
1007.802	1875.25
1008.02	1839.25
1008.238	1926.25
1008.456	1918.25
1008.673	1756.25
1008.891	1880.25
1009.109	1828.25
1009.326	1881.25
1009.544	1993.25
1009.761	1885.25
1009.979	1971.25
1010.196	2007.25
1010.413	2090.25
1010.631	2153.25
1010.848	2193.25
1011.065	2216.25
1011.282	2132.25
1011.5	2066.25
1011.717	2173.25
1011.934	2102.25
1012.151	2122.25
1012.368	2121.25
1012.585	2042.25
1012.801	2107.25
1013.018	2038.25
1013.235	2048.25
1013.452	2059.25
1013.669	2069.25
1013.885	2060.25
1014.102	2058.25
1014.318	2047.25
1014.535	1997.25
1014.751	2043.25
1014.968	2016.25
1015.184	2040.25
1015.401	1927.25
1015.617	1958.25
1015.833	1892.25
1016.049	1916.25
1016.266	1902.25
1016.482	1879.25
1016.698	1793.25
1016.914	1852.25
1017.13	1813.25
1017.346	1770.25
1017.562	1848.25
1017.778	1769.25
1017.993	1736.25
1018.209	1811.25
1018.425	1757.25
1018.641	1749.25
1018.856	1698.25
1019.072	1740.25
1019.288	1776.25
1019.503	1732.25
1019.719	1627.25
1019.934	1642.25
1020.149	1717.25
1020.365	1667.25
1020.58	1610.25
1020.795	1656.25
1021.011	1570.25
1021.226	1538.25
1021.441	1588.25
1021.656	1475.25
1021.871	1431.25
1022.086	1423.25
1022.301	1413.25
1022.516	1367.25
1022.731	1454.25
1022.946	1352.25
1023.16	1327.25
1023.375	1306.25
1023.59	1280.25
1023.804	1248.25
1024.019	1337.25
1024.234	1217.25
1024.448	1240.25
1024.663	1156.25
1024.877	1183.25
1025.092	1195.25
1025.306	1186.25
1025.52	1086.25
1025.734	1165.25
1025.949	1076.25
1026.163	1076.25
1026.377	994.25
1026.591	1039.25
1026.805	982.25
1027.019	968.25
1027.233	924.25
1027.447	864.25
1027.661	970.25
1027.875	937.25
1028.088	902.25
1028.302	847.25
1028.516	827.25
1028.73	823.25
1028.943	824.25
1029.157	747.25
1029.37	706.25
1029.584	2.25
1029.797	-1.75
1030.011	0.25
1030.224	-3.75
