Data from QEP037381__21__11-24-25-593.txt Node

Date: Wed Dec 21 11:24:25 EST 2022
User: dcclab
Spectrometer: QEP03738
Trigger mode: 4
Integration Time (sec): 1.000000E1
Scans to average: 1
Electric dark correction enabled: true
Nonlinearity correction enabled: false
Boxcar width: 0
XAxis mode: Wavelengths
Number of Pixels in Spectrum: 1044
>>>>>Begin Spectral Data<<<<<
784.041	14.5
784.3	-0.5
784.558	-3.5
784.817	-4.5
785.075	40925.5
785.334	8195.5
785.592	4308.5
785.851	3092.5
786.109	2353.5
786.368	1848.5
786.626	1564.5
786.884	1307.5
787.143	1124.5
787.401	927.5
787.659	877.5
787.917	773.5
788.175	735.5
788.433	637.5
788.691	602.5
788.949	564.5
789.207	557.5
789.465	475.5
789.723	478.5
789.98	443.5
790.238	484.5
790.496	464.5
790.753	452.5
791.011	485.5
791.268	424.5
791.526	435.5
791.783	442.5
792.041	431.5
792.298	358.5
792.556	412.5
792.813	392.5
793.07	383.5
793.327	382.5
793.584	461.5
793.841	388.5
794.099	401.5
794.356	458.5
794.613	369.5
794.869	405.5
795.126	363.5
795.383	365.5
795.64	376.5
795.897	326.5
796.153	391.5
796.41	366.5
796.667	364.5
796.923	364.5
797.18	372.5
797.436	397.5
797.693	350.5
797.949	391.5
798.206	434.5
798.462	349.5
798.718	404.5
798.974	369.5
799.231	416.5
799.487	395.5
799.743	403.5
799.999	426.5
800.255	418.5
800.511	387.5
800.767	436.5
801.023	410.5
801.279	442.5
801.534	461.5
801.79	487.5
802.046	480.5
802.302	582.5
802.557	621.5
802.813	731.5
803.068	819.5
803.324	1116.5
803.579	1415.5
803.835	1899.5
804.09	2567.5
804.345	3233.5
804.601	3983.5
804.856	4834.5
805.111	5503.5
805.366	6085.5
805.621	6501.5
805.876	6756.5
806.131	6870.5
806.386	7068.5
806.641	7152.5
806.896	7228.5
807.151	7520.5
807.406	7559.5
807.661	7641.5
807.915	7777.5
808.17	7940.5
808.425	8017.5
808.679	8001.5
808.934	8254.5
809.188	8166.5
809.443	8359.5
809.697	8443.5
809.951	8374.5
810.206	8524.5
810.46	8683.5
810.714	8653.5
810.968	8784.5
811.223	8812.5
811.477	8906.5
811.731	8946.5
811.985	8913.5
812.239	9001.5
812.493	8987.5
812.747	9064.5
813	9037.5
813.254	9102.5
813.508	9144.5
813.762	9164.5
814.015	9186.5
814.269	9299.5
814.522	9389.5
814.776	9530.5
815.03	9512.5
815.283	9707.5
815.536	9867.5
815.79	10036.5
816.043	10149.5
816.296	10317.5
816.55	10397.5
816.803	10495.5
817.056	10724.5
817.309	10685.5
817.562	10777.5
817.815	11043.5
818.068	10987.5
818.321	11094.5
818.574	11230.5
818.827	11390.5
819.079	11491.5
819.332	11783.5
819.585	11779.5
819.838	11927.5
820.09	11950.5
820.343	12145.5
820.595	12034.5
820.848	12170.5
821.1	12201.5
821.353	12195.5
821.605	12132.5
821.857	12236.5
822.11	12119.5
822.362	12076.5
822.614	12084.5
822.866	12073.5
823.118	12036.5
823.37	12148.5
823.622	12176.5
823.874	12171.5
824.126	12310.5
824.378	12211.5
824.63	12222.5
824.882	12318.5
825.134	12192.5
825.385	12183.5
825.637	12185.5
825.888	12124.5
826.14	12131.5
826.392	12054.5
826.643	12003.5
826.895	12042.5
827.146	11926.5
827.397	11941.5
827.649	11931.5
827.9	11811.5
828.151	11842.5
828.402	11893.5
828.653	11854.5
828.905	11984.5
829.156	12020.5
829.407	11974.5
829.658	12029.5
829.909	12168.5
830.159	12100.5
830.41	12003.5
830.661	11969.5
830.912	11836.5
831.162	11757.5
831.413	11794.5
831.664	11868.5
831.914	11706.5
832.165	11766.5
832.415	11729.5
832.666	11786.5
832.916	11773.5
833.167	11668.5
833.417	11721.5
833.667	11760.5
833.917	11535.5
834.168	11610.5
834.418	11542.5
834.668	11547.5
834.918	11406.5
835.168	11375.5
835.418	11374.5
835.668	11332.5
835.918	11310.5
836.167	11331.5
836.417	11216.5
836.667	11321.5
836.917	11310.5
837.166	11252.5
837.416	11315.5
837.666	11227.5
837.915	11259.5
838.165	11162.5
838.414	11203.5
838.663	11065.5
838.913	11157.5
839.162	11146.5
839.411	11234.5
839.661	11058.5
839.91	11056.5
840.159	11113.5
840.408	11091.5
840.657	11161.5
840.906	11066.5
841.155	11085.5
841.404	11095.5
841.653	11138.5
841.902	11084.5
842.15	11140.5
842.399	11240.5
842.648	11158.5
842.897	11138.5
843.145	10967.5
843.394	10887.5
843.642	10803.5
843.891	10824.5
844.139	10717.5
844.388	10584.5
844.636	10640.5
844.884	10601.5
845.133	10574.5
845.381	10560.5
845.629	10611.5
845.877	10507.5
846.125	10526.5
846.373	10566.5
846.621	10444.5
846.869	10500.5
847.117	10378.5
847.365	10331.5
847.613	10286.5
847.861	10240.5
848.108	10311.5
848.356	10279.5
848.604	10283.5
848.851	10194.5
849.099	10325.5
849.346	10317.5
849.594	10411.5
849.841	10447.5
850.089	10523.5
850.336	10512.5
850.583	10623.5
850.831	10586.5
851.078	10506.5
851.325	10363.5
851.572	10448.5
851.819	10285.5
852.066	9992.5
852.313	9824.5
852.56	9789.5
852.807	9715.5
853.054	9731.5
853.301	9718.5
853.548	9747.5
853.794	9898.5
854.041	9787.5
854.288	9845.5
854.534	9985.5
854.781	9956.5
855.028	9937.5
855.274	10005.5
855.52	9923.5
855.767	9885.5
856.013	9950.5
856.26	10281.5
856.506	9735.5
856.752	9801.5
856.998	9850.5
857.244	9775.5
857.49	9869.5
857.736	9841.5
857.982	9910.5
858.228	9861.5
858.474	9710.5
858.72	9590.5
858.966	9581.5
859.212	9540.5
859.458	9331.5
859.703	9305.5
859.949	9159.5
860.195	9156.5
860.44	9094.5
860.686	9130.5
860.931	9081.5
861.177	8958.5
861.422	8917.5
861.667	8893.5
861.913	8926.5
862.158	8860.5
862.403	8918.5
862.648	8914.5
862.893	8952.5
863.138	8875.5
863.384	8820.5
863.629	8891.5
863.873	8877.5
864.118	8859.5
864.363	8778.5
864.608	8840.5
864.853	8780.5
865.098	8762.5
865.342	8685.5
865.587	8591.5
865.832	8642.5
866.076	8582.5
866.321	8543.5
866.565	8580.5
866.81	8505.5
867.054	8484.5
867.298	8459.5
867.543	8475.5
867.787	8476.5
868.031	8413.5
868.275	8426.5
868.519	8403.5
868.764	8393.5
869.008	8341.5
869.252	8411.5
869.496	8379.5
869.739	8379.5
869.983	8428.5
870.227	8451.5
870.471	8414.5
870.715	8399.5
870.958	8432.5
871.202	8476.5
871.446	8493.5
871.689	8480.5
871.933	8490.5
872.176	8473.5
872.42	8456.5
872.663	8469.5
872.906	8438.5
873.15	8455.5
873.393	8530.5
873.636	8514.5
873.879	8432.5
874.122	8303.5
874.366	8145.5
874.609	8029.5
874.852	7981.5
875.095	7960.5
875.337	7916.5
875.58	7744.5
875.823	7811.5
876.066	7822.5
876.309	7789.5
876.551	7708.5
876.794	7646.5
877.037	7716.5
877.279	7628.5
877.522	7581.5
877.764	7557.5
878.007	7532.5
878.249	7582.5
878.491	7476.5
878.734	7516.5
878.976	7519.5
879.218	7396.5
879.46	7423.5
879.702	7392.5
879.945	7331.5
880.187	7205.5
880.429	7193.5
880.671	7164.5
880.912	7167.5
881.154	7147.5
881.396	7027.5
881.638	7165.5
881.88	7083.5
882.121	7033.5
882.363	7011.5
882.605	7132.5
882.846	7156.5
883.088	7128.5
883.329	7187.5
883.571	7130.5
883.812	7329.5
884.053	7591.5
884.295	7840.5
884.536	7947.5
884.777	7802.5
885.018	7732.5
885.259	7647.5
885.5	7538.5
885.742	7745.5
885.982	7561.5
886.223	7449.5
886.464	7331.5
886.705	7205.5
886.946	7139.5
887.187	6945.5
887.428	6895.5
887.668	6805.5
887.909	6646.5
888.15	6516.5
888.39	6533.5
888.631	6506.5
888.871	6390.5
889.111	6382.5
889.352	6349.5
889.592	6231.5
889.833	6238.5
890.073	6143.5
890.313	6205.5
890.553	6059.5
890.793	6072.5
891.033	5974.5
891.273	6001.5
891.513	5970.5
891.753	6068.5
891.993	5997.5
892.233	6026.5
892.473	6070.5
892.713	6054.5
892.952	5966.5
893.192	5988.5
893.432	5934.5
893.671	6025.5
893.911	5977.5
894.15	5909.5
894.39	5855.5
894.629	5884.5
894.869	5829.5
895.108	5815.5
895.347	5735.5
895.587	5798.5
895.826	5732.5
896.065	5683.5
896.304	5730.5
896.543	5784.5
896.782	5652.5
897.021	5707.5
897.26	5740.5
897.499	5735.5
897.738	5757.5
897.977	5650.5
898.216	5625.5
898.454	5599.5
898.693	5532.5
898.932	5589.5
899.17	5525.5
899.409	5500.5
899.647	5532.5
899.886	5501.5
900.124	5560.5
900.363	5501.5
900.601	5572.5
900.839	5578.5
901.078	5625.5
901.316	5658.5
901.554	5675.5
901.792	5774.5
902.03	5699.5
902.268	5692.5
902.506	5734.5
902.744	5670.5
902.982	5582.5
903.22	5463.5
903.458	5351.5
903.695	5340.5
903.933	5220.5
904.171	5093.5
904.409	5032.5
904.646	5021.5
904.884	4915.5
905.121	4897.5
905.359	4800.5
905.596	4779.5
905.833	4664.5
906.071	4681.5
906.308	4683.5
906.545	4652.5
906.783	4606.5
907.02	4639.5
907.257	4573.5
907.494	4544.5
907.731	4536.5
907.968	4584.5
908.205	4542.5
908.442	4496.5
908.679	4473.5
908.915	4406.5
909.152	4388.5
909.389	4273.5
909.626	4311.5
909.862	4255.5
910.099	4320.5
910.335	4276.5
910.572	4182.5
910.808	4241.5
911.045	4261.5
911.281	4166.5
911.518	4232.5
911.754	4159.5
911.99	4141.5
912.226	4079.5
912.463	4055.5
912.699	4037.5
912.935	4028.5
913.171	3986.5
913.407	3924.5
913.643	3941.5
913.879	3921.5
914.114	3884.5
914.35	3836.5
914.586	3786.5
914.822	3709.5
915.057	3817.5
915.293	3677.5
915.529	3671.5
915.764	3766.5
916	3703.5
916.235	3668.5
916.471	3709.5
916.706	3622.5
916.941	3649.5
917.177	3661.5
917.412	3704.5
917.647	3658.5
917.882	3592.5
918.117	3627.5
918.352	3635.5
918.588	3599.5
918.823	3541.5
919.057	3583.5
919.292	3429.5
919.527	3530.5
919.762	3467.5
919.997	3481.5
920.232	3373.5
920.466	3396.5
920.701	3284.5
920.935	3325.5
921.17	3274.5
921.405	3234.5
921.639	3301.5
921.873	3249.5
922.108	3290.5
922.342	3270.5
922.576	3160.5
922.811	3132.5
923.045	3224.5
923.279	3260.5
923.513	3103.5
923.747	3238.5
923.981	3153.5
924.215	3104.5
924.449	3125.5
924.683	3024.5
924.917	3037.5
925.151	3054.5
925.385	3110.5
925.618	3072.5
925.852	3058.5
926.086	2976.5
926.319	3034.5
926.553	3012.5
926.786	3008.5
927.02	2982.5
927.253	3046.5
927.486	3031.5
927.72	2945.5
927.953	3009.5
928.186	2948.5
928.42	3010.5
928.653	2927.5
928.886	2936.5
929.119	2904.5
929.352	2892.5
929.585	2928.5
929.818	2842.5
930.051	2907.5
930.284	2863.5
930.516	2796.5
930.749	2802.5
930.982	2824.5
931.215	2803.5
931.447	2777.5
931.68	2750.5
931.912	2750.5
932.145	2755.5
932.377	2758.5
932.61	2909.5
932.842	2696.5
933.074	2763.5
933.307	2684.5
933.539	2808.5
933.771	2781.5
934.003	2723.5
934.236	2799.5
934.468	2802.5
934.7	2714.5
934.932	2730.5
935.164	2699.5
935.395	2692.5
935.627	2695.5
935.859	2677.5
936.091	2615.5
936.323	2725.5
936.554	2693.5
936.786	2672.5
937.017	2593.5
937.249	2663.5
937.481	2581.5
937.712	2654.5
937.943	2618.5
938.175	2577.5
938.406	2584.5
938.637	2693.5
938.869	2555.5
939.1	2638.5
939.331	2593.5
939.562	2595.5
939.793	2583.5
940.024	2573.5
940.255	2618.5
940.486	2554.5
940.717	2548.5
940.948	2511.5
941.179	2494.5
941.409	2500.5
941.64	2507.5
941.871	2522.5
942.102	2497.5
942.332	2480.5
942.563	2527.5
942.793	2501.5
943.024	2473.5
943.254	2481.5
943.484	2509.5
943.715	2515.5
943.945	2466.5
944.175	2427.5
944.405	2414.5
944.636	2408.5
944.866	2472.5
945.096	2472.5
945.326	2408.5
945.556	2447.5
945.786	2459.5
946.016	2418.5
946.245	2335.5
946.475	2367.5
946.705	2369.5
946.935	2342.5
947.164	2368.5
947.394	2340.5
947.624	2370.5
947.853	2352.5
948.083	2316.5
948.312	2266.5
948.542	2270.5
948.771	2210.5
949	2232.5
949.23	2254.5
949.459	2261.5
949.688	2339.5
949.917	2240.5
950.146	2252.5
950.375	2342.5
950.604	2212.5
950.833	2306.5
951.062	2294.5
951.291	2206.5
951.52	2241.5
951.749	2215.5
951.978	2180.5
952.206	2220.5
952.435	2211.5
952.664	2233.5
952.892	2249.5
953.121	2221.5
953.349	2215.5
953.578	2208.5
953.806	2201.5
954.035	2116.5
954.263	2152.5
954.491	2107.5
954.719	2171.5
954.948	2079.5
955.176	2102.5
955.404	2052.5
955.632	2102.5
955.86	2111.5
956.088	2104.5
956.316	2083.5
956.544	2112.5
956.772	2069.5
956.999	2022.5
957.227	2120.5
957.455	1986.5
957.683	2034.5
957.91	2004.5
958.138	1947.5
958.365	1982.5
958.593	1952.5
958.82	1948.5
959.048	1988.5
959.275	1979.5
959.502	1963.5
959.73	1960.5
959.957	1967.5
960.184	1972.5
960.411	1948.5
960.638	2005.5
960.865	1918.5
961.092	1968.5
961.319	1874.5
961.546	1956.5
961.773	1962.5
962	1926.5
962.227	1980.5
962.454	1921.5
962.68	1939.5
962.907	1944.5
963.134	1892.5
963.36	1909.5
963.587	1924.5
963.813	1838.5
964.04	1883.5
964.266	1846.5
964.493	1945.5
964.719	1887.5
964.945	1890.5
965.171	1762.5
965.398	1847.5
965.624	1878.5
965.85	1779.5
966.076	1818.5
966.302	1823.5
966.528	1792.5
966.754	1839.5
966.98	1834.5
967.206	1820.5
967.431	1756.5
967.657	1841.5
967.883	1780.5
968.109	1771.5
968.334	1757.5
968.56	1718.5
968.785	1734.5
969.011	1675.5
969.236	1736.5
969.462	1719.5
969.687	1737.5
969.912	1749.5
970.138	1782.5
970.363	1704.5
970.588	1726.5
970.813	1700.5
971.038	1673.5
971.263	1724.5
971.488	1721.5
971.713	1689.5
971.938	1721.5
972.163	1623.5
972.388	1671.5
972.613	1640.5
972.838	1675.5
973.062	1636.5
973.287	1642.5
973.512	1591.5
973.736	1617.5
973.961	1621.5
974.185	1600.5
974.41	1627.5
974.634	1533.5
974.858	1553.5
975.083	1603.5
975.307	1636.5
975.531	1556.5
975.755	1508.5
975.98	1528.5
976.204	1477.5
976.428	1483.5
976.652	1469.5
976.876	1441.5
977.1	1503.5
977.324	1470.5
977.547	1489.5
977.771	1517.5
977.995	1481.5
978.219	1414.5
978.442	1542.5
978.666	1486.5
978.89	1482.5
979.113	1503.5
979.337	1461.5
979.56	1441.5
979.783	1514.5
980.007	1426.5
980.23	1472.5
980.453	1439.5
980.677	1449.5
980.9	1459.5
981.123	1364.5
981.346	1473.5
981.569	1422.5
981.792	1458.5
982.015	1386.5
982.238	1388.5
982.461	1403.5
982.684	1375.5
982.907	1377.5
983.129	1333.5
983.352	1411.5
983.575	1392.5
983.797	1379.5
984.02	1343.5
984.242	1344.5
984.465	1354.5
984.687	1370.5
984.91	1406.5
985.132	1379.5
985.354	1377.5
985.577	1353.5
985.799	1338.5
986.021	1282.5
986.243	1291.5
986.465	1324.5
986.687	1376.5
986.909	1406.5
987.131	1354.5
987.353	1296.5
987.575	1346.5
987.797	1303.5
988.019	1238.5
988.241	1326.5
988.462	1280.5
988.684	1322.5
988.906	1363.5
989.127	1370.5
989.349	1268.5
989.57	1303.5
989.792	1345.5
990.013	1362.5
990.234	1337.5
990.456	1362.5
990.677	1365.5
990.898	1304.5
991.119	1304.5
991.341	1341.5
991.562	1267.5
991.783	1276.5
992.004	1219.5
992.225	1205.5
992.446	1279.5
992.667	1183.5
992.887	1284.5
993.108	1171.5
993.329	1315.5
993.55	1257.5
993.77	1222.5
993.991	1213.5
994.212	1269.5
994.432	1222.5
994.653	1252.5
994.873	1255.5
995.093	1128.5
995.314	1175.5
995.534	1257.5
995.754	1253.5
995.975	1293.5
996.195	1161.5
996.415	1223.5
996.635	1209.5
996.855	1232.5
997.075	1199.5
997.295	1213.5
997.515	1181.5
997.735	1261.5
997.955	1228.5
998.174	1203.5
998.394	1171.5
998.614	1242.5
998.834	1189.5
999.053	1264.5
999.273	1225.5
999.492	1283.5
999.712	1199.5
999.931	1185.5
1000.151	1214.5
1000.37	1213.5
1000.589	1255.5
1000.809	1177.5
1001.028	1283.5
1001.247	1236.5
1001.466	1129.5
1001.685	1291.5
1001.904	1213.5
1002.123	1191.5
1002.342	1204.5
1002.561	1184.5
1002.78	1202.5
1002.999	1250.5
1003.218	1173.5
1003.436	1156.5
1003.655	1227.5
1003.874	1165.5
1004.092	1203.5
1004.311	1246.5
1004.53	1200.5
1004.748	1274.5
1004.966	1200.5
1005.185	1256.5
1005.403	1273.5
1005.622	1204.5
1005.84	1282.5
1006.058	1199.5
1006.276	1215.5
1006.494	1723.5
1006.712	1227.5
1006.931	1280.5
1007.149	1185.5
1007.367	1204.5
1007.584	1232.5
1007.802	1255.5
1008.02	1220.5
1008.238	1332.5
1008.456	1291.5
1008.673	1205.5
1008.891	1306.5
1009.109	1253.5
1009.326	1316.5
1009.544	1407.5
1009.761	1302.5
1009.979	1416.5
1010.196	1434.5
1010.413	1544.5
1010.631	1593.5
1010.848	1588.5
1011.065	1598.5
1011.282	1572.5
1011.5	1486.5
1011.717	1613.5
1011.934	1555.5
1012.151	1559.5
1012.368	1549.5
1012.585	1501.5
1012.801	1523.5
1013.018	1526.5
1013.235	1508.5
1013.452	1523.5
1013.669	1532.5
1013.885	1513.5
1014.102	1530.5
1014.318	1509.5
1014.535	1512.5
1014.751	1497.5
1014.968	1526.5
1015.184	1548.5
1015.401	1422.5
1015.617	1475.5
1015.833	1415.5
1016.049	1454.5
1016.266	1426.5
1016.482	1426.5
1016.698	1340.5
1016.914	1366.5
1017.13	1345.5
1017.346	1323.5
1017.562	1368.5
1017.778	1353.5
1017.993	1274.5
1018.209	1349.5
1018.425	1338.5
1018.641	1278.5
1018.856	1278.5
1019.072	1278.5
1019.288	1331.5
1019.503	1304.5
1019.719	1217.5
1019.934	1207.5
1020.149	1296.5
1020.365	1228.5
1020.58	1178.5
1020.795	1240.5
1021.011	1167.5
1021.226	1131.5
1021.441	1181.5
1021.656	1106.5
1021.871	1036.5
1022.086	1056.5
1022.301	1045.5
1022.516	1035.5
1022.731	1113.5
1022.946	988.5
1023.16	998.5
1023.375	947.5
1023.59	938.5
1023.804	926.5
1024.019	1010.5
1024.234	861.5
1024.448	926.5
1024.663	865.5
1024.877	871.5
1025.092	883.5
1025.306	893.5
1025.52	784.5
1025.734	871.5
1025.949	798.5
1026.163	779.5
1026.377	702.5
1026.591	786.5
1026.805	699.5
1027.019	709.5
1027.233	679.5
1027.447	634.5
1027.661	722.5
1027.875	677.5
1028.088	683.5
1028.302	603.5
1028.516	614.5
1028.73	598.5
1028.943	607.5
1029.157	568.5
1029.37	526.5
1029.584	1.5
1029.797	-6.5
1030.011	-0.5
1030.224	-0.5
