Data from QEP037381__12__11-22-55-593.txt Node

Date: Wed Dec 21 11:22:55 EST 2022
User: dcclab
Spectrometer: QEP03738
Trigger mode: 4
Integration Time (sec): 1.000000E1
Scans to average: 1
Electric dark correction enabled: true
Nonlinearity correction enabled: false
Boxcar width: 0
XAxis mode: Wavelengths
Number of Pixels in Spectrum: 1044
>>>>>Begin Spectral Data<<<<<
784.041	13.62
784.3	-0.38
784.558	-0.38
784.817	-4.38
785.075	41328.62
785.334	8480.62
785.592	4469.62
785.851	3217.62
786.109	2423.62
786.368	1926.62
786.626	1586.62
786.884	1353.62
787.143	1151.62
787.401	961.62
787.659	906.62
787.917	805.62
788.175	764.62
788.433	679.62
788.691	631.62
788.949	596.62
789.207	572.62
789.465	489.62
789.723	476.62
789.98	458.62
790.238	521.62
790.496	480.62
790.753	466.62
791.011	515.62
791.268	461.62
791.526	453.62
791.783	469.62
792.041	464.62
792.298	378.62
792.556	446.62
792.813	436.62
793.07	408.62
793.327	391.62
793.584	478.62
793.841	392.62
794.099	438.62
794.356	492.62
794.613	389.62
794.869	431.62
795.126	387.62
795.383	368.62
795.64	410.62
795.897	360.62
796.153	423.62
796.41	412.62
796.667	387.62
796.923	401.62
797.18	389.62
797.436	434.62
797.693	392.62
797.949	430.62
798.206	464.62
798.462	396.62
798.718	459.62
798.974	421.62
799.231	453.62
799.487	452.62
799.743	460.62
799.999	478.62
800.255	487.62
800.511	462.62
800.767	512.62
801.023	511.62
801.279	530.62
801.534	572.62
801.79	604.62
802.046	623.62
802.302	763.62
802.557	878.62
802.813	1066.62
803.068	1326.62
803.324	1852.62
803.579	2461.62
803.835	3405.62
804.09	4625.62
804.345	6064.62
804.601	7598.62
804.856	9294.62
805.111	10717.62
805.366	11891.62
805.621	12732.62
805.876	13363.62
806.131	13681.62
806.386	14002.62
806.641	14232.62
806.896	14533.62
807.151	14780.62
807.406	15040.62
807.661	15298.62
807.915	15611.62
808.17	15885.62
808.425	16013.62
808.679	16115.62
808.934	16500.62
809.188	16517.62
809.443	16763.62
809.697	16963.62
809.951	17075.62
810.206	17282.62
810.46	17479.62
810.714	17510.62
810.968	17688.62
811.223	17847.62
811.477	18011.62
811.731	18202.62
811.985	18224.62
812.239	18360.62
812.493	18603.62
812.747	18557.62
813	18530.62
813.254	18753.62
813.508	18888.62
813.762	18903.62
814.015	19000.62
814.269	19263.62
814.522	19380.62
814.776	19535.62
815.03	19800.62
815.283	20146.62
815.536	20458.62
815.79	20818.62
816.043	21063.62
816.296	21439.62
816.55	21656.62
816.803	21994.62
817.056	22342.62
817.309	22412.62
817.562	22752.62
817.815	23044.62
818.068	23201.62
818.321	23364.62
818.574	23691.62
818.827	24034.62
819.079	24195.62
819.332	24581.62
819.585	25026.62
819.838	25347.62
820.09	25424.62
820.343	25692.62
820.595	25788.62
820.848	26097.62
821.1	26036.62
821.353	25981.62
821.605	26057.62
821.857	26249.62
822.11	26091.62
822.362	26014.62
822.614	25773.62
822.866	25815.62
823.118	25844.62
823.37	25976.62
823.622	26085.62
823.874	26185.62
824.126	26287.62
824.378	26245.62
824.63	26342.62
824.882	26504.62
825.134	26471.62
825.385	26480.62
825.637	26360.62
825.888	26218.62
826.14	26292.62
826.392	26094.62
826.643	26102.62
826.895	25980.62
827.146	26028.62
827.397	25862.62
827.649	25963.62
827.9	25882.62
828.151	25875.62
828.402	26010.62
828.653	26072.62
828.905	26139.62
829.156	26202.62
829.407	26151.62
829.658	26298.62
829.909	26244.62
830.159	26186.62
830.41	25963.62
830.661	25973.62
830.912	25766.62
831.162	25706.62
831.413	25553.62
831.664	25642.62
831.914	25565.62
832.165	25572.62
832.415	25645.62
832.666	25603.62
832.916	25732.62
833.167	25585.62
833.417	25552.62
833.667	25638.62
833.917	25445.62
834.168	25397.62
834.418	25361.62
834.668	25138.62
834.918	25179.62
835.168	25134.62
835.418	24941.62
835.668	24937.62
835.918	24893.62
836.167	24778.62
836.417	24772.62
836.667	24829.62
836.917	24728.62
837.166	24644.62
837.416	24706.62
837.666	24728.62
837.915	24587.62
838.165	24534.62
838.414	24484.62
838.663	24537.62
838.913	24417.62
839.162	24396.62
839.411	24389.62
839.661	24312.62
839.91	24267.62
840.159	24181.62
840.408	24218.62
840.657	24190.62
840.906	24156.62
841.155	24252.62
841.404	24266.62
841.653	24313.62
841.902	24240.62
842.15	24370.62
842.399	24352.62
842.648	24385.62
842.897	24152.62
843.145	24041.62
843.394	23875.62
843.642	23800.62
843.891	23623.62
844.139	23589.62
844.388	23496.62
844.636	23315.62
844.884	23329.62
845.133	23280.62
845.381	23332.62
845.629	23257.62
845.877	23131.62
846.125	23215.62
846.373	23106.62
846.621	23110.62
846.869	23139.62
847.117	22953.62
847.365	22890.62
847.613	22714.62
847.861	22653.62
848.108	22713.62
848.356	22680.62
848.604	22544.62
848.851	22663.62
849.099	22633.62
849.346	22634.62
849.594	22890.62
849.841	23013.62
850.089	23010.62
850.336	23136.62
850.583	23182.62
850.831	23007.62
851.078	22820.62
851.325	22647.62
851.572	22535.62
851.819	22363.62
852.066	22007.62
852.313	21781.62
852.56	21710.62
852.807	21596.62
853.054	21505.62
853.301	21498.62
853.548	21502.62
853.794	21623.62
854.041	21694.62
854.288	21726.62
854.534	21970.62
854.781	22026.62
855.028	21858.62
855.274	21776.62
855.52	21691.62
855.767	21651.62
856.013	21664.62
856.26	21777.62
856.506	21421.62
856.752	21282.62
856.998	21520.62
857.244	21479.62
857.49	21581.62
857.736	21637.62
857.982	21592.62
858.228	21514.62
858.474	21401.62
858.72	21209.62
858.966	21040.62
859.212	21019.62
859.458	20760.62
859.703	20511.62
859.949	20295.62
860.195	20401.62
860.44	20059.62
860.686	19980.62
860.931	20075.62
861.177	19920.62
861.422	19883.62
861.667	19789.62
861.913	19840.62
862.158	19938.62
862.403	19944.62
862.648	19872.62
862.893	20009.62
863.138	20008.62
863.384	19837.62
863.629	19979.62
863.873	19930.62
864.118	19822.62
864.363	19674.62
864.608	19639.62
864.853	19524.62
865.098	19553.62
865.342	19437.62
865.587	19353.62
865.832	19393.62
866.076	19357.62
866.321	19257.62
866.565	19106.62
866.81	18996.62
867.054	19084.62
867.298	19017.62
867.543	18993.62
867.787	18926.62
868.031	18820.62
868.275	18810.62
868.519	18727.62
868.764	18668.62
869.008	18650.62
869.252	18614.62
869.496	18563.62
869.739	18573.62
869.983	18600.62
870.227	18515.62
870.471	18583.62
870.715	18593.62
870.958	18576.62
871.202	18604.62
871.446	18567.62
871.689	18678.62
871.933	18651.62
872.176	18620.62
872.42	18620.62
872.663	18631.62
872.906	18590.62
873.15	18405.62
873.393	18342.62
873.636	18380.62
873.879	18144.62
874.122	18009.62
874.366	17715.62
874.609	17614.62
874.852	17550.62
875.095	17439.62
875.337	17375.62
875.58	17221.62
875.823	17227.62
876.066	17223.62
876.309	17288.62
876.551	17037.62
876.794	16941.62
877.037	16970.62
877.279	16855.62
877.522	16841.62
877.764	16912.62
878.007	16916.62
878.249	16966.62
878.491	16930.62
878.734	16883.62
878.976	16801.62
879.218	16716.62
879.46	16650.62
879.702	16600.62
879.945	16432.62
880.187	16325.62
880.429	16303.62
880.671	16218.62
880.912	16035.62
881.154	16077.62
881.396	16029.62
881.638	15989.62
881.88	16040.62
882.121	15884.62
882.363	15858.62
882.605	15897.62
882.846	15787.62
883.088	15817.62
883.329	15771.62
883.571	15757.62
883.812	15844.62
884.053	16035.62
884.295	16240.62
884.536	16216.62
884.777	16090.62
885.018	15993.62
885.259	15935.62
885.5	15914.62
885.742	16089.62
885.982	15937.62
886.223	15862.62
886.464	15647.62
886.705	15549.62
886.946	15530.62
887.187	15354.62
887.428	15274.62
887.668	15044.62
887.909	14985.62
888.15	14672.62
888.39	14774.62
888.631	14669.62
888.871	14551.62
889.111	14360.62
889.352	14376.62
889.592	14234.62
889.833	14117.62
890.073	14066.62
890.313	14061.62
890.553	13836.62
890.793	13807.62
891.033	13712.62
891.273	13586.62
891.513	13673.62
891.753	13673.62
891.993	13687.62
892.233	13672.62
892.473	13726.62
892.713	13679.62
892.952	13690.62
893.192	13635.62
893.432	13627.62
893.671	13653.62
893.911	13546.62
894.15	13444.62
894.39	13448.62
894.629	13356.62
894.869	13308.62
895.108	13136.62
895.347	13227.62
895.587	13077.62
895.826	12999.62
896.065	12951.62
896.304	13086.62
896.543	13038.62
896.782	12917.62
897.021	12945.62
897.26	12861.62
897.499	12955.62
897.738	12811.62
897.977	12669.62
898.216	12691.62
898.454	12574.62
898.693	12464.62
898.932	12435.62
899.17	12323.62
899.409	12249.62
899.647	12305.62
899.886	12226.62
900.124	12293.62
900.363	12271.62
900.601	12308.62
900.839	12295.62
901.078	12353.62
901.316	12334.62
901.554	12353.62
901.792	12357.62
902.03	12233.62
902.268	12326.62
902.506	12214.62
902.744	12107.62
902.982	12113.62
903.22	11989.62
903.458	11786.62
903.695	11709.62
903.933	11556.62
904.171	11443.62
904.409	11301.62
904.646	11157.62
904.884	11065.62
905.121	10986.62
905.359	10893.62
905.596	10689.62
905.833	10632.62
906.071	10647.62
906.308	10656.62
906.545	10573.62
906.783	10448.62
907.02	10471.62
907.257	10421.62
907.494	10385.62
907.731	10360.62
907.968	10324.62
908.205	10273.62
908.442	10224.62
908.679	10204.62
908.915	10039.62
909.152	10006.62
909.389	9841.62
909.626	9867.62
909.862	9767.62
910.099	9827.62
910.335	9782.62
910.572	9682.62
910.808	9693.62
911.045	9593.62
911.281	9524.62
911.518	9610.62
911.754	9531.62
911.99	9459.62
912.226	9379.62
912.463	9337.62
912.699	9280.62
912.935	9173.62
913.171	9117.62
913.407	8991.62
913.643	8984.62
913.879	8914.62
914.114	8827.62
914.35	8724.62
914.586	8727.62
914.822	8640.62
915.057	8629.62
915.293	8471.62
915.529	8417.62
915.764	8457.62
916	8450.62
916.235	8369.62
916.471	8416.62
916.706	8323.62
916.941	8351.62
917.177	8287.62
917.412	8344.62
917.647	8306.62
917.882	8267.62
918.117	8272.62
918.352	8255.62
918.588	8210.62
918.823	8131.62
919.057	8106.62
919.292	7930.62
919.527	8051.62
919.762	7893.62
919.997	7850.62
920.232	7657.62
920.466	7712.62
920.701	7513.62
920.935	7529.62
921.17	7492.62
921.405	7411.62
921.639	7475.62
921.873	7343.62
922.108	7336.62
922.342	7379.62
922.576	7245.62
922.811	7253.62
923.045	7296.62
923.279	7260.62
923.513	7066.62
923.747	7169.62
923.981	7130.62
924.215	6973.62
924.449	7003.62
924.683	6929.62
924.917	6972.62
925.151	6934.62
925.385	6923.62
925.618	6854.62
925.852	6852.62
926.086	6793.62
926.319	6779.62
926.553	6808.62
926.786	6797.62
927.02	6761.62
927.253	6847.62
927.486	6778.62
927.72	6680.62
927.953	6762.62
928.186	6743.62
928.42	6701.62
928.653	6604.62
928.886	6618.62
929.119	6599.62
929.352	6532.62
929.585	6539.62
929.818	6423.62
930.051	6444.62
930.284	6399.62
930.516	6290.62
930.749	6259.62
930.982	6329.62
931.215	6214.62
931.447	6167.62
931.68	6212.62
931.912	6164.62
932.145	6126.62
932.377	6146.62
932.61	6239.62
932.842	6081.62
933.074	6159.62
933.307	6048.62
933.539	6216.62
933.771	6124.62
934.003	6048.62
934.236	6149.62
934.468	6156.62
934.7	6015.62
934.932	6051.62
935.164	5986.62
935.395	5942.62
935.627	5980.62
935.859	6005.62
936.091	5924.62
936.323	5964.62
936.554	5940.62
936.786	5874.62
937.017	5868.62
937.249	5867.62
937.481	5784.62
937.712	5767.62
937.943	5797.62
938.175	5783.62
938.406	5757.62
938.637	5787.62
938.869	5655.62
939.1	5756.62
939.331	5685.62
939.562	5655.62
939.793	5685.62
940.024	5599.62
940.255	5654.62
940.486	5614.62
940.717	5568.62
940.948	5531.62
941.179	5478.62
941.409	5507.62
941.64	5455.62
941.871	5538.62
942.102	5438.62
942.332	5469.62
942.563	5510.62
942.793	5456.62
943.024	5456.62
943.254	5445.62
943.484	5507.62
943.715	5477.62
943.945	5422.62
944.175	5390.62
944.405	5347.62
944.636	5354.62
944.866	5399.62
945.096	5388.62
945.326	5351.62
945.556	5391.62
945.786	5328.62
946.016	5238.62
946.245	5226.62
946.475	5234.62
946.705	5152.62
946.935	5166.62
947.164	5129.62
947.394	5115.62
947.624	5023.62
947.853	5115.62
948.083	5079.62
948.312	5013.62
948.542	4953.62
948.771	4891.62
949	4948.62
949.23	4935.62
949.459	4936.62
949.688	4991.62
949.917	4901.62
950.146	4930.62
950.375	5000.62
950.604	4811.62
950.833	4930.62
951.062	4956.62
951.291	4860.62
951.52	4787.62
951.749	4856.62
951.978	4777.62
952.206	4831.62
952.435	4787.62
952.664	4795.62
952.892	4753.62
953.121	4785.62
953.349	4772.62
953.578	4725.62
953.806	4653.62
954.035	4669.62
954.263	4639.62
954.491	4575.62
954.719	4623.62
954.948	4594.62
955.176	4528.62
955.404	4474.62
955.632	4494.62
955.86	4562.62
956.088	4476.62
956.316	4452.62
956.544	4501.62
956.772	4366.62
956.999	4369.62
957.227	4428.62
957.455	4359.62
957.683	4314.62
957.91	4296.62
958.138	4248.62
958.365	4298.62
958.593	4222.62
958.82	4187.62
959.048	4232.62
959.275	4158.62
959.502	4118.62
959.73	4133.62
959.957	4199.62
960.184	4145.62
960.411	4099.62
960.638	4195.62
960.865	4136.62
961.092	4176.62
961.319	4015.62
961.546	4157.62
961.773	4164.62
962	4044.62
962.227	4099.62
962.454	4051.62
962.68	4031.62
962.907	4031.62
963.134	3976.62
963.36	4016.62
963.587	3978.62
963.813	3963.62
964.04	3939.62
964.266	3869.62
964.493	3956.62
964.719	3923.62
964.945	3875.62
965.171	3777.62
965.398	3809.62
965.624	3826.62
965.85	3765.62
966.076	3771.62
966.302	3758.62
966.528	3692.62
966.754	3733.62
966.98	3708.62
967.206	3671.62
967.431	3580.62
967.657	3706.62
967.883	3640.62
968.109	3650.62
968.334	3582.62
968.56	3582.62
968.785	3570.62
969.011	3591.62
969.236	3647.62
969.462	3493.62
969.687	3565.62
969.912	3616.62
970.138	3545.62
970.363	3476.62
970.588	3510.62
970.813	3468.62
971.038	3469.62
971.263	3499.62
971.488	3473.62
971.713	3493.62
971.938	3490.62
972.163	3384.62
972.388	3384.62
972.613	3363.62
972.838	3341.62
973.062	3314.62
973.287	3326.62
973.512	3280.62
973.736	3276.62
973.961	3266.62
974.185	3229.62
974.41	3285.62
974.634	3169.62
974.858	3174.62
975.083	3207.62
975.307	3232.62
975.531	3134.62
975.755	3057.62
975.98	3113.62
976.204	3006.62
976.428	3048.62
976.652	3001.62
976.876	2956.62
977.1	3022.62
977.324	2948.62
977.547	3010.62
977.771	3039.62
977.995	2988.62
978.219	2900.62
978.442	3008.62
978.666	2949.62
978.89	2942.62
979.113	2947.62
979.337	2917.62
979.56	2902.62
979.783	2925.62
980.007	2845.62
980.23	2881.62
980.453	2823.62
980.677	2860.62
980.9	2854.62
981.123	2747.62
981.346	2868.62
981.569	2829.62
981.792	2854.62
982.015	2761.62
982.238	2715.62
982.461	2742.62
982.684	2649.62
982.907	2709.62
983.129	2645.62
983.352	2676.62
983.575	2653.62
983.797	2679.62
984.02	2625.62
984.242	2636.62
984.465	2619.62
984.687	2646.62
984.91	2649.62
985.132	2603.62
985.354	2631.62
985.577	2563.62
985.799	2559.62
986.021	2466.62
986.243	2483.62
986.465	2524.62
986.687	2552.62
986.909	2561.62
987.131	2522.62
987.353	2490.62
987.575	2517.62
987.797	2450.62
988.019	2391.62
988.241	2459.62
988.462	2394.62
988.684	2464.62
988.906	2487.62
989.127	2486.62
989.349	2362.62
989.57	2413.62
989.792	2461.62
990.013	2416.62
990.234	2460.62
990.456	2479.62
990.677	2419.62
990.898	2375.62
991.119	2376.62
991.341	2404.62
991.562	2324.62
991.783	2341.62
992.004	2278.62
992.225	2205.62
992.446	2287.62
992.667	2200.62
992.887	2300.62
993.108	2181.62
993.329	2279.62
993.55	2284.62
993.77	2172.62
993.991	2165.62
994.212	2206.62
994.432	2166.62
994.653	2168.62
994.873	2192.62
995.093	2055.62
995.314	2102.62
995.534	2144.62
995.754	2161.62
995.975	2181.62
996.195	2088.62
996.415	2105.62
996.635	2086.62
996.855	2103.62
997.075	2076.62
997.295	2096.62
997.515	2078.62
997.735	2099.62
997.955	2079.62
998.174	2023.62
998.394	2006.62
998.614	2060.62
998.834	2038.62
999.053	2070.62
999.273	2047.62
999.492	2095.62
999.712	2031.62
999.931	1983.62
1000.151	2014.62
1000.37	1995.62
1000.589	2036.62
1000.809	1958.62
1001.028	2061.62
1001.247	2026.62
1001.466	1913.62
1001.685	2045.62
1001.904	1964.62
1002.123	1943.62
1002.342	1972.62
1002.561	1898.62
1002.78	1925.62
1002.999	1982.62
1003.218	1915.62
1003.436	1900.62
1003.655	1929.62
1003.874	1895.62
1004.092	1876.62
1004.311	1903.62
1004.53	1885.62
1004.748	1944.62
1004.966	1853.62
1005.185	1907.62
1005.403	1905.62
1005.622	1863.62
1005.84	1948.62
1006.058	1868.62
1006.276	1864.62
1006.494	2348.62
1006.712	1863.62
1006.931	1872.62
1007.149	1822.62
1007.367	1798.62
1007.584	1868.62
1007.802	1895.62
1008.02	1835.62
1008.238	1886.62
1008.456	1914.62
1008.673	1788.62
1008.891	1894.62
1009.109	1859.62
1009.326	1874.62
1009.544	1972.62
1009.761	1861.62
1009.979	1949.62
1010.196	1967.62
1010.413	2090.62
1010.631	2081.62
1010.848	2122.62
1011.065	2093.62
1011.282	2046.62
1011.5	2008.62
1011.717	2111.62
1011.934	2044.62
1012.151	2038.62
1012.368	2031.62
1012.585	1985.62
1012.801	2029.62
1013.018	1990.62
1013.235	1940.62
1013.452	1973.62
1013.669	1949.62
1013.885	1937.62
1014.102	2005.62
1014.318	1944.62
1014.535	1921.62
1014.751	1919.62
1014.968	1920.62
1015.184	1973.62
1015.401	1861.62
1015.617	1862.62
1015.833	1819.62
1016.049	1828.62
1016.266	1822.62
1016.482	1797.62
1016.698	1733.62
1016.914	1787.62
1017.13	1701.62
1017.346	1723.62
1017.562	1762.62
1017.778	1703.62
1017.993	1690.62
1018.209	1736.62
1018.425	1708.62
1018.641	1703.62
1018.856	1615.62
1019.072	1685.62
1019.288	1710.62
1019.503	1667.62
1019.719	1603.62
1019.934	1581.62
1020.149	1674.62
1020.365	1605.62
1020.58	1543.62
1020.795	1580.62
1021.011	1519.62
1021.226	1493.62
1021.441	1543.62
1021.656	1451.62
1021.871	1406.62
1022.086	1396.62
1022.301	1392.62
1022.516	1390.62
1022.731	1417.62
1022.946	1322.62
1023.16	1336.62
1023.375	1291.62
1023.59	1233.62
1023.804	1216.62
1024.019	1341.62
1024.234	1206.62
1024.448	1233.62
1024.663	1131.62
1024.877	1161.62
1025.092	1179.62
1025.306	1173.62
1025.52	1110.62
1025.734	1179.62
1025.949	1089.62
1026.163	1050.62
1026.377	1020.62
1026.591	1054.62
1026.805	951.62
1027.019	958.62
1027.233	939.62
1027.447	881.62
1027.661	971.62
1027.875	916.62
1028.088	915.62
1028.302	826.62
1028.516	835.62
1028.73	824.62
1028.943	813.62
1029.157	771.62
1029.37	710.62
1029.584	0.62
1029.797	-3.38
1030.011	-4.38
1030.224	-1.38
