Data from QEP037381__93__11-36-25-597.txt Node

Date: Wed Dec 21 11:36:25 EST 2022
User: dcclab
Spectrometer: QEP03738
Trigger mode: 4
Integration Time (sec): 1.000000E1
Scans to average: 1
Electric dark correction enabled: true
Nonlinearity correction enabled: false
Boxcar width: 0
XAxis mode: Wavelengths
Number of Pixels in Spectrum: 1044
>>>>>Begin Spectral Data<<<<<
784.041	8.38
784.3	3.38
784.558	-3.62
784.817	-4.62
785.075	42684.38
785.334	8447.38
785.592	4357.38
785.851	3126.38
786.109	2410.38
786.368	1899.38
786.626	1581.38
786.884	1341.38
787.143	1131.38
787.401	937.38
787.659	880.38
787.917	767.38
788.175	755.38
788.433	652.38
788.691	601.38
788.949	562.38
789.207	545.38
789.465	471.38
789.723	485.38
789.98	431.38
790.238	486.38
790.496	464.38
790.753	440.38
791.011	490.38
791.268	443.38
791.526	420.38
791.783	452.38
792.041	436.38
792.298	360.38
792.556	418.38
792.813	423.38
793.07	388.38
793.327	372.38
793.584	453.38
793.841	382.38
794.099	403.38
794.356	451.38
794.613	356.38
794.869	398.38
795.126	365.38
795.383	339.38
795.64	363.38
795.897	328.38
796.153	387.38
796.41	366.38
796.667	348.38
796.923	360.38
797.18	355.38
797.436	395.38
797.693	355.38
797.949	380.38
798.206	420.38
798.462	334.38
798.718	393.38
798.974	372.38
799.231	408.38
799.487	407.38
799.743	409.38
799.999	414.38
800.255	404.38
800.511	400.38
800.767	423.38
801.023	393.38
801.279	417.38
801.534	427.38
801.79	461.38
802.046	451.38
802.302	562.38
802.557	577.38
802.813	661.38
803.068	722.38
803.324	968.38
803.579	1214.38
803.835	1617.38
804.09	2170.38
804.345	2718.38
804.601	3333.38
804.856	4046.38
805.111	4690.38
805.366	5097.38
805.621	5427.38
805.876	5674.38
806.131	5840.38
806.386	5879.38
806.641	5993.38
806.896	6074.38
807.151	6247.38
807.406	6294.38
807.661	6433.38
807.915	6541.38
808.17	6655.38
808.425	6718.38
808.679	6714.38
808.934	6905.38
809.188	6916.38
809.443	7031.38
809.697	7122.38
809.951	7036.38
810.206	7209.38
810.46	7199.38
810.714	7247.38
810.968	7397.38
811.223	7331.38
811.477	7446.38
811.731	7519.38
811.985	7458.38
812.239	7488.38
812.493	7562.38
812.747	7554.38
813	7606.38
813.254	7635.38
813.508	7765.38
813.762	7735.38
814.015	7708.38
814.269	7794.38
814.522	7825.38
814.776	7930.38
815.03	8041.38
815.283	8176.38
815.536	8285.38
815.79	8424.38
816.043	8471.38
816.296	8609.38
816.55	8716.38
816.803	8793.38
817.056	8955.38
817.309	9072.38
817.562	9163.38
817.815	9240.38
818.068	9241.38
818.321	9271.38
818.574	9407.38
818.827	9545.38
819.079	9664.38
819.332	9968.38
819.585	10019.38
819.838	10139.38
820.09	10095.38
820.343	10214.38
820.595	10103.38
820.848	10172.38
821.1	10214.38
821.353	10233.38
821.605	10233.38
821.857	10320.38
822.11	10121.38
822.362	10107.38
822.614	10127.38
822.866	10071.38
823.118	10035.38
823.37	10171.38
823.622	10110.38
823.874	10242.38
824.126	10199.38
824.378	10140.38
824.63	10199.38
824.882	10347.38
825.134	10204.38
825.385	10275.38
825.637	10161.38
825.888	10216.38
826.14	10084.38
826.392	10132.38
826.643	10026.38
826.895	9956.38
827.146	9918.38
827.397	9881.38
827.649	9974.38
827.9	9832.38
828.151	9862.38
828.402	9864.38
828.653	9976.38
828.905	9991.38
829.156	10083.38
829.407	9956.38
829.658	9986.38
829.909	10113.38
830.159	10054.38
830.41	9977.38
830.661	9970.38
830.912	9846.38
831.162	9786.38
831.413	9806.38
831.664	9872.38
831.914	9810.38
832.165	9860.38
832.415	9839.38
832.666	9796.38
832.916	9801.38
833.167	9785.38
833.417	9789.38
833.667	9701.38
833.917	9712.38
834.168	9731.38
834.418	9737.38
834.668	9582.38
834.918	9532.38
835.168	9542.38
835.418	9471.38
835.668	9416.38
835.918	9451.38
836.167	9431.38
836.417	9215.38
836.667	9337.38
836.917	9376.38
837.166	9418.38
837.416	9410.38
837.666	9395.38
837.915	9348.38
838.165	9330.38
838.414	9236.38
838.663	9261.38
838.913	9314.38
839.162	9246.38
839.411	9362.38
839.661	9186.38
839.91	9232.38
840.159	9184.38
840.408	9237.38
840.657	9248.38
840.906	9226.38
841.155	9227.38
841.404	9178.38
841.653	9226.38
841.902	9220.38
842.15	9258.38
842.399	9368.38
842.648	9231.38
842.897	9297.38
843.145	9145.38
843.394	9081.38
843.642	8923.38
843.891	8971.38
844.139	8855.38
844.388	8786.38
844.636	8754.38
844.884	8734.38
845.133	8741.38
845.381	8705.38
845.629	8765.38
845.877	8757.38
846.125	8703.38
846.373	8801.38
846.621	8674.38
846.869	8672.38
847.117	8646.38
847.365	8539.38
847.613	8438.38
847.861	8551.38
848.108	8568.38
848.356	8525.38
848.604	8517.38
848.851	8564.38
849.099	8586.38
849.346	8561.38
849.594	8643.38
849.841	8740.38
850.089	8756.38
850.336	8845.38
850.583	8932.38
850.831	8899.38
851.078	8767.38
851.325	8754.38
851.572	8692.38
851.819	8626.38
852.066	8333.38
852.313	8148.38
852.56	8069.38
852.807	8096.38
853.054	8024.38
853.301	8036.38
853.548	8021.38
853.794	8154.38
854.041	8204.38
854.288	8173.38
854.534	8271.38
854.781	8237.38
855.028	8259.38
855.274	8292.38
855.52	8245.38
855.767	8235.38
856.013	8327.38
856.26	8494.38
856.506	8082.38
856.752	8163.38
856.998	8140.38
857.244	8135.38
857.49	8307.38
857.736	8214.38
857.982	8188.38
858.228	8188.38
858.474	8031.38
858.72	8035.38
858.966	7939.38
859.212	7871.38
859.458	7756.38
859.703	7776.38
859.949	7603.38
860.195	7593.38
860.44	7541.38
860.686	7559.38
860.931	7580.38
861.177	7431.38
861.422	7345.38
861.667	7326.38
861.913	7332.38
862.158	7330.38
862.403	7368.38
862.648	7413.38
862.893	7404.38
863.138	7319.38
863.384	7297.38
863.629	7380.38
863.873	7296.38
864.118	7361.38
864.363	7312.38
864.608	7275.38
864.853	7270.38
865.098	7204.38
865.342	7135.38
865.587	7143.38
865.832	7241.38
866.076	7132.38
866.321	7097.38
866.565	7117.38
866.81	7037.38
867.054	7023.38
867.298	7054.38
867.543	6962.38
867.787	7022.38
868.031	6998.38
868.275	6981.38
868.519	7001.38
868.764	6969.38
869.008	6923.38
869.252	7002.38
869.496	6967.38
869.739	6930.38
869.983	6981.38
870.227	7017.38
870.471	6973.38
870.715	7078.38
870.958	7034.38
871.202	7052.38
871.446	7110.38
871.689	7049.38
871.933	7089.38
872.176	7095.38
872.42	7013.38
872.663	7023.38
872.906	7092.38
873.15	7051.38
873.393	7082.38
873.636	7096.38
873.879	7000.38
874.122	6907.38
874.366	6716.38
874.609	6767.38
874.852	6636.38
875.095	6572.38
875.337	6538.38
875.58	6491.38
875.823	6545.38
876.066	6521.38
876.309	6517.38
876.551	6368.38
876.794	6350.38
877.037	6356.38
877.279	6359.38
877.522	6325.38
877.764	6354.38
878.007	6233.38
878.249	6267.38
878.491	6223.38
878.734	6273.38
878.976	6279.38
879.218	6153.38
879.46	6152.38
879.702	6146.38
879.945	6052.38
880.187	5944.38
880.429	5999.38
880.671	5971.38
880.912	6011.38
881.154	5908.38
881.396	5840.38
881.638	5937.38
881.88	5913.38
882.121	5902.38
882.363	5842.38
882.605	5937.38
882.846	5972.38
883.088	5931.38
883.329	5947.38
883.571	6010.38
883.812	6089.38
884.053	6293.38
884.295	6521.38
884.536	6620.38
884.777	6461.38
885.018	6434.38
885.259	6383.38
885.5	6269.38
885.742	6509.38
885.982	6284.38
886.223	6148.38
886.464	6124.38
886.705	6036.38
886.946	5891.38
887.187	5757.38
887.428	5768.38
887.668	5586.38
887.909	5529.38
888.15	5464.38
888.39	5524.38
888.631	5457.38
888.871	5410.38
889.111	5302.38
889.352	5317.38
889.592	5161.38
889.833	5192.38
890.073	5128.38
890.313	5175.38
890.553	5047.38
890.793	5016.38
891.033	4975.38
891.273	4972.38
891.513	5025.38
891.753	5028.38
891.993	4999.38
892.233	5042.38
892.473	5107.38
892.713	5024.38
892.952	4990.38
893.192	5021.38
893.432	4998.38
893.671	4997.38
893.911	4984.38
894.15	4968.38
894.39	4888.38
894.629	4880.38
894.869	4901.38
895.108	4894.38
895.347	4867.38
895.587	4838.38
895.826	4803.38
896.065	4799.38
896.304	4783.38
896.543	4872.38
896.782	4736.38
897.021	4824.38
897.26	4844.38
897.499	4870.38
897.738	4855.38
897.977	4776.38
898.216	4791.38
898.454	4750.38
898.693	4707.38
898.932	4706.38
899.17	4677.38
899.409	4672.38
899.647	4728.38
899.886	4677.38
900.124	4714.38
900.363	4689.38
900.601	4766.38
900.839	4788.38
901.078	4779.38
901.316	4831.38
901.554	4859.38
901.792	4910.38
902.03	4883.38
902.268	4872.38
902.506	4917.38
902.744	4785.38
902.982	4775.38
903.22	4644.38
903.458	4600.38
903.695	4543.38
903.933	4444.38
904.171	4345.38
904.409	4241.38
904.646	4215.38
904.884	4132.38
905.121	4120.38
905.359	4099.38
905.596	4007.38
905.833	3939.38
906.071	3962.38
906.308	3946.38
906.545	3897.38
906.783	3838.38
907.02	3857.38
907.257	3820.38
907.494	3801.38
907.731	3802.38
907.968	3808.38
908.205	3719.38
908.442	3756.38
908.679	3768.38
908.915	3682.38
909.152	3697.38
909.389	3612.38
909.626	3617.38
909.862	3543.38
910.099	3589.38
910.335	3603.38
910.572	3486.38
910.808	3509.38
911.045	3504.38
911.281	3455.38
911.518	3530.38
911.754	3460.38
911.99	3427.38
912.226	3441.38
912.463	3346.38
912.699	3315.38
912.935	3333.38
913.171	3286.38
913.407	3272.38
913.643	3311.38
913.879	3245.38
914.114	3214.38
914.35	3143.38
914.586	3127.38
914.822	3106.38
915.057	3215.38
915.293	3054.38
915.529	3117.38
915.764	3075.38
916	3125.38
916.235	3089.38
916.471	3090.38
916.706	2996.38
916.941	3023.38
917.177	3050.38
917.412	3061.38
917.647	3056.38
917.882	2993.38
918.117	3039.38
918.352	3078.38
918.588	3029.38
918.823	2956.38
919.057	2934.38
919.292	2851.38
919.527	2930.38
919.762	2873.38
919.997	2872.38
920.232	2828.38
920.466	2856.38
920.701	2722.38
920.935	2806.38
921.17	2738.38
921.405	2722.38
921.639	2759.38
921.873	2728.38
922.108	2726.38
922.342	2752.38
922.576	2700.38
922.811	2632.38
923.045	2712.38
923.279	2727.38
923.513	2588.38
923.747	2648.38
923.981	2662.38
924.215	2631.38
924.449	2627.38
924.683	2548.38
924.917	2512.38
925.151	2564.38
925.385	2610.38
925.618	2564.38
925.852	2588.38
926.086	2470.38
926.319	2505.38
926.553	2503.38
926.786	2554.38
927.02	2491.38
927.253	2578.38
927.486	2559.38
927.72	2475.38
927.953	2571.38
928.186	2504.38
928.42	2535.38
928.653	2445.38
928.886	2466.38
929.119	2505.38
929.352	2460.38
929.585	2487.38
929.818	2441.38
930.051	2425.38
930.284	2431.38
930.516	2355.38
930.749	2361.38
930.982	2406.38
931.215	2392.38
931.447	2309.38
931.68	2328.38
931.912	2318.38
932.145	2313.38
932.377	2344.38
932.61	2459.38
932.842	2297.38
933.074	2350.38
933.307	2279.38
933.539	2382.38
933.771	2366.38
934.003	2297.38
934.236	2380.38
934.468	2399.38
934.7	2263.38
934.932	2330.38
935.164	2238.38
935.395	2252.38
935.627	2296.38
935.859	2308.38
936.091	2233.38
936.323	2291.38
936.554	2324.38
936.786	2262.38
937.017	2176.38
937.249	2267.38
937.481	2177.38
937.712	2256.38
937.943	2217.38
938.175	2214.38
938.406	2153.38
938.637	2270.38
938.869	2162.38
939.1	2262.38
939.331	2186.38
939.562	2188.38
939.793	2196.38
940.024	2215.38
940.255	2223.38
940.486	2165.38
940.717	2180.38
940.948	2167.38
941.179	2103.38
941.409	2118.38
941.64	2156.38
941.871	2111.38
942.102	2114.38
942.332	2121.38
942.563	2195.38
942.793	2133.38
943.024	2059.38
943.254	2129.38
943.484	2159.38
943.715	2159.38
943.945	2119.38
944.175	2090.38
944.405	2034.38
944.636	2043.38
944.866	2087.38
945.096	2093.38
945.326	2025.38
945.556	2112.38
945.786	2108.38
946.016	2055.38
946.245	2004.38
946.475	2016.38
946.705	2037.38
946.935	2030.38
947.164	2011.38
947.394	1963.38
947.624	1986.38
947.853	1994.38
948.083	1988.38
948.312	1939.38
948.542	1914.38
948.771	1900.38
949	1911.38
949.23	1914.38
949.459	1923.38
949.688	2011.38
949.917	1934.38
950.146	1947.38
950.375	1989.38
950.604	1904.38
950.833	1943.38
951.062	1976.38
951.291	1906.38
951.52	1890.38
951.749	1913.38
951.978	1847.38
952.206	1866.38
952.435	1889.38
952.664	1937.38
952.892	1929.38
953.121	1859.38
953.349	1905.38
953.578	1891.38
953.806	1847.38
954.035	1804.38
954.263	1847.38
954.491	1784.38
954.719	1813.38
954.948	1785.38
955.176	1768.38
955.404	1719.38
955.632	1801.38
955.86	1802.38
956.088	1773.38
956.316	1811.38
956.544	1811.38
956.772	1784.38
956.999	1737.38
957.227	1793.38
957.455	1718.38
957.683	1739.38
957.91	1693.38
958.138	1692.38
958.365	1693.38
958.593	1702.38
958.82	1656.38
959.048	1720.38
959.275	1689.38
959.502	1700.38
959.73	1667.38
959.957	1692.38
960.184	1710.38
960.411	1651.38
960.638	1722.38
960.865	1655.38
961.092	1672.38
961.319	1620.38
961.546	1684.38
961.773	1705.38
962	1633.38
962.227	1708.38
962.454	1651.38
962.68	1620.38
962.907	1640.38
963.134	1610.38
963.36	1636.38
963.587	1670.38
963.813	1614.38
964.04	1677.38
964.266	1552.38
964.493	1665.38
964.719	1626.38
964.945	1615.38
965.171	1547.38
965.398	1579.38
965.624	1612.38
965.85	1570.38
966.076	1545.38
966.302	1578.38
966.528	1537.38
966.754	1576.38
966.98	1555.38
967.206	1581.38
967.431	1501.38
967.657	1568.38
967.883	1569.38
968.109	1548.38
968.334	1512.38
968.56	1487.38
968.785	1515.38
969.011	1484.38
969.236	1518.38
969.462	1464.38
969.687	1476.38
969.912	1511.38
970.138	1559.38
970.363	1475.38
970.588	1494.38
970.813	1461.38
971.038	1465.38
971.263	1483.38
971.488	1512.38
971.713	1516.38
971.938	1491.38
972.163	1407.38
972.388	1441.38
972.613	1433.38
972.838	1417.38
973.062	1432.38
973.287	1436.38
973.512	1364.38
973.736	1400.38
973.961	1398.38
974.185	1399.38
974.41	1436.38
974.634	1338.38
974.858	1320.38
975.083	1406.38
975.307	1397.38
975.531	1355.38
975.755	1304.38
975.98	1331.38
976.204	1254.38
976.428	1257.38
976.652	1298.38
976.876	1248.38
977.1	1295.38
977.324	1246.38
977.547	1328.38
977.771	1330.38
977.995	1294.38
978.219	1263.38
978.442	1357.38
978.666	1313.38
978.89	1285.38
979.113	1285.38
979.337	1254.38
979.56	1221.38
979.783	1326.38
980.007	1231.38
980.23	1259.38
980.453	1239.38
980.677	1285.38
980.9	1263.38
981.123	1170.38
981.346	1253.38
981.569	1252.38
981.792	1295.38
982.015	1236.38
982.238	1208.38
982.461	1252.38
982.684	1198.38
982.907	1156.38
983.129	1184.38
983.352	1243.38
983.575	1221.38
983.797	1226.38
984.02	1189.38
984.242	1168.38
984.465	1187.38
984.687	1219.38
984.91	1240.38
985.132	1217.38
985.354	1242.38
985.577	1203.38
985.799	1209.38
986.021	1135.38
986.243	1142.38
986.465	1170.38
986.687	1218.38
986.909	1260.38
987.131	1188.38
987.353	1172.38
987.575	1195.38
987.797	1152.38
988.019	1075.38
988.241	1177.38
988.462	1126.38
988.684	1181.38
988.906	1214.38
989.127	1241.38
989.349	1127.38
989.57	1145.38
989.792	1231.38
990.013	1203.38
990.234	1212.38
990.456	1256.38
990.677	1221.38
990.898	1149.38
991.119	1161.38
991.341	1178.38
991.562	1131.38
991.783	1165.38
992.004	1106.38
992.225	1075.38
992.446	1151.38
992.667	1051.38
992.887	1154.38
993.108	1048.38
993.329	1179.38
993.55	1158.38
993.77	1093.38
993.991	1079.38
994.212	1135.38
994.432	1119.38
994.653	1135.38
994.873	1126.38
995.093	1026.38
995.314	1067.38
995.534	1115.38
995.754	1137.38
995.975	1173.38
996.195	1095.38
996.415	1118.38
996.635	1102.38
996.855	1132.38
997.075	1077.38
997.295	1091.38
997.515	1077.38
997.735	1147.38
997.955	1097.38
998.174	1096.38
998.394	1073.38
998.614	1137.38
998.834	1064.38
999.053	1160.38
999.273	1112.38
999.492	1174.38
999.712	1095.38
999.931	1108.38
1000.151	1123.38
1000.37	1104.38
1000.589	1156.38
1000.809	1079.38
1001.028	1217.38
1001.247	1133.38
1001.466	1030.38
1001.685	1163.38
1001.904	1115.38
1002.123	1111.38
1002.342	1098.38
1002.561	1080.38
1002.78	1110.38
1002.999	1172.38
1003.218	1126.38
1003.436	1084.38
1003.655	1143.38
1003.874	1089.38
1004.092	1111.38
1004.311	1145.38
1004.53	1125.38
1004.748	1195.38
1004.966	1099.38
1005.185	1164.38
1005.403	1143.38
1005.622	1134.38
1005.84	1204.38
1006.058	1117.38
1006.276	1143.38
1006.494	1640.38
1006.712	1139.38
1006.931	1200.38
1007.149	1111.38
1007.367	1104.38
1007.584	1158.38
1007.802	1217.38
1008.02	1148.38
1008.238	1250.38
1008.456	1240.38
1008.673	1121.38
1008.891	1230.38
1009.109	1193.38
1009.326	1232.38
1009.544	1368.38
1009.761	1231.38
1009.979	1342.38
1010.196	1345.38
1010.413	1468.38
1010.631	1517.38
1010.848	1528.38
1011.065	1492.38
1011.282	1492.38
1011.5	1415.38
1011.717	1498.38
1011.934	1473.38
1012.151	1512.38
1012.368	1481.38
1012.585	1436.38
1012.801	1476.38
1013.018	1457.38
1013.235	1404.38
1013.452	1443.38
1013.669	1463.38
1013.885	1469.38
1014.102	1493.38
1014.318	1459.38
1014.535	1410.38
1014.751	1456.38
1014.968	1444.38
1015.184	1491.38
1015.401	1387.38
1015.617	1410.38
1015.833	1357.38
1016.049	1365.38
1016.266	1340.38
1016.482	1371.38
1016.698	1291.38
1016.914	1350.38
1017.13	1301.38
1017.346	1297.38
1017.562	1354.38
1017.778	1297.38
1017.993	1236.38
1018.209	1314.38
1018.425	1279.38
1018.641	1241.38
1018.856	1250.38
1019.072	1265.38
1019.288	1303.38
1019.503	1252.38
1019.719	1169.38
1019.934	1212.38
1020.149	1282.38
1020.365	1210.38
1020.58	1160.38
1020.795	1210.38
1021.011	1146.38
1021.226	1125.38
1021.441	1155.38
1021.656	1075.38
1021.871	1017.38
1022.086	1040.38
1022.301	1019.38
1022.516	1002.38
1022.731	1076.38
1022.946	979.38
1023.16	963.38
1023.375	939.38
1023.59	945.38
1023.804	896.38
1024.019	981.38
1024.234	853.38
1024.448	900.38
1024.663	822.38
1024.877	862.38
1025.092	859.38
1025.306	878.38
1025.52	784.38
1025.734	864.38
1025.949	792.38
1026.163	768.38
1026.377	715.38
1026.591	759.38
1026.805	710.38
1027.019	701.38
1027.233	665.38
1027.447	627.38
1027.661	735.38
1027.875	674.38
1028.088	679.38
1028.302	599.38
1028.516	605.38
1028.73	602.38
1028.943	604.38
1029.157	560.38
1029.37	521.38
1029.584	-2.62
1029.797	2.38
1030.011	-0.62
1030.224	-2.62
