Data from QEP037381__82__11-34-35-596.txt Node

Date: Wed Dec 21 11:34:35 EST 2022
User: dcclab
Spectrometer: QEP03738
Trigger mode: 4
Integration Time (sec): 1.000000E1
Scans to average: 1
Electric dark correction enabled: true
Nonlinearity correction enabled: false
Boxcar width: 0
XAxis mode: Wavelengths
Number of Pixels in Spectrum: 1044
>>>>>Begin Spectral Data<<<<<
784.041	9.62
784.3	-0.38
784.558	-3.38
784.817	-4.38
785.075	42472.62
785.334	8526.62
785.592	4474.62
785.851	3182.62
786.109	2430.62
786.368	1941.62
786.626	1626.62
786.884	1342.62
787.143	1157.62
787.401	966.62
787.659	923.62
787.917	764.62
788.175	758.62
788.433	650.62
788.691	603.62
788.949	587.62
789.207	569.62
789.465	489.62
789.723	482.62
789.98	455.62
790.238	507.62
790.496	463.62
790.753	441.62
791.011	494.62
791.268	426.62
791.526	432.62
791.783	448.62
792.041	437.62
792.298	360.62
792.556	415.62
792.813	427.62
793.07	393.62
793.327	372.62
793.584	470.62
793.841	384.62
794.099	399.62
794.356	464.62
794.613	363.62
794.869	426.62
795.126	375.62
795.383	357.62
795.64	369.62
795.897	335.62
796.153	399.62
796.41	381.62
796.667	365.62
796.923	363.62
797.18	374.62
797.436	399.62
797.693	364.62
797.949	411.62
798.206	437.62
798.462	352.62
798.718	411.62
798.974	375.62
799.231	427.62
799.487	409.62
799.743	409.62
799.999	426.62
800.255	424.62
800.511	408.62
800.767	433.62
801.023	422.62
801.279	446.62
801.534	478.62
801.79	478.62
802.046	501.62
802.302	571.62
802.557	618.62
802.813	756.62
803.068	849.62
803.324	1124.62
803.579	1483.62
803.835	1964.62
804.09	2690.62
804.345	3426.62
804.601	4291.62
804.856	5196.62
805.111	5945.62
805.366	6571.62
805.621	6982.62
805.876	7332.62
806.131	7530.62
806.386	7620.62
806.641	7760.62
806.896	7858.62
807.151	8084.62
807.406	8174.62
807.661	8316.62
807.915	8479.62
808.17	8687.62
808.425	8755.62
808.679	8776.62
808.934	8899.62
809.188	8996.62
809.443	9112.62
809.697	9159.62
809.951	9218.62
810.206	9350.62
810.46	9440.62
810.714	9535.62
810.968	9587.62
811.223	9664.62
811.477	9774.62
811.731	9842.62
811.985	9809.62
812.239	9793.62
812.493	9906.62
812.747	10001.62
813	10021.62
813.254	10077.62
813.508	10091.62
813.762	10157.62
814.015	10169.62
814.269	10290.62
814.522	10312.62
814.776	10463.62
815.03	10619.62
815.283	10681.62
815.536	10974.62
815.79	11175.62
816.043	11292.62
816.296	11361.62
816.55	11541.62
816.803	11637.62
817.056	11895.62
817.309	11974.62
817.562	12043.62
817.815	12181.62
818.068	12267.62
818.321	12387.62
818.574	12517.62
818.827	12699.62
819.079	12822.62
819.332	13128.62
819.585	13205.62
819.838	13482.62
820.09	13509.62
820.343	13574.62
820.595	13527.62
820.848	13662.62
821.1	13817.62
821.353	13687.62
821.605	13731.62
821.857	13720.62
822.11	13587.62
822.362	13586.62
822.614	13515.62
822.866	13627.62
823.118	13598.62
823.37	13629.62
823.622	13644.62
823.874	13689.62
824.126	13777.62
824.378	13671.62
824.63	13745.62
824.882	13854.62
825.134	13715.62
825.385	13788.62
825.637	13768.62
825.888	13642.62
826.14	13713.62
826.392	13554.62
826.643	13511.62
826.895	13540.62
827.146	13470.62
827.397	13490.62
827.649	13446.62
827.9	13395.62
828.151	13335.62
828.402	13446.62
828.653	13391.62
828.905	13474.62
829.156	13566.62
829.407	13544.62
829.658	13554.62
829.909	13556.62
830.159	13567.62
830.41	13555.62
830.661	13397.62
830.912	13292.62
831.162	13296.62
831.413	13261.62
831.664	13307.62
831.914	13290.62
832.165	13232.62
832.415	13187.62
832.666	13179.62
832.916	13293.62
833.167	13268.62
833.417	13180.62
833.667	13177.62
833.917	13137.62
834.168	13162.62
834.418	13175.62
834.668	13071.62
834.918	12939.62
835.168	12889.62
835.418	12860.62
835.668	12814.62
835.918	12786.62
836.167	12720.62
836.417	12705.62
836.667	12712.62
836.917	12763.62
837.166	12625.62
837.416	12707.62
837.666	12719.62
837.915	12615.62
838.165	12657.62
838.414	12600.62
838.663	12536.62
838.913	12632.62
839.162	12570.62
839.411	12639.62
839.661	12536.62
839.91	12470.62
840.159	12441.62
840.408	12490.62
840.657	12478.62
840.906	12461.62
841.155	12524.62
841.404	12475.62
841.653	12462.62
841.902	12443.62
842.15	12581.62
842.399	12550.62
842.648	12486.62
842.897	12473.62
843.145	12338.62
843.394	12224.62
843.642	12178.62
843.891	12189.62
844.139	12006.62
844.388	11919.62
844.636	11869.62
844.884	11854.62
845.133	11879.62
845.381	11889.62
845.629	11939.62
845.877	11901.62
846.125	11848.62
846.373	11843.62
846.621	11704.62
846.869	11809.62
847.117	11659.62
847.365	11611.62
847.613	11606.62
847.861	11527.62
848.108	11600.62
848.356	11594.62
848.604	11531.62
848.851	11512.62
849.099	11616.62
849.346	11604.62
849.594	11671.62
849.841	11700.62
850.089	11808.62
850.336	11908.62
850.583	12017.62
850.831	11968.62
851.078	11863.62
851.325	11703.62
851.572	11728.62
851.819	11561.62
852.066	11210.62
852.313	11083.62
852.56	10983.62
852.807	10942.62
853.054	10897.62
853.301	10957.62
853.548	10969.62
853.794	11095.62
854.041	11013.62
854.288	11132.62
854.534	11204.62
854.781	11183.62
855.028	11154.62
855.274	11228.62
855.52	11116.62
855.767	11051.62
856.013	11069.62
856.26	11341.62
856.506	11003.62
856.752	10923.62
856.998	10930.62
857.244	10945.62
857.49	11063.62
857.736	11088.62
857.982	11048.62
858.228	11023.62
858.474	10853.62
858.72	10834.62
858.966	10749.62
859.212	10677.62
859.458	10570.62
859.703	10389.62
859.949	10305.62
860.195	10318.62
860.44	10214.62
860.686	10176.62
860.931	10175.62
861.177	10055.62
861.422	10018.62
861.667	10068.62
861.913	10047.62
862.158	9995.62
862.403	10088.62
862.648	10037.62
862.893	10084.62
863.138	10139.62
863.384	10053.62
863.629	10065.62
863.873	9997.62
864.118	9983.62
864.363	9947.62
864.608	9911.62
864.853	9909.62
865.098	9834.62
865.342	9776.62
865.587	9807.62
865.832	9764.62
866.076	9708.62
866.321	9684.62
866.565	9669.62
866.81	9594.62
867.054	9600.62
867.298	9610.62
867.543	9508.62
867.787	9593.62
868.031	9547.62
868.275	9443.62
868.519	9497.62
868.764	9512.62
869.008	9466.62
869.252	9530.62
869.496	9450.62
869.739	9430.62
869.983	9414.62
870.227	9477.62
870.471	9392.62
870.715	9505.62
870.958	9562.62
871.202	9517.62
871.446	9470.62
871.689	9466.62
871.933	9501.62
872.176	9560.62
872.42	9504.62
872.663	9489.62
872.906	9449.62
873.15	9479.62
873.393	9479.62
873.636	9441.62
873.879	9374.62
874.122	9192.62
874.366	9114.62
874.609	9084.62
874.852	8988.62
875.095	8949.62
875.337	8776.62
875.58	8784.62
875.823	8780.62
876.066	8744.62
876.309	8832.62
876.551	8676.62
876.794	8557.62
877.037	8676.62
877.279	8604.62
877.522	8579.62
877.764	8654.62
878.007	8555.62
878.249	8557.62
878.491	8431.62
878.734	8616.62
878.976	8548.62
879.218	8411.62
879.46	8461.62
879.702	8388.62
879.945	8325.62
880.187	8235.62
880.429	8219.62
880.671	8110.62
880.912	8140.62
881.154	8091.62
881.396	8010.62
881.638	8111.62
881.88	8088.62
882.121	7950.62
882.363	8052.62
882.605	8043.62
882.846	8055.62
883.088	8053.62
883.329	7974.62
883.571	8030.62
883.812	8137.62
884.053	8360.62
884.295	8458.62
884.536	8620.62
884.777	8493.62
885.018	8422.62
885.259	8448.62
885.5	8332.62
885.742	8528.62
885.982	8258.62
886.223	8203.62
886.464	8119.62
886.705	8015.62
886.946	8019.62
887.187	7830.62
887.428	7789.62
887.668	7624.62
887.909	7583.62
888.15	7460.62
888.39	7460.62
888.631	7411.62
888.871	7305.62
889.111	7268.62
889.352	7226.62
889.592	7179.62
889.833	7111.62
890.073	7021.62
890.313	7113.62
890.553	6947.62
890.793	6982.62
891.033	6903.62
891.273	6825.62
891.513	6817.62
891.753	6883.62
891.993	6881.62
892.233	6863.62
892.473	6940.62
892.713	6883.62
892.952	6895.62
893.192	6904.62
893.432	6874.62
893.671	6879.62
893.911	6784.62
894.15	6795.62
894.39	6668.62
894.629	6699.62
894.869	6734.62
895.108	6679.62
895.347	6632.62
895.587	6587.62
895.826	6577.62
896.065	6591.62
896.304	6561.62
896.543	6585.62
896.782	6553.62
897.021	6568.62
897.26	6526.62
897.499	6604.62
897.738	6530.62
897.977	6508.62
898.216	6414.62
898.454	6443.62
898.693	6348.62
898.932	6405.62
899.17	6317.62
899.409	6343.62
899.647	6348.62
899.886	6297.62
900.124	6335.62
900.363	6300.62
900.601	6387.62
900.839	6352.62
901.078	6411.62
901.316	6449.62
901.554	6472.62
901.792	6433.62
902.03	6426.62
902.268	6411.62
902.506	6438.62
902.744	6421.62
902.982	6355.62
903.22	6237.62
903.458	6115.62
903.695	6055.62
903.933	5961.62
904.171	5817.62
904.409	5753.62
904.646	5714.62
904.884	5579.62
905.121	5631.62
905.359	5556.62
905.596	5550.62
905.833	5394.62
906.071	5373.62
906.308	5380.62
906.545	5324.62
906.783	5279.62
907.02	5324.62
907.257	5275.62
907.494	5299.62
907.731	5266.62
907.968	5221.62
908.205	5203.62
908.442	5186.62
908.679	5128.62
908.915	5084.62
909.152	5053.62
909.389	4979.62
909.626	4963.62
909.862	4925.62
910.099	4927.62
910.335	4955.62
910.572	4873.62
910.808	4866.62
911.045	4891.62
911.281	4787.62
911.518	4811.62
911.754	4721.62
911.99	4756.62
912.226	4707.62
912.463	4692.62
912.699	4663.62
912.935	4633.62
913.171	4585.62
913.407	4546.62
913.643	4563.62
913.879	4495.62
914.114	4442.62
914.35	4448.62
914.586	4379.62
914.822	4349.62
915.057	4393.62
915.293	4223.62
915.529	4225.62
915.764	4286.62
916	4237.62
916.235	4274.62
916.471	4258.62
916.706	4144.62
916.941	4158.62
917.177	4175.62
917.412	4213.62
917.647	4226.62
917.882	4154.62
918.117	4175.62
918.352	4217.62
918.588	4191.62
918.823	4101.62
919.057	4056.62
919.292	4016.62
919.527	4086.62
919.762	3963.62
919.997	3941.62
920.232	3900.62
920.466	3902.62
920.701	3787.62
920.935	3817.62
921.17	3824.62
921.405	3720.62
921.639	3837.62
921.873	3750.62
922.108	3744.62
922.342	3714.62
922.576	3650.62
922.811	3683.62
923.045	3714.62
923.279	3733.62
923.513	3585.62
923.747	3722.62
923.981	3616.62
924.215	3560.62
924.449	3586.62
924.683	3516.62
924.917	3509.62
925.151	3528.62
925.385	3588.62
925.618	3533.62
925.852	3487.62
926.086	3424.62
926.319	3501.62
926.553	3460.62
926.786	3466.62
927.02	3461.62
927.253	3541.62
927.486	3486.62
927.72	3421.62
927.953	3476.62
928.186	3413.62
928.42	3449.62
928.653	3435.62
928.886	3399.62
929.119	3385.62
929.352	3397.62
929.585	3340.62
929.818	3313.62
930.051	3331.62
930.284	3241.62
930.516	3179.62
930.749	3188.62
930.982	3276.62
931.215	3258.62
931.447	3144.62
931.68	3178.62
931.912	3150.62
932.145	3121.62
932.377	3173.62
932.61	3313.62
932.842	3121.62
933.074	3156.62
933.307	3117.62
933.539	3229.62
933.771	3148.62
934.003	3125.62
934.236	3245.62
934.468	3211.62
934.7	3124.62
934.932	3150.62
935.164	3080.62
935.395	3085.62
935.627	3117.62
935.859	3112.62
936.091	3039.62
936.323	3084.62
936.554	3108.62
936.786	3052.62
937.017	3003.62
937.249	3045.62
937.481	2976.62
937.712	3047.62
937.943	3017.62
938.175	2971.62
938.406	2980.62
938.637	3032.62
938.869	2994.62
939.1	3025.62
939.331	2917.62
939.562	3030.62
939.793	2969.62
940.024	2963.62
940.255	3002.62
940.486	2950.62
940.717	2925.62
940.948	2925.62
941.179	2862.62
941.409	2875.62
941.64	2898.62
941.871	2837.62
942.102	2865.62
942.332	2872.62
942.563	2893.62
942.793	2840.62
943.024	2831.62
943.254	2839.62
943.484	2965.62
943.715	2876.62
943.945	2845.62
944.175	2803.62
944.405	2772.62
944.636	2792.62
944.866	2812.62
945.096	2840.62
945.326	2766.62
945.556	2845.62
945.786	2845.62
946.016	2801.62
946.245	2713.62
946.475	2760.62
946.705	2734.62
946.935	2756.62
947.164	2711.62
947.394	2677.62
947.624	2673.62
947.853	2708.62
948.083	2690.62
948.312	2650.62
948.542	2595.62
948.771	2564.62
949	2580.62
949.23	2619.62
949.459	2611.62
949.688	2676.62
949.917	2606.62
950.146	2613.62
950.375	2660.62
950.604	2538.62
950.833	2629.62
951.062	2662.62
951.291	2552.62
951.52	2559.62
951.749	2538.62
951.978	2488.62
952.206	2516.62
952.435	2503.62
952.664	2549.62
952.892	2543.62
953.121	2546.62
953.349	2528.62
953.578	2501.62
953.806	2483.62
954.035	2415.62
954.263	2467.62
954.491	2444.62
954.719	2432.62
954.948	2392.62
955.176	2394.62
955.404	2324.62
955.632	2401.62
955.86	2416.62
956.088	2380.62
956.316	2407.62
956.544	2392.62
956.772	2366.62
956.999	2316.62
957.227	2392.62
957.455	2294.62
957.683	2298.62
957.91	2265.62
958.138	2247.62
958.365	2285.62
958.593	2264.62
958.82	2186.62
959.048	2272.62
959.275	2249.62
959.502	2245.62
959.73	2201.62
959.957	2225.62
960.184	2217.62
960.411	2168.62
960.638	2304.62
960.865	2233.62
961.092	2222.62
961.319	2146.62
961.546	2242.62
961.773	2248.62
962	2204.62
962.227	2278.62
962.454	2192.62
962.68	2217.62
962.907	2220.62
963.134	2148.62
963.36	2160.62
963.587	2188.62
963.813	2096.62
964.04	2172.62
964.266	2079.62
964.493	2154.62
964.719	2135.62
964.945	2128.62
965.171	2029.62
965.398	2095.62
965.624	2117.62
965.85	2033.62
966.076	2046.62
966.302	2085.62
966.528	2023.62
966.754	2064.62
966.98	2067.62
967.206	2066.62
967.431	1998.62
967.657	2051.62
967.883	2006.62
968.109	2002.62
968.334	1987.62
968.56	1955.62
968.785	1999.62
969.011	1943.62
969.236	1984.62
969.462	1949.62
969.687	1930.62
969.912	1975.62
970.138	2015.62
970.363	1927.62
970.588	1967.62
970.813	1928.62
971.038	1898.62
971.263	1936.62
971.488	1927.62
971.713	1955.62
971.938	1953.62
972.163	1853.62
972.388	1882.62
972.613	1846.62
972.838	1857.62
973.062	1850.62
973.287	1858.62
973.512	1777.62
973.736	1852.62
973.961	1836.62
974.185	1832.62
974.41	1832.62
974.634	1746.62
974.858	1757.62
975.083	1795.62
975.307	1846.62
975.531	1752.62
975.755	1693.62
975.98	1731.62
976.204	1659.62
976.428	1682.62
976.652	1679.62
976.876	1644.62
977.1	1678.62
977.324	1662.62
977.547	1690.62
977.771	1690.62
977.995	1656.62
978.219	1613.62
978.442	1738.62
978.666	1670.62
978.89	1649.62
979.113	1672.62
979.337	1647.62
979.56	1615.62
979.783	1715.62
980.007	1598.62
980.23	1625.62
980.453	1605.62
980.677	1648.62
980.9	1618.62
981.123	1518.62
981.346	1649.62
981.569	1618.62
981.792	1629.62
982.015	1571.62
982.238	1544.62
982.461	1562.62
982.684	1558.62
982.907	1511.62
983.129	1511.62
983.352	1560.62
983.575	1559.62
983.797	1559.62
984.02	1520.62
984.242	1524.62
984.465	1506.62
984.687	1531.62
984.91	1563.62
985.132	1549.62
985.354	1567.62
985.577	1528.62
985.799	1521.62
986.021	1451.62
986.243	1451.62
986.465	1474.62
986.687	1519.62
986.909	1548.62
987.131	1516.62
987.353	1456.62
987.575	1528.62
987.797	1448.62
988.019	1400.62
988.241	1473.62
988.462	1409.62
988.684	1468.62
988.906	1502.62
989.127	1521.62
989.349	1400.62
989.57	1445.62
989.792	1488.62
990.013	1468.62
990.234	1497.62
990.456	1514.62
990.677	1463.62
990.898	1424.62
991.119	1437.62
991.341	1457.62
991.562	1382.62
991.783	1444.62
992.004	1382.62
992.225	1359.62
992.446	1407.62
992.667	1334.62
992.887	1421.62
993.108	1311.62
993.329	1447.62
993.55	1414.62
993.77	1326.62
993.991	1338.62
994.212	1406.62
994.432	1356.62
994.653	1363.62
994.873	1363.62
995.093	1263.62
995.314	1292.62
995.534	1375.62
995.754	1367.62
995.975	1375.62
996.195	1292.62
996.415	1361.62
996.635	1328.62
996.855	1344.62
997.075	1313.62
997.295	1326.62
997.515	1283.62
997.735	1346.62
997.955	1323.62
998.174	1307.62
998.394	1307.62
998.614	1354.62
998.834	1292.62
999.053	1382.62
999.273	1325.62
999.492	1374.62
999.712	1311.62
999.931	1302.62
1000.151	1315.62
1000.37	1303.62
1000.589	1371.62
1000.809	1303.62
1001.028	1401.62
1001.247	1342.62
1001.466	1221.62
1001.685	1348.62
1001.904	1322.62
1002.123	1284.62
1002.342	1331.62
1002.561	1244.62
1002.78	1293.62
1002.999	1369.62
1003.218	1293.62
1003.436	1258.62
1003.655	1335.62
1003.874	1246.62
1004.092	1286.62
1004.311	1335.62
1004.53	1293.62
1004.748	1363.62
1004.966	1278.62
1005.185	1337.62
1005.403	1327.62
1005.622	1285.62
1005.84	1376.62
1006.058	1279.62
1006.276	1282.62
1006.494	1733.62
1006.712	1308.62
1006.931	1357.62
1007.149	1273.62
1007.367	1281.62
1007.584	1295.62
1007.802	1363.62
1008.02	1295.62
1008.238	1401.62
1008.456	1389.62
1008.673	1264.62
1008.891	1371.62
1009.109	1332.62
1009.326	1382.62
1009.544	1463.62
1009.761	1379.62
1009.979	1470.62
1010.196	1458.62
1010.413	1532.62
1010.631	1607.62
1010.848	1612.62
1011.065	1639.62
1011.282	1583.62
1011.5	1510.62
1011.717	1622.62
1011.934	1574.62
1012.151	1591.62
1012.368	1595.62
1012.585	1519.62
1012.801	1567.62
1013.018	1559.62
1013.235	1524.62
1013.452	1529.62
1013.669	1560.62
1013.885	1564.62
1014.102	1556.62
1014.318	1543.62
1014.535	1501.62
1014.751	1540.62
1014.968	1517.62
1015.184	1523.62
1015.401	1440.62
1015.617	1480.62
1015.833	1441.62
1016.049	1441.62
1016.266	1412.62
1016.482	1426.62
1016.698	1350.62
1016.914	1430.62
1017.13	1346.62
1017.346	1354.62
1017.562	1418.62
1017.778	1357.62
1017.993	1320.62
1018.209	1355.62
1018.425	1350.62
1018.641	1324.62
1018.856	1307.62
1019.072	1308.62
1019.288	1367.62
1019.503	1311.62
1019.719	1248.62
1019.934	1252.62
1020.149	1332.62
1020.365	1250.62
1020.58	1220.62
1020.795	1277.62
1021.011	1204.62
1021.226	1185.62
1021.441	1230.62
1021.656	1128.62
1021.871	1072.62
1022.086	1087.62
1022.301	1078.62
1022.516	1105.62
1022.731	1114.62
1022.946	1055.62
1023.16	1034.62
1023.375	1007.62
1023.59	993.62
1023.804	967.62
1024.019	1043.62
1024.234	925.62
1024.448	964.62
1024.663	897.62
1024.877	908.62
1025.092	943.62
1025.306	953.62
1025.52	831.62
1025.734	926.62
1025.949	837.62
1026.163	839.62
1026.377	766.62
1026.591	824.62
1026.805	762.62
1027.019	742.62
1027.233	746.62
1027.447	674.62
1027.661	780.62
1027.875	702.62
1028.088	731.62
1028.302	648.62
1028.516	633.62
1028.73	651.62
1028.943	654.62
1029.157	592.62
1029.37	571.62
1029.584	-1.38
1029.797	-0.38
1030.011	1.62
1030.224	-1.38
