Data from QEP037381__108__11-38-55-597.txt Node

Date: Wed Dec 21 11:38:55 EST 2022
User: dcclab
Spectrometer: QEP03738
Trigger mode: 4
Integration Time (sec): 1.000000E1
Scans to average: 1
Electric dark correction enabled: true
Nonlinearity correction enabled: false
Boxcar width: 0
XAxis mode: Wavelengths
Number of Pixels in Spectrum: 1044
>>>>>Begin Spectral Data<<<<<
784.041	12.5
784.3	2.5
784.558	-2.5
784.817	-4.5
785.075	40842.5
785.334	8263.5
785.592	4395.5
785.851	3066.5
786.109	2367.5
786.368	1885.5
786.626	1545.5
786.884	1350.5
787.143	1143.5
787.401	940.5
787.659	873.5
787.917	765.5
788.175	737.5
788.433	662.5
788.691	606.5
788.949	559.5
789.207	568.5
789.465	476.5
789.723	471.5
789.98	437.5
790.238	491.5
790.496	437.5
790.753	416.5
791.011	486.5
791.268	417.5
791.526	414.5
791.783	437.5
792.041	443.5
792.298	343.5
792.556	421.5
792.813	397.5
793.07	387.5
793.327	370.5
793.584	458.5
793.841	382.5
794.099	407.5
794.356	454.5
794.613	358.5
794.869	394.5
795.126	362.5
795.383	353.5
795.64	363.5
795.897	335.5
796.153	391.5
796.41	379.5
796.667	350.5
796.923	366.5
797.18	365.5
797.436	376.5
797.693	360.5
797.949	394.5
798.206	429.5
798.462	349.5
798.718	398.5
798.974	381.5
799.231	411.5
799.487	400.5
799.743	396.5
799.999	450.5
800.255	415.5
800.511	392.5
800.767	429.5
801.023	420.5
801.279	448.5
801.534	457.5
801.79	481.5
802.046	473.5
802.302	562.5
802.557	599.5
802.813	702.5
803.068	797.5
803.324	1079.5
803.579	1356.5
803.835	1806.5
804.09	2421.5
804.345	3111.5
804.601	3841.5
804.856	4675.5
805.111	5380.5
805.366	5812.5
805.621	6235.5
805.876	6486.5
806.131	6658.5
806.386	6780.5
806.641	6872.5
806.896	7054.5
807.151	7212.5
807.406	7199.5
807.661	7401.5
807.915	7522.5
808.17	7633.5
808.425	7724.5
808.679	7749.5
808.934	7956.5
809.188	7900.5
809.443	8075.5
809.697	8075.5
809.951	8191.5
810.206	8274.5
810.46	8253.5
810.714	8332.5
810.968	8492.5
811.223	8427.5
811.477	8541.5
811.731	8619.5
811.985	8672.5
812.239	8637.5
812.493	8749.5
812.747	8821.5
813	8755.5
813.254	8894.5
813.508	8897.5
813.762	8908.5
814.015	8889.5
814.269	9064.5
814.522	9032.5
814.776	9170.5
815.03	9253.5
815.283	9429.5
815.536	9585.5
815.79	9746.5
816.043	9838.5
816.296	9990.5
816.55	10075.5
816.803	10160.5
817.056	10387.5
817.309	10452.5
817.562	10553.5
817.815	10703.5
818.068	10683.5
818.321	10807.5
818.574	10915.5
818.827	11095.5
819.079	11195.5
819.332	11478.5
819.585	11561.5
819.838	11668.5
820.09	11620.5
820.343	11784.5
820.595	11796.5
820.848	11898.5
821.1	11952.5
821.353	12002.5
821.605	11839.5
821.857	11854.5
822.11	11869.5
822.362	11788.5
822.614	11667.5
822.866	11782.5
823.118	11723.5
823.37	11899.5
823.622	11816.5
823.874	11913.5
824.126	11951.5
824.378	11883.5
824.63	11936.5
824.882	12026.5
825.134	11893.5
825.385	11946.5
825.637	11857.5
825.888	11825.5
826.14	11838.5
826.392	11716.5
826.643	11647.5
826.895	11761.5
827.146	11616.5
827.397	11556.5
827.649	11658.5
827.9	11487.5
828.151	11562.5
828.402	11575.5
828.653	11631.5
828.905	11667.5
829.156	11774.5
829.407	11682.5
829.658	11764.5
829.909	11839.5
830.159	11808.5
830.41	11692.5
830.661	11653.5
830.912	11589.5
831.162	11521.5
831.413	11456.5
831.664	11603.5
831.914	11475.5
832.165	11532.5
832.415	11478.5
832.666	11548.5
832.916	11554.5
833.167	11453.5
833.417	11433.5
833.667	11477.5
833.917	11427.5
834.168	11465.5
834.418	11386.5
834.668	11369.5
834.918	11254.5
835.168	11160.5
835.418	11118.5
835.668	11112.5
835.918	11147.5
836.167	11100.5
836.417	11026.5
836.667	11091.5
836.917	11084.5
837.166	11037.5
837.416	11073.5
837.666	11144.5
837.915	11048.5
838.165	11070.5
838.414	10953.5
838.663	10945.5
838.913	10995.5
839.162	10890.5
839.411	11038.5
839.661	10953.5
839.91	10957.5
840.159	10937.5
840.408	10947.5
840.657	10917.5
840.906	10967.5
841.155	10941.5
841.404	10891.5
841.653	10954.5
841.902	10994.5
842.15	11041.5
842.399	11042.5
842.648	10989.5
842.897	10916.5
843.145	10835.5
843.394	10780.5
843.642	10709.5
843.891	10674.5
844.139	10502.5
844.388	10461.5
844.636	10402.5
844.884	10465.5
845.133	10391.5
845.381	10462.5
845.629	10452.5
845.877	10386.5
846.125	10473.5
846.373	10409.5
846.621	10313.5
846.869	10384.5
847.117	10228.5
847.365	10195.5
847.613	10240.5
847.861	10175.5
848.108	10194.5
848.356	10156.5
848.604	10102.5
848.851	10172.5
849.099	10175.5
849.346	10246.5
849.594	10242.5
849.841	10325.5
850.089	10427.5
850.336	10519.5
850.583	10557.5
850.831	10547.5
851.078	10436.5
851.325	10323.5
851.572	10355.5
851.819	10230.5
852.066	9960.5
852.313	9793.5
852.56	9708.5
852.807	9657.5
853.054	9644.5
853.301	9656.5
853.548	9794.5
853.794	9859.5
854.041	9759.5
854.288	9777.5
854.534	9973.5
854.781	9905.5
855.028	9931.5
855.274	9991.5
855.52	9894.5
855.767	9851.5
856.013	9924.5
856.26	10245.5
856.506	9747.5
856.752	9768.5
856.998	9756.5
857.244	9783.5
857.49	9889.5
857.736	9899.5
857.982	9902.5
858.228	9838.5
858.474	9698.5
858.72	9601.5
858.966	9478.5
859.212	9411.5
859.458	9344.5
859.703	9297.5
859.949	9170.5
860.195	9119.5
860.44	9125.5
860.686	9055.5
860.931	9115.5
861.177	8959.5
861.422	8886.5
861.667	8878.5
861.913	8877.5
862.158	8891.5
862.403	8957.5
862.648	8921.5
862.893	8923.5
863.138	8943.5
863.384	8841.5
863.629	8920.5
863.873	8911.5
864.118	8834.5
864.363	8758.5
864.608	8768.5
864.853	8774.5
865.098	8723.5
865.342	8683.5
865.587	8615.5
865.832	8710.5
866.076	8673.5
866.321	8643.5
866.565	8603.5
866.81	8474.5
867.054	8556.5
867.298	8500.5
867.543	8449.5
867.787	8487.5
868.031	8485.5
868.275	8461.5
868.519	8457.5
868.764	8471.5
869.008	8392.5
869.252	8439.5
869.496	8436.5
869.739	8420.5
869.983	8464.5
870.227	8461.5
870.471	8424.5
870.715	8502.5
870.958	8503.5
871.202	8534.5
871.446	8537.5
871.689	8509.5
871.933	8568.5
872.176	8586.5
872.42	8518.5
872.663	8569.5
872.906	8537.5
873.15	8588.5
873.393	8554.5
873.636	8615.5
873.879	8469.5
874.122	8388.5
874.366	8282.5
874.609	8130.5
874.852	8080.5
875.095	8036.5
875.337	7960.5
875.58	7848.5
875.823	7866.5
876.066	7909.5
876.309	7877.5
876.551	7747.5
876.794	7670.5
877.037	7785.5
877.279	7677.5
877.522	7701.5
877.764	7683.5
878.007	7655.5
878.249	7629.5
878.491	7642.5
878.734	7671.5
878.976	7571.5
879.218	7516.5
879.46	7518.5
879.702	7504.5
879.945	7419.5
880.187	7276.5
880.429	7300.5
880.671	7310.5
880.912	7270.5
881.154	7208.5
881.396	7093.5
881.638	7194.5
881.88	7176.5
882.121	7135.5
882.363	7114.5
882.605	7254.5
882.846	7185.5
883.088	7248.5
883.329	7229.5
883.571	7301.5
883.812	7464.5
884.053	7687.5
884.295	7846.5
884.536	7950.5
884.777	7866.5
885.018	7770.5
885.259	7723.5
885.5	7630.5
885.742	7931.5
885.982	7594.5
886.223	7498.5
886.464	7441.5
886.705	7299.5
886.946	7216.5
887.187	7072.5
887.428	7021.5
887.668	6867.5
887.909	6711.5
888.15	6655.5
888.39	6667.5
888.631	6657.5
888.871	6520.5
889.111	6568.5
889.352	6415.5
889.592	6392.5
889.833	6309.5
890.073	6274.5
890.313	6382.5
890.553	6185.5
890.793	6157.5
891.033	6131.5
891.273	6152.5
891.513	6123.5
891.753	6123.5
891.993	6109.5
892.233	6143.5
892.473	6237.5
892.713	6166.5
892.952	6052.5
893.192	6129.5
893.432	6068.5
893.671	6143.5
893.911	6105.5
894.15	6068.5
894.39	6053.5
894.629	5984.5
894.869	5932.5
895.108	5998.5
895.347	5891.5
895.587	5932.5
895.826	5903.5
896.065	5913.5
896.304	5852.5
896.543	5846.5
896.782	5838.5
897.021	5953.5
897.26	5860.5
897.499	5890.5
897.738	5871.5
897.977	5852.5
898.216	5704.5
898.454	5741.5
898.693	5702.5
898.932	5724.5
899.17	5695.5
899.409	5715.5
899.647	5675.5
899.886	5703.5
900.124	5715.5
900.363	5717.5
900.601	5749.5
900.839	5707.5
901.078	5768.5
901.316	5786.5
901.554	5833.5
901.792	5971.5
902.03	5875.5
902.268	5856.5
902.506	5914.5
902.744	5835.5
902.982	5811.5
903.22	5653.5
903.458	5561.5
903.695	5472.5
903.933	5370.5
904.171	5283.5
904.409	5161.5
904.646	5136.5
904.884	5067.5
905.121	5053.5
905.359	4952.5
905.596	4883.5
905.833	4822.5
906.071	4805.5
906.308	4830.5
906.545	4803.5
906.783	4727.5
907.02	4732.5
907.257	4719.5
907.494	4686.5
907.731	4718.5
907.968	4725.5
908.205	4620.5
908.442	4640.5
908.679	4596.5
908.915	4588.5
909.152	4578.5
909.389	4472.5
909.626	4424.5
909.862	4415.5
910.099	4389.5
910.335	4416.5
910.572	4281.5
910.808	4338.5
911.045	4323.5
911.281	4265.5
911.518	4387.5
911.754	4261.5
911.99	4247.5
912.226	4217.5
912.463	4129.5
912.699	4166.5
912.935	4138.5
913.171	4087.5
913.407	4064.5
913.643	4074.5
913.879	4010.5
914.114	3993.5
914.35	3881.5
914.586	3939.5
914.822	3851.5
915.057	3920.5
915.293	3800.5
915.529	3769.5
915.764	3820.5
916	3830.5
916.235	3761.5
916.471	3803.5
916.706	3742.5
916.941	3765.5
917.177	3736.5
917.412	3799.5
917.647	3757.5
917.882	3731.5
918.117	3769.5
918.352	3727.5
918.588	3765.5
918.823	3709.5
919.057	3615.5
919.292	3571.5
919.527	3629.5
919.762	3528.5
919.997	3561.5
920.232	3546.5
920.466	3532.5
920.701	3379.5
920.935	3439.5
921.17	3394.5
921.405	3354.5
921.639	3396.5
921.873	3331.5
922.108	3362.5
922.342	3367.5
922.576	3327.5
922.811	3276.5
923.045	3303.5
923.279	3323.5
923.513	3262.5
923.747	3278.5
923.981	3247.5
924.215	3195.5
924.449	3194.5
924.683	3114.5
924.917	3125.5
925.151	3159.5
925.385	3191.5
925.618	3158.5
925.852	3138.5
926.086	3081.5
926.319	3145.5
926.553	3176.5
926.786	3144.5
927.02	3142.5
927.253	3155.5
927.486	3164.5
927.72	3103.5
927.953	3132.5
928.186	3071.5
928.42	3080.5
928.653	3028.5
928.886	3017.5
929.119	3052.5
929.352	3047.5
929.585	3033.5
929.818	2942.5
930.051	2970.5
930.284	2968.5
930.516	2896.5
930.749	2900.5
930.982	2941.5
931.215	2919.5
931.447	2802.5
931.68	2855.5
931.912	2848.5
932.145	2860.5
932.377	2876.5
932.61	2982.5
932.842	2800.5
933.074	2852.5
933.307	2849.5
933.539	2939.5
933.771	2881.5
934.003	2831.5
934.236	2901.5
934.468	2936.5
934.7	2855.5
934.932	2890.5
935.164	2758.5
935.395	2809.5
935.627	2795.5
935.859	2828.5
936.091	2784.5
936.323	2814.5
936.554	2805.5
936.786	2750.5
937.017	2708.5
937.249	2763.5
937.481	2637.5
937.712	2781.5
937.943	2707.5
938.175	2728.5
938.406	2720.5
938.637	2769.5
938.869	2640.5
939.1	2728.5
939.331	2700.5
939.562	2700.5
939.793	2673.5
940.024	2732.5
940.255	2730.5
940.486	2674.5
940.717	2642.5
940.948	2607.5
941.179	2581.5
941.409	2624.5
941.64	2611.5
941.871	2622.5
942.102	2624.5
942.332	2606.5
942.563	2642.5
942.793	2612.5
943.024	2537.5
943.254	2576.5
943.484	2624.5
943.715	2631.5
943.945	2613.5
944.175	2551.5
944.405	2509.5
944.636	2515.5
944.866	2593.5
945.096	2581.5
945.326	2531.5
945.556	2570.5
945.786	2571.5
946.016	2557.5
946.245	2483.5
946.475	2481.5
946.705	2490.5
946.935	2480.5
947.164	2462.5
947.394	2436.5
947.624	2453.5
947.853	2453.5
948.083	2444.5
948.312	2378.5
948.542	2378.5
948.771	2321.5
949	2323.5
949.23	2338.5
949.459	2380.5
949.688	2432.5
949.917	2367.5
950.146	2381.5
950.375	2421.5
950.604	2321.5
950.833	2418.5
951.062	2382.5
951.291	2354.5
951.52	2325.5
951.749	2349.5
951.978	2305.5
952.206	2278.5
952.435	2306.5
952.664	2363.5
952.892	2326.5
953.121	2305.5
953.349	2306.5
953.578	2318.5
953.806	2278.5
954.035	2230.5
954.263	2266.5
954.491	2211.5
954.719	2276.5
954.948	2202.5
955.176	2219.5
955.404	2151.5
955.632	2202.5
955.86	2210.5
956.088	2148.5
956.316	2171.5
956.544	2233.5
956.772	2154.5
956.999	2124.5
957.227	2165.5
957.455	2114.5
957.683	2142.5
957.91	2106.5
958.138	2063.5
958.365	2095.5
958.593	2089.5
958.82	2023.5
959.048	2111.5
959.275	2047.5
959.502	2012.5
959.73	2025.5
959.957	2056.5
960.184	2073.5
960.411	1994.5
960.638	2080.5
960.865	2025.5
961.092	2076.5
961.319	1944.5
961.546	2049.5
961.773	2068.5
962	2045.5
962.227	2037.5
962.454	2018.5
962.68	2004.5
962.907	2024.5
963.134	1998.5
963.36	1986.5
963.587	2007.5
963.813	1930.5
964.04	1984.5
964.266	1935.5
964.493	2018.5
964.719	1981.5
964.945	1972.5
965.171	1877.5
965.398	1896.5
965.624	1949.5
965.85	1856.5
966.076	1871.5
966.302	1932.5
966.528	1877.5
966.754	1882.5
966.98	1878.5
967.206	1891.5
967.431	1795.5
967.657	1899.5
967.883	1863.5
968.109	1878.5
968.334	1828.5
968.56	1806.5
968.785	1819.5
969.011	1805.5
969.236	1838.5
969.462	1759.5
969.687	1812.5
969.912	1828.5
970.138	1853.5
970.363	1780.5
970.588	1819.5
970.813	1801.5
971.038	1767.5
971.263	1797.5
971.488	1849.5
971.713	1809.5
971.938	1805.5
972.163	1712.5
972.388	1733.5
972.613	1739.5
972.838	1733.5
973.062	1732.5
973.287	1702.5
973.512	1641.5
973.736	1725.5
973.961	1701.5
974.185	1666.5
974.41	1708.5
974.634	1605.5
974.858	1642.5
975.083	1664.5
975.307	1684.5
975.531	1652.5
975.755	1581.5
975.98	1600.5
976.204	1515.5
976.428	1539.5
976.652	1559.5
976.876	1550.5
977.1	1595.5
977.324	1529.5
977.547	1599.5
977.771	1594.5
977.995	1548.5
978.219	1519.5
978.442	1630.5
978.666	1564.5
978.89	1563.5
979.113	1579.5
979.337	1522.5
979.56	1513.5
979.783	1575.5
980.007	1486.5
980.23	1530.5
980.453	1485.5
980.677	1529.5
980.9	1505.5
981.123	1410.5
981.346	1519.5
981.569	1498.5
981.792	1514.5
982.015	1478.5
982.238	1451.5
982.461	1459.5
982.684	1425.5
982.907	1448.5
983.129	1432.5
983.352	1467.5
983.575	1456.5
983.797	1465.5
984.02	1416.5
984.242	1423.5
984.465	1422.5
984.687	1437.5
984.91	1456.5
985.132	1435.5
985.354	1441.5
985.577	1405.5
985.799	1413.5
986.021	1338.5
986.243	1402.5
986.465	1383.5
986.687	1475.5
986.909	1469.5
987.131	1426.5
987.353	1390.5
987.575	1417.5
987.797	1379.5
988.019	1308.5
988.241	1376.5
988.462	1336.5
988.684	1412.5
988.906	1405.5
989.127	1437.5
989.349	1305.5
989.57	1385.5
989.792	1386.5
990.013	1437.5
990.234	1416.5
990.456	1445.5
990.677	1413.5
990.898	1331.5
991.119	1356.5
991.341	1402.5
991.562	1325.5
991.783	1361.5
992.004	1303.5
992.225	1273.5
992.446	1337.5
992.667	1254.5
992.887	1332.5
993.108	1234.5
993.329	1399.5
993.55	1316.5
993.77	1253.5
993.991	1250.5
994.212	1322.5
994.432	1294.5
994.653	1298.5
994.873	1315.5
995.093	1200.5
995.314	1239.5
995.534	1303.5
995.754	1319.5
995.975	1347.5
996.195	1262.5
996.415	1310.5
996.635	1280.5
996.855	1288.5
997.075	1292.5
997.295	1270.5
997.515	1238.5
997.735	1333.5
997.955	1265.5
998.174	1261.5
998.394	1243.5
998.614	1284.5
998.834	1252.5
999.053	1307.5
999.273	1280.5
999.492	1303.5
999.712	1260.5
999.931	1214.5
1000.151	1291.5
1000.37	1263.5
1000.589	1295.5
1000.809	1229.5
1001.028	1311.5
1001.247	1281.5
1001.466	1163.5
1001.685	1294.5
1001.904	1285.5
1002.123	1259.5
1002.342	1288.5
1002.561	1214.5
1002.78	1258.5
1002.999	1282.5
1003.218	1239.5
1003.436	1233.5
1003.655	1276.5
1003.874	1232.5
1004.092	1261.5
1004.311	1274.5
1004.53	1239.5
1004.748	1330.5
1004.966	1234.5
1005.185	1321.5
1005.403	1279.5
1005.622	1259.5
1005.84	1322.5
1006.058	1249.5
1006.276	1255.5
1006.494	1749.5
1006.712	1255.5
1006.931	1334.5
1007.149	1239.5
1007.367	1244.5
1007.584	1267.5
1007.802	1336.5
1008.02	1267.5
1008.238	1364.5
1008.456	1344.5
1008.673	1236.5
1008.891	1356.5
1009.109	1321.5
1009.326	1405.5
1009.544	1473.5
1009.761	1374.5
1009.979	1447.5
1010.196	1493.5
1010.413	1600.5
1010.631	1652.5
1010.848	1715.5
1011.065	1702.5
1011.282	1613.5
1011.5	1602.5
1011.717	1695.5
1011.934	1632.5
1012.151	1667.5
1012.368	1673.5
1012.585	1593.5
1012.801	1656.5
1013.018	1632.5
1013.235	1578.5
1013.452	1578.5
1013.669	1642.5
1013.885	1609.5
1014.102	1647.5
1014.318	1618.5
1014.535	1571.5
1014.751	1620.5
1014.968	1592.5
1015.184	1640.5
1015.401	1535.5
1015.617	1548.5
1015.833	1501.5
1016.049	1489.5
1016.266	1483.5
1016.482	1503.5
1016.698	1432.5
1016.914	1494.5
1017.13	1382.5
1017.346	1415.5
1017.562	1494.5
1017.778	1430.5
1017.993	1388.5
1018.209	1420.5
1018.425	1407.5
1018.641	1349.5
1018.856	1332.5
1019.072	1376.5
1019.288	1467.5
1019.503	1388.5
1019.719	1283.5
1019.934	1322.5
1020.149	1391.5
1020.365	1327.5
1020.58	1244.5
1020.795	1307.5
1021.011	1235.5
1021.226	1217.5
1021.441	1233.5
1021.656	1167.5
1021.871	1100.5
1022.086	1137.5
1022.301	1136.5
1022.516	1105.5
1022.731	1158.5
1022.946	1059.5
1023.16	1065.5
1023.375	1033.5
1023.59	1018.5
1023.804	965.5
1024.019	1067.5
1024.234	942.5
1024.448	956.5
1024.663	905.5
1024.877	922.5
1025.092	916.5
1025.306	946.5
1025.52	844.5
1025.734	939.5
1025.949	837.5
1026.163	841.5
1026.377	777.5
1026.591	820.5
1026.805	732.5
1027.019	754.5
1027.233	717.5
1027.447	681.5
1027.661	771.5
1027.875	712.5
1028.088	715.5
1028.302	636.5
1028.516	653.5
1028.73	654.5
1028.943	631.5
1029.157	592.5
1029.37	544.5
1029.584	-3.5
1029.797	-0.5
1030.011	-1.5
1030.224	-2.5
