Data from QEP037381__45__11-28-25-594.txt Node

Date: Wed Dec 21 11:28:25 EST 2022
User: dcclab
Spectrometer: QEP03738
Trigger mode: 4
Integration Time (sec): 1.000000E1
Scans to average: 1
Electric dark correction enabled: true
Nonlinearity correction enabled: false
Boxcar width: 0
XAxis mode: Wavelengths
Number of Pixels in Spectrum: 1044
>>>>>Begin Spectral Data<<<<<
784.041	10.88
784.3	-1.12
784.558	-3.12
784.817	-4.12
785.075	38712.88
785.334	7930.88
785.592	4186.88
785.851	2993.88
786.109	2320.88
786.368	1814.88
786.626	1494.88
786.884	1276.88
787.143	1095.88
787.401	899.88
787.659	855.88
787.917	754.88
788.175	726.88
788.433	630.88
788.691	573.88
788.949	563.88
789.207	558.88
789.465	479.88
789.723	474.88
789.98	437.88
790.238	504.88
790.496	454.88
790.753	445.88
791.011	506.88
791.268	447.88
791.526	433.88
791.783	457.88
792.041	440.88
792.298	367.88
792.556	435.88
792.813	417.88
793.07	396.88
793.327	388.88
793.584	454.88
793.841	386.88
794.099	414.88
794.356	482.88
794.613	374.88
794.869	409.88
795.126	375.88
795.383	373.88
795.64	374.88
795.897	349.88
796.153	405.88
796.41	386.88
796.667	368.88
796.923	381.88
797.18	380.88
797.436	410.88
797.693	371.88
797.949	431.88
798.206	458.88
798.462	365.88
798.718	416.88
798.974	395.88
799.231	436.88
799.487	428.88
799.743	425.88
799.999	461.88
800.255	445.88
800.511	425.88
800.767	473.88
801.023	464.88
801.279	501.88
801.534	529.88
801.79	552.88
802.046	581.88
802.302	687.88
802.557	757.88
802.813	934.88
803.068	1152.88
803.324	1541.88
803.579	2067.88
803.835	2882.88
804.09	3918.88
804.345	5115.88
804.601	6359.88
804.856	7628.88
805.111	8788.88
805.366	9737.88
805.621	10345.88
805.876	10887.88
806.131	11123.88
806.386	11324.88
806.641	11501.88
806.896	11724.88
807.151	11961.88
807.406	12112.88
807.661	12433.88
807.915	12619.88
808.17	12755.88
808.425	12989.88
808.679	13049.88
808.934	13235.88
809.188	13277.88
809.443	13490.88
809.697	13676.88
809.951	13790.88
810.206	13794.88
810.46	14013.88
810.714	14148.88
810.968	14246.88
811.223	14239.88
811.477	14426.88
811.731	14549.88
811.985	14638.88
812.239	14682.88
812.493	14809.88
812.747	14818.88
813	14807.88
813.254	14853.88
813.508	15103.88
813.762	15046.88
814.015	15178.88
814.269	15222.88
814.522	15473.88
814.776	15611.88
815.03	15758.88
815.283	15970.88
815.536	16196.88
815.79	16575.88
816.043	16778.88
816.296	17026.88
816.55	17196.88
816.803	17409.88
817.056	17675.88
817.309	17813.88
817.562	17937.88
817.815	18130.88
818.068	18256.88
818.321	18394.88
818.574	18748.88
818.827	18942.88
819.079	19094.88
819.332	19626.88
819.585	19669.88
819.838	20035.88
820.09	19965.88
820.343	20227.88
820.595	20357.88
820.848	20353.88
821.1	20452.88
821.353	20346.88
821.605	20430.88
821.857	20526.88
822.11	20256.88
822.362	20198.88
822.614	20200.88
822.866	20192.88
823.118	20233.88
823.37	20233.88
823.622	20281.88
823.874	20394.88
824.126	20595.88
824.378	20445.88
824.63	20527.88
824.882	20666.88
825.134	20502.88
825.385	20611.88
825.637	20437.88
825.888	20449.88
826.14	20458.88
826.392	20353.88
826.643	20241.88
826.895	20219.88
827.146	20061.88
827.397	20057.88
827.649	20069.88
827.9	20053.88
828.151	20047.88
828.402	19981.88
828.653	20156.88
828.905	20168.88
829.156	20260.88
829.407	20153.88
829.658	20242.88
829.909	20291.88
830.159	20210.88
830.41	20018.88
830.661	20113.88
830.912	19939.88
831.162	19791.88
831.413	19716.88
831.664	19773.88
831.914	19651.88
832.165	19692.88
832.415	19691.88
832.666	19618.88
832.916	19744.88
833.167	19690.88
833.417	19813.88
833.667	19586.88
833.917	19620.88
834.168	19538.88
834.418	19381.88
834.668	19410.88
834.918	19168.88
835.168	19219.88
835.418	19150.88
835.668	19168.88
835.918	19052.88
836.167	18971.88
836.417	18846.88
836.667	19040.88
836.917	18920.88
837.166	18934.88
837.416	19005.88
837.666	18969.88
837.915	18749.88
838.165	18837.88
838.414	18709.88
838.663	18665.88
838.913	18722.88
839.162	18625.88
839.411	18740.88
839.661	18584.88
839.91	18621.88
840.159	18520.88
840.408	18415.88
840.657	18536.88
840.906	18450.88
841.155	18618.88
841.404	18488.88
841.653	18593.88
841.902	18500.88
842.15	18532.88
842.399	18664.88
842.648	18544.88
842.897	18473.88
843.145	18372.88
843.394	18282.88
843.642	18075.88
843.891	18102.88
844.139	17926.88
844.388	17780.88
844.636	17786.88
844.884	17800.88
845.133	17686.88
845.381	17688.88
845.629	17655.88
845.877	17670.88
846.125	17622.88
846.373	17544.88
846.621	17397.88
846.869	17376.88
847.117	17401.88
847.365	17274.88
847.613	17197.88
847.861	17249.88
848.108	17246.88
848.356	17159.88
848.604	17090.88
848.851	17077.88
849.099	17161.88
849.346	17077.88
849.594	17334.88
849.841	17357.88
850.089	17467.88
850.336	17542.88
850.583	17562.88
850.831	17427.88
851.078	17319.88
851.325	17173.88
851.572	17170.88
851.819	16953.88
852.066	16598.88
852.313	16487.88
852.56	16343.88
852.807	16299.88
853.054	16284.88
853.301	16211.88
853.548	16244.88
853.794	16312.88
854.041	16322.88
854.288	16335.88
854.534	16623.88
854.781	16456.88
855.028	16444.88
855.274	16461.88
855.52	16363.88
855.767	16327.88
856.013	16395.88
856.26	16568.88
856.506	16138.88
856.752	16197.88
856.998	16120.88
857.244	16159.88
857.49	16300.88
857.736	16270.88
857.982	16257.88
858.228	16157.88
858.474	16087.88
858.72	15961.88
858.966	15780.88
859.212	15714.88
859.458	15535.88
859.703	15376.88
859.949	15204.88
860.195	15217.88
860.44	15071.88
860.686	14977.88
860.931	14996.88
861.177	14870.88
861.422	14881.88
861.667	14734.88
861.913	14726.88
862.158	14718.88
862.403	14856.88
862.648	14882.88
862.893	14871.88
863.138	14859.88
863.384	14804.88
863.629	14821.88
863.873	14806.88
864.118	14645.88
864.363	14633.88
864.608	14570.88
864.853	14655.88
865.098	14484.88
865.342	14452.88
865.587	14335.88
865.832	14370.88
866.076	14288.88
866.321	14242.88
866.565	14166.88
866.81	14158.88
867.054	14096.88
867.298	14109.88
867.543	14010.88
867.787	14000.88
868.031	14020.88
868.275	13975.88
868.519	13937.88
868.764	13939.88
869.008	13822.88
869.252	13857.88
869.496	13734.88
869.739	13814.88
869.983	13761.88
870.227	13760.88
870.471	13790.88
870.715	13902.88
870.958	13782.88
871.202	13815.88
871.446	13875.88
871.689	13882.88
871.933	13854.88
872.176	13894.88
872.42	13822.88
872.663	13870.88
872.906	13783.88
873.15	13758.88
873.393	13677.88
873.636	13723.88
873.879	13535.88
874.122	13404.88
874.366	13188.88
874.609	13137.88
874.852	13088.88
875.095	12965.88
875.337	12825.88
875.58	12729.88
875.823	12793.88
876.066	12698.88
876.309	12783.88
876.551	12554.88
876.794	12469.88
877.037	12528.88
877.279	12418.88
877.522	12438.88
877.764	12553.88
878.007	12492.88
878.249	12460.88
878.491	12445.88
878.734	12451.88
878.976	12360.88
879.218	12318.88
879.46	12305.88
879.702	12138.88
879.945	12101.88
880.187	11937.88
880.429	11901.88
880.671	11858.88
880.912	11802.88
881.154	11757.88
881.396	11642.88
881.638	11783.88
881.88	11690.88
882.121	11617.88
882.363	11669.88
882.605	11779.88
882.846	11649.88
883.088	11633.88
883.329	11600.88
883.571	11584.88
883.812	11745.88
884.053	11943.88
884.295	12098.88
884.536	12242.88
884.777	12079.88
885.018	12017.88
885.259	11981.88
885.5	11823.88
885.742	12048.88
885.982	11825.88
886.223	11750.88
886.464	11679.88
886.705	11485.88
886.946	11422.88
887.187	11280.88
887.428	11242.88
887.668	10945.88
887.909	10911.88
888.15	10784.88
888.39	10780.88
888.631	10716.88
888.871	10551.88
889.111	10531.88
889.352	10395.88
889.592	10351.88
889.833	10323.88
890.073	10222.88
890.313	10180.88
890.553	10047.88
890.793	10113.88
891.033	9977.88
891.273	9917.88
891.513	9868.88
891.753	9902.88
891.993	9876.88
892.233	9854.88
892.473	9926.88
892.713	9881.88
892.952	9778.88
893.192	9857.88
893.432	9859.88
893.671	9877.88
893.911	9785.88
894.15	9702.88
894.39	9650.88
894.629	9601.88
894.869	9575.88
895.108	9543.88
895.347	9532.88
895.587	9426.88
895.826	9471.88
896.065	9359.88
896.304	9434.88
896.543	9360.88
896.782	9311.88
897.021	9279.88
897.26	9230.88
897.499	9296.88
897.738	9237.88
897.977	9132.88
898.216	9075.88
898.454	9045.88
898.693	9012.88
898.932	8963.88
899.17	8879.88
899.409	8840.88
899.647	8886.88
899.886	8863.88
900.124	8876.88
900.363	8894.88
900.601	8959.88
900.839	8866.88
901.078	8909.88
901.316	8903.88
901.554	8979.88
901.792	9041.88
902.03	9013.88
902.268	8941.88
902.506	8943.88
902.744	8889.88
902.982	8853.88
903.22	8718.88
903.458	8598.88
903.695	8504.88
903.933	8401.88
904.171	8220.88
904.409	8125.88
904.646	8051.88
904.884	7975.88
905.121	7924.88
905.359	7753.88
905.596	7727.88
905.833	7617.88
906.071	7592.88
906.308	7599.88
906.545	7540.88
906.783	7524.88
907.02	7485.88
907.257	7494.88
907.494	7455.88
907.731	7477.88
907.968	7379.88
908.205	7396.88
908.442	7276.88
908.679	7308.88
908.915	7258.88
909.152	7137.88
909.389	7084.88
909.626	7046.88
909.862	6961.88
910.099	6973.88
910.335	6977.88
910.572	6839.88
910.808	6869.88
911.045	6811.88
911.281	6874.88
911.518	6795.88
911.754	6788.88
911.99	6711.88
912.226	6645.88
912.463	6600.88
912.699	6560.88
912.935	6571.88
913.171	6549.88
913.407	6424.88
913.643	6445.88
913.879	6370.88
914.114	6254.88
914.35	6216.88
914.586	6188.88
914.822	6100.88
915.057	6174.88
915.293	5966.88
915.529	6026.88
915.764	6074.88
916	6032.88
916.235	6023.88
916.471	6019.88
916.706	5839.88
916.941	5893.88
917.177	5923.88
917.412	5947.88
917.647	5933.88
917.882	5848.88
918.117	5876.88
918.352	5881.88
918.588	5923.88
918.823	5788.88
919.057	5705.88
919.292	5564.88
919.527	5660.88
919.762	5571.88
919.997	5535.88
920.232	5472.88
920.466	5432.88
920.701	5309.88
920.935	5327.88
921.17	5300.88
921.405	5258.88
921.639	5311.88
921.873	5222.88
922.108	5260.88
922.342	5244.88
922.576	5160.88
922.811	5124.88
923.045	5195.88
923.279	5172.88
923.513	5002.88
923.747	5124.88
923.981	5079.88
924.215	4984.88
924.449	4959.88
924.683	4923.88
924.917	4921.88
925.151	4881.88
925.385	4955.88
925.618	4897.88
925.852	4875.88
926.086	4838.88
926.319	4798.88
926.553	4784.88
926.786	4817.88
927.02	4820.88
927.253	4841.88
927.486	4826.88
927.72	4697.88
927.953	4820.88
928.186	4779.88
928.42	4774.88
928.653	4674.88
928.886	4712.88
929.119	4655.88
929.352	4659.88
929.585	4616.88
929.818	4568.88
930.051	4557.88
930.284	4510.88
930.516	4427.88
930.749	4460.88
930.982	4492.88
931.215	4391.88
931.447	4364.88
931.68	4378.88
931.912	4347.88
932.145	4351.88
932.377	4333.88
932.61	4497.88
932.842	4276.88
933.074	4360.88
933.307	4263.88
933.539	4367.88
933.771	4332.88
934.003	4287.88
934.236	4381.88
934.468	4367.88
934.7	4299.88
934.932	4315.88
935.164	4241.88
935.395	4176.88
935.627	4272.88
935.859	4252.88
936.091	4206.88
936.323	4218.88
936.554	4258.88
936.786	4128.88
937.017	4129.88
937.249	4160.88
937.481	4041.88
937.712	4162.88
937.943	4109.88
938.175	4021.88
938.406	4093.88
938.637	4167.88
938.869	4020.88
939.1	4082.88
939.331	4019.88
939.562	4047.88
939.793	4054.88
940.024	4034.88
940.255	4067.88
940.486	4011.88
940.717	3967.88
940.948	3931.88
941.179	3903.88
941.409	3880.88
941.64	3889.88
941.871	3869.88
942.102	3887.88
942.332	3921.88
942.563	3961.88
942.793	3931.88
943.024	3829.88
943.254	3872.88
943.484	3926.88
943.715	3888.88
943.945	3840.88
944.175	3829.88
944.405	3762.88
944.636	3778.88
944.866	3852.88
945.096	3817.88
945.326	3738.88
945.556	3824.88
945.786	3794.88
946.016	3704.88
946.245	3701.88
946.475	3712.88
946.705	3702.88
946.935	3620.88
947.164	3628.88
947.394	3586.88
947.624	3665.88
947.853	3631.88
948.083	3602.88
948.312	3523.88
948.542	3494.88
948.771	3470.88
949	3477.88
949.23	3503.88
949.459	3502.88
949.688	3579.88
949.917	3523.88
950.146	3526.88
950.375	3560.88
950.604	3442.88
950.833	3508.88
951.062	3491.88
951.291	3475.88
951.52	3424.88
951.749	3456.88
951.978	3408.88
952.206	3413.88
952.435	3404.88
952.664	3395.88
952.892	3371.88
953.121	3368.88
953.349	3365.88
953.578	3365.88
953.806	3346.88
954.035	3258.88
954.263	3304.88
954.491	3253.88
954.719	3313.88
954.948	3262.88
955.176	3194.88
955.404	3143.88
955.632	3229.88
955.86	3191.88
956.088	3185.88
956.316	3185.88
956.544	3234.88
956.772	3104.88
956.999	3105.88
957.227	3153.88
957.455	3071.88
957.683	3085.88
957.91	3058.88
958.138	3000.88
958.365	3031.88
958.593	2983.88
958.82	2981.88
959.048	3012.88
959.275	2972.88
959.502	2978.88
959.73	2923.88
959.957	2973.88
960.184	3001.88
960.411	2939.88
960.638	2984.88
960.865	2920.88
961.092	2991.88
961.319	2901.88
961.546	2953.88
961.773	2911.88
962	2930.88
962.227	2953.88
962.454	2882.88
962.68	2862.88
962.907	2896.88
963.134	2859.88
963.36	2871.88
963.587	2879.88
963.813	2780.88
964.04	2849.88
964.266	2744.88
964.493	2841.88
964.719	2799.88
964.945	2786.88
965.171	2686.88
965.398	2723.88
965.624	2762.88
965.85	2674.88
966.076	2665.88
966.302	2702.88
966.528	2690.88
966.754	2700.88
966.98	2657.88
967.206	2644.88
967.431	2615.88
967.657	2659.88
967.883	2660.88
968.109	2634.88
968.334	2583.88
968.56	2556.88
968.785	2570.88
969.011	2509.88
969.236	2575.88
969.462	2544.88
969.687	2551.88
969.912	2559.88
970.138	2622.88
970.363	2467.88
970.588	2538.88
970.813	2533.88
971.038	2499.88
971.263	2531.88
971.488	2512.88
971.713	2556.88
971.938	2482.88
972.163	2394.88
972.388	2450.88
972.613	2401.88
972.838	2416.88
973.062	2433.88
973.287	2403.88
973.512	2335.88
973.736	2366.88
973.961	2336.88
974.185	2294.88
974.41	2348.88
974.634	2258.88
974.858	2287.88
975.083	2325.88
975.307	2324.88
975.531	2255.88
975.755	2217.88
975.98	2256.88
976.204	2174.88
976.428	2164.88
976.652	2153.88
976.876	2148.88
977.1	2178.88
977.324	2161.88
977.547	2188.88
977.771	2150.88
977.995	2137.88
978.219	2081.88
978.442	2197.88
978.666	2157.88
978.89	2154.88
979.113	2114.88
979.337	2121.88
979.56	2032.88
979.783	2208.88
980.007	2057.88
980.23	2082.88
980.453	2054.88
980.677	2096.88
980.9	2075.88
981.123	1983.88
981.346	2082.88
981.569	2045.88
981.792	2023.88
982.015	2016.88
982.238	1981.88
982.461	2017.88
982.684	1941.88
982.907	1949.88
983.129	1931.88
983.352	1993.88
983.575	1959.88
983.797	1952.88
984.02	1923.88
984.242	1895.88
984.465	1906.88
984.687	1931.88
984.91	1961.88
985.132	1924.88
985.354	1938.88
985.577	1881.88
985.799	1918.88
986.021	1830.88
986.243	1829.88
986.465	1847.88
986.687	1900.88
986.909	1927.88
987.131	1843.88
987.353	1817.88
987.575	1802.88
987.797	1781.88
988.019	1779.88
988.241	1839.88
988.462	1763.88
988.684	1857.88
988.906	1857.88
989.127	1867.88
989.349	1752.88
989.57	1777.88
989.792	1813.88
990.013	1861.88
990.234	1827.88
990.456	1828.88
990.677	1793.88
990.898	1762.88
991.119	1763.88
991.341	1800.88
991.562	1733.88
991.783	1761.88
992.004	1697.88
992.225	1665.88
992.446	1734.88
992.667	1645.88
992.887	1731.88
993.108	1609.88
993.329	1748.88
993.55	1707.88
993.77	1644.88
993.991	1632.88
994.212	1662.88
994.432	1659.88
994.653	1689.88
994.873	1644.88
995.093	1522.88
995.314	1553.88
995.534	1679.88
995.754	1668.88
995.975	1681.88
996.195	1544.88
996.415	1625.88
996.635	1596.88
996.855	1623.88
997.075	1581.88
997.295	1574.88
997.515	1548.88
997.735	1637.88
997.955	1581.88
998.174	1584.88
998.394	1542.88
998.614	1575.88
998.834	1543.88
999.053	1615.88
999.273	1576.88
999.492	1600.88
999.712	1568.88
999.931	1515.88
1000.151	1567.88
1000.37	1541.88
1000.589	1622.88
1000.809	1516.88
1001.028	1648.88
1001.247	1549.88
1001.466	1457.88
1001.685	1590.88
1001.904	1546.88
1002.123	1530.88
1002.342	1525.88
1002.561	1471.88
1002.78	1514.88
1002.999	1582.88
1003.218	1513.88
1003.436	1490.88
1003.655	1520.88
1003.874	1484.88
1004.092	1492.88
1004.311	1521.88
1004.53	1496.88
1004.748	1561.88
1004.966	1478.88
1005.185	1541.88
1005.403	1540.88
1005.622	1513.88
1005.84	1551.88
1006.058	1456.88
1006.276	1477.88
1006.494	2006.88
1006.712	1487.88
1006.931	1528.88
1007.149	1442.88
1007.367	1476.88
1007.584	1478.88
1007.802	1543.88
1008.02	1456.88
1008.238	1582.88
1008.456	1560.88
1008.673	1424.88
1008.891	1533.88
1009.109	1517.88
1009.326	1527.88
1009.544	1631.88
1009.761	1503.88
1009.979	1624.88
1010.196	1615.88
1010.413	1723.88
1010.631	1766.88
1010.848	1786.88
1011.065	1782.88
1011.282	1748.88
1011.5	1662.88
1011.717	1776.88
1011.934	1729.88
1012.151	1735.88
1012.368	1714.88
1012.585	1659.88
1012.801	1728.88
1013.018	1691.88
1013.235	1662.88
1013.452	1656.88
1013.669	1700.88
1013.885	1664.88
1014.102	1696.88
1014.318	1650.88
1014.535	1609.88
1014.751	1663.88
1014.968	1636.88
1015.184	1691.88
1015.401	1577.88
1015.617	1582.88
1015.833	1559.88
1016.049	1569.88
1016.266	1542.88
1016.482	1517.88
1016.698	1449.88
1016.914	1522.88
1017.13	1467.88
1017.346	1462.88
1017.562	1509.88
1017.778	1470.88
1017.993	1409.88
1018.209	1476.88
1018.425	1454.88
1018.641	1427.88
1018.856	1388.88
1019.072	1435.88
1019.288	1442.88
1019.503	1421.88
1019.719	1321.88
1019.934	1350.88
1020.149	1430.88
1020.365	1360.88
1020.58	1320.88
1020.795	1344.88
1021.011	1285.88
1021.226	1271.88
1021.441	1312.88
1021.656	1220.88
1021.871	1190.88
1022.086	1190.88
1022.301	1170.88
1022.516	1168.88
1022.731	1204.88
1022.946	1138.88
1023.16	1096.88
1023.375	1081.88
1023.59	1048.88
1023.804	1033.88
1024.019	1131.88
1024.234	1009.88
1024.448	1048.88
1024.663	957.88
1024.877	964.88
1025.092	1006.88
1025.306	1009.88
1025.52	896.88
1025.734	988.88
1025.949	933.88
1026.163	873.88
1026.377	831.88
1026.591	895.88
1026.805	817.88
1027.019	812.88
1027.233	759.88
1027.447	724.88
1027.661	816.88
1027.875	763.88
1028.088	786.88
1028.302	723.88
1028.516	693.88
1028.73	697.88
1028.943	685.88
1029.157	642.88
1029.37	611.88
1029.584	-1.12
1029.797	-0.12
1030.011	-0.12
1030.224	-1.12
