Data from QEP037381__102__11-37-55-597.txt Node

Date: Wed Dec 21 11:37:55 EST 2022
User: dcclab
Spectrometer: QEP03738
Trigger mode: 4
Integration Time (sec): 1.000000E1
Scans to average: 1
Electric dark correction enabled: true
Nonlinearity correction enabled: false
Boxcar width: 0
XAxis mode: Wavelengths
Number of Pixels in Spectrum: 1044
>>>>>Begin Spectral Data<<<<<
784.041	11.25
784.3	-0.75
784.558	0.25
784.817	-2.75
785.075	42086.25
785.334	8531.25
785.592	4436.25
785.851	3161.25
786.109	2411.25
786.368	1909.25
786.626	1542.25
786.884	1343.25
787.143	1147.25
787.401	935.25
787.659	891.25
787.917	757.25
788.175	743.25
788.433	645.25
788.691	587.25
788.949	567.25
789.207	575.25
789.465	481.25
789.723	481.25
789.98	437.25
790.238	484.25
790.496	452.25
790.753	446.25
791.011	478.25
791.268	437.25
791.526	430.25
791.783	455.25
792.041	429.25
792.298	357.25
792.556	416.25
792.813	404.25
793.07	385.25
793.327	373.25
793.584	456.25
793.841	378.25
794.099	401.25
794.356	466.25
794.613	358.25
794.869	409.25
795.126	360.25
795.383	354.25
795.64	375.25
795.897	319.25
796.153	394.25
796.41	369.25
796.667	349.25
796.923	354.25
797.18	370.25
797.436	398.25
797.693	358.25
797.949	396.25
798.206	431.25
798.462	335.25
798.718	405.25
798.974	371.25
799.231	410.25
799.487	398.25
799.743	400.25
799.999	430.25
800.255	426.25
800.511	398.25
800.767	424.25
801.023	423.25
801.279	425.25
801.534	449.25
801.79	493.25
802.046	482.25
802.302	576.25
802.557	598.25
802.813	696.25
803.068	784.25
803.324	1047.25
803.579	1351.25
803.835	1793.25
804.09	2437.25
804.345	3113.25
804.601	3885.25
804.856	4714.25
805.111	5473.25
805.366	6016.25
805.621	6419.25
805.876	6714.25
806.131	6883.25
806.386	6929.25
806.641	7087.25
806.896	7175.25
807.151	7423.25
807.406	7511.25
807.661	7610.25
807.915	7752.25
808.17	7878.25
808.425	8004.25
808.679	8000.25
808.934	8113.25
809.188	8274.25
809.443	8354.25
809.697	8426.25
809.951	8416.25
810.206	8499.25
810.46	8625.25
810.714	8686.25
810.968	8844.25
811.223	8751.25
811.477	8915.25
811.731	9043.25
811.985	8935.25
812.239	8935.25
812.493	9040.25
812.747	9140.25
813	9036.25
813.254	9193.25
813.508	9245.25
813.762	9254.25
814.015	9287.25
814.269	9389.25
814.522	9401.25
814.776	9608.25
815.03	9703.25
815.283	9748.25
815.536	9959.25
815.79	10084.25
816.043	10317.25
816.296	10416.25
816.55	10545.25
816.803	10570.25
817.056	10844.25
817.309	10783.25
817.562	10968.25
817.815	11128.25
818.068	11090.25
818.321	11253.25
818.574	11382.25
818.827	11558.25
819.079	11696.25
819.332	11972.25
819.585	12036.25
819.838	12202.25
820.09	12210.25
820.343	12350.25
820.595	12317.25
820.848	12505.25
821.1	12451.25
821.353	12482.25
821.605	12479.25
821.857	12489.25
822.11	12300.25
822.362	12343.25
822.614	12290.25
822.866	12361.25
823.118	12255.25
823.37	12385.25
823.622	12347.25
823.874	12434.25
824.126	12576.25
824.378	12436.25
824.63	12510.25
824.882	12515.25
825.134	12561.25
825.385	12547.25
825.637	12492.25
825.888	12441.25
826.14	12364.25
826.392	12410.25
826.643	12307.25
826.895	12312.25
827.146	12186.25
827.397	12217.25
827.649	12268.25
827.9	12161.25
828.151	12040.25
828.402	12265.25
828.653	12165.25
828.905	12306.25
829.156	12251.25
829.407	12221.25
829.658	12365.25
829.909	12350.25
830.159	12299.25
830.41	12275.25
830.661	12211.25
830.912	12174.25
831.162	12133.25
831.413	12012.25
831.664	12025.25
831.914	11989.25
832.165	11970.25
832.415	12014.25
832.666	11975.25
832.916	12029.25
833.167	11969.25
833.417	12035.25
833.667	11951.25
833.917	11902.25
834.168	11914.25
834.418	11805.25
834.668	11836.25
834.918	11766.25
835.168	11733.25
835.418	11656.25
835.668	11737.25
835.918	11614.25
836.167	11540.25
836.417	11536.25
836.667	11557.25
836.917	11510.25
837.166	11514.25
837.416	11550.25
837.666	11459.25
837.915	11480.25
838.165	11418.25
838.414	11471.25
838.663	11382.25
838.913	11425.25
839.162	11343.25
839.411	11447.25
839.661	11342.25
839.91	11277.25
840.159	11281.25
840.408	11344.25
840.657	11320.25
840.906	11355.25
841.155	11358.25
841.404	11340.25
841.653	11387.25
841.902	11316.25
842.15	11364.25
842.399	11404.25
842.648	11269.25
842.897	11329.25
843.145	11176.25
843.394	11160.25
843.642	11067.25
843.891	11029.25
844.139	10889.25
844.388	10808.25
844.636	10783.25
844.884	10824.25
845.133	10849.25
845.381	10833.25
845.629	10825.25
845.877	10814.25
846.125	10786.25
846.373	10761.25
846.621	10703.25
846.869	10705.25
847.117	10657.25
847.365	10551.25
847.613	10506.25
847.861	10456.25
848.108	10530.25
848.356	10519.25
848.604	10461.25
848.851	10456.25
849.099	10494.25
849.346	10472.25
849.594	10616.25
849.841	10723.25
850.089	10783.25
850.336	10843.25
850.583	10901.25
850.831	10781.25
851.078	10673.25
851.325	10751.25
851.572	10655.25
851.819	10487.25
852.066	10227.25
852.313	10151.25
852.56	10052.25
852.807	9945.25
853.054	9910.25
853.301	9921.25
853.548	9975.25
853.794	10090.25
854.041	10045.25
854.288	10114.25
854.534	10223.25
854.781	10118.25
855.028	10124.25
855.274	10147.25
855.52	10093.25
855.767	10053.25
856.013	10088.25
856.26	10361.25
856.506	9966.25
856.752	9961.25
856.998	9991.25
857.244	9996.25
857.49	9976.25
857.736	10002.25
857.982	10036.25
858.228	10014.25
858.474	9823.25
858.72	9851.25
858.966	9748.25
859.212	9657.25
859.458	9584.25
859.703	9474.25
859.949	9434.25
860.195	9358.25
860.44	9322.25
860.686	9294.25
860.931	9265.25
861.177	9147.25
861.422	9163.25
861.667	9058.25
861.913	9039.25
862.158	9206.25
862.403	9158.25
862.648	9145.25
862.893	9223.25
863.138	9166.25
863.384	9116.25
863.629	9155.25
863.873	9129.25
864.118	9068.25
864.363	8966.25
864.608	9058.25
864.853	8991.25
865.098	8867.25
865.342	8912.25
865.587	8879.25
865.832	8847.25
866.076	8864.25
866.321	8811.25
866.565	8788.25
866.81	8690.25
867.054	8698.25
867.298	8760.25
867.543	8720.25
867.787	8678.25
868.031	8677.25
868.275	8641.25
868.519	8653.25
868.764	8623.25
869.008	8567.25
869.252	8578.25
869.496	8543.25
869.739	8598.25
869.983	8583.25
870.227	8596.25
870.471	8608.25
870.715	8634.25
870.958	8610.25
871.202	8613.25
871.446	8636.25
871.689	8681.25
871.933	8684.25
872.176	8655.25
872.42	8610.25
872.663	8540.25
872.906	8664.25
873.15	8636.25
873.393	8624.25
873.636	8615.25
873.879	8538.25
874.122	8363.25
874.366	8201.25
874.609	8208.25
874.852	8140.25
875.095	8111.25
875.337	7985.25
875.58	7954.25
875.823	8019.25
876.066	7988.25
876.309	7942.25
876.551	7833.25
876.794	7775.25
877.037	7847.25
877.279	7749.25
877.522	7775.25
877.764	7839.25
878.007	7769.25
878.249	7814.25
878.491	7746.25
878.734	7776.25
878.976	7722.25
879.218	7702.25
879.46	7663.25
879.702	7675.25
879.945	7554.25
880.187	7450.25
880.429	7475.25
880.671	7433.25
880.912	7449.25
881.154	7354.25
881.396	7247.25
881.638	7294.25
881.88	7344.25
882.121	7327.25
882.363	7327.25
882.605	7353.25
882.846	7276.25
883.088	7329.25
883.329	7288.25
883.571	7290.25
883.812	7384.25
884.053	7579.25
884.295	7710.25
884.536	7813.25
884.777	7661.25
885.018	7659.25
885.259	7620.25
885.5	7529.25
885.742	7765.25
885.982	7545.25
886.223	7489.25
886.464	7362.25
886.705	7284.25
886.946	7288.25
887.187	7051.25
887.428	7124.25
887.668	6955.25
887.909	6813.25
888.15	6748.25
888.39	6795.25
888.631	6762.25
888.871	6711.25
889.111	6590.25
889.352	6587.25
889.592	6504.25
889.833	6460.25
890.073	6453.25
890.313	6454.25
890.553	6324.25
890.793	6312.25
891.033	6357.25
891.273	6271.25
891.513	6354.25
891.753	6286.25
891.993	6257.25
892.233	6280.25
892.473	6343.25
892.713	6251.25
892.952	6219.25
893.192	6304.25
893.432	6247.25
893.671	6294.25
893.911	6218.25
894.15	6189.25
894.39	6084.25
894.629	6094.25
894.869	6085.25
895.108	6112.25
895.347	6006.25
895.587	6067.25
895.826	6085.25
896.065	5981.25
896.304	6023.25
896.543	6062.25
896.782	5965.25
897.021	6006.25
897.26	5996.25
897.499	6060.25
897.738	6000.25
897.977	5911.25
898.216	5908.25
898.454	5868.25
898.693	5783.25
898.932	5880.25
899.17	5786.25
899.409	5782.25
899.647	5765.25
899.886	5741.25
900.124	5809.25
900.363	5728.25
900.601	5825.25
900.839	5782.25
901.078	5857.25
901.316	5820.25
901.554	5864.25
901.792	5909.25
902.03	5845.25
902.268	5903.25
902.506	5896.25
902.744	5757.25
902.982	5827.25
903.22	5626.25
903.458	5590.25
903.695	5527.25
903.933	5415.25
904.171	5333.25
904.409	5246.25
904.646	5243.25
904.884	5159.25
905.121	5155.25
905.359	5043.25
905.596	5026.25
905.833	4927.25
906.071	4917.25
906.308	4909.25
906.545	4895.25
906.783	4832.25
907.02	4893.25
907.257	4847.25
907.494	4792.25
907.731	4833.25
907.968	4826.25
908.205	4706.25
908.442	4683.25
908.679	4644.25
908.915	4655.25
909.152	4637.25
909.389	4587.25
909.626	4526.25
909.862	4496.25
910.099	4490.25
910.335	4569.25
910.572	4428.25
910.808	4446.25
911.045	4421.25
911.281	4411.25
911.518	4471.25
911.754	4366.25
911.99	4386.25
912.226	4343.25
912.463	4288.25
912.699	4284.25
912.935	4268.25
913.171	4175.25
913.407	4187.25
913.643	4194.25
913.879	4057.25
914.114	4096.25
914.35	4047.25
914.586	3985.25
914.822	3960.25
915.057	4019.25
915.293	3899.25
915.529	3897.25
915.764	3949.25
916	3937.25
916.235	3898.25
916.471	3896.25
916.706	3799.25
916.941	3812.25
917.177	3846.25
917.412	3885.25
917.647	3865.25
917.882	3792.25
918.117	3856.25
918.352	3813.25
918.588	3843.25
918.823	3777.25
919.057	3740.25
919.292	3670.25
919.527	3731.25
919.762	3663.25
919.997	3658.25
920.232	3600.25
920.466	3590.25
920.701	3503.25
920.935	3552.25
921.17	3496.25
921.405	3407.25
921.639	3456.25
921.873	3473.25
922.108	3458.25
922.342	3462.25
922.576	3403.25
922.811	3385.25
923.045	3393.25
923.279	3415.25
923.513	3315.25
923.747	3393.25
923.981	3365.25
924.215	3304.25
924.449	3301.25
924.683	3228.25
924.917	3213.25
925.151	3231.25
925.385	3283.25
925.618	3260.25
925.852	3245.25
926.086	3170.25
926.319	3221.25
926.553	3224.25
926.786	3240.25
927.02	3176.25
927.253	3228.25
927.486	3239.25
927.72	3105.25
927.953	3172.25
928.186	3157.25
928.42	3156.25
928.653	3161.25
928.886	3095.25
929.119	3161.25
929.352	3129.25
929.585	3080.25
929.818	3061.25
930.051	3073.25
930.284	3033.25
930.516	2925.25
930.749	2948.25
930.982	2983.25
931.215	2987.25
931.447	2889.25
931.68	2929.25
931.912	2945.25
932.145	2908.25
932.377	2932.25
932.61	3050.25
932.842	2881.25
933.074	2959.25
933.307	2897.25
933.539	2957.25
933.771	2942.25
934.003	2886.25
934.236	2957.25
934.468	2960.25
934.7	2854.25
934.932	2942.25
935.164	2839.25
935.395	2841.25
935.627	2859.25
935.859	2883.25
936.091	2800.25
936.323	2875.25
936.554	2875.25
936.786	2812.25
937.017	2771.25
937.249	2836.25
937.481	2770.25
937.712	2808.25
937.943	2789.25
938.175	2827.25
938.406	2731.25
938.637	2857.25
938.869	2724.25
939.1	2777.25
939.331	2733.25
939.562	2748.25
939.793	2759.25
940.024	2758.25
940.255	2766.25
940.486	2713.25
940.717	2698.25
940.948	2729.25
941.179	2670.25
941.409	2697.25
941.64	2689.25
941.871	2668.25
942.102	2663.25
942.332	2658.25
942.563	2689.25
942.793	2666.25
943.024	2593.25
943.254	2639.25
943.484	2690.25
943.715	2695.25
943.945	2663.25
944.175	2619.25
944.405	2549.25
944.636	2582.25
944.866	2608.25
945.096	2658.25
945.326	2547.25
945.556	2649.25
945.786	2634.25
946.016	2572.25
946.245	2499.25
946.475	2514.25
946.705	2526.25
946.935	2532.25
947.164	2514.25
947.394	2482.25
947.624	2476.25
947.853	2456.25
948.083	2452.25
948.312	2453.25
948.542	2406.25
948.771	2364.25
949	2415.25
949.23	2421.25
949.459	2410.25
949.688	2496.25
949.917	2408.25
950.146	2430.25
950.375	2444.25
950.604	2370.25
950.833	2478.25
951.062	2415.25
951.291	2385.25
951.52	2339.25
951.749	2341.25
951.978	2342.25
952.206	2316.25
952.435	2343.25
952.664	2345.25
952.892	2367.25
953.121	2329.25
953.349	2376.25
953.578	2335.25
953.806	2330.25
954.035	2282.25
954.263	2316.25
954.491	2238.25
954.719	2297.25
954.948	2233.25
955.176	2231.25
955.404	2169.25
955.632	2252.25
955.86	2206.25
956.088	2191.25
956.316	2219.25
956.544	2225.25
956.772	2203.25
956.999	2158.25
957.227	2263.25
957.455	2114.25
957.683	2156.25
957.91	2122.25
958.138	2110.25
958.365	2141.25
958.593	2116.25
958.82	2045.25
959.048	2141.25
959.275	2103.25
959.502	2102.25
959.73	2079.25
959.957	2101.25
960.184	2104.25
960.411	2053.25
960.638	2141.25
960.865	2084.25
961.092	2124.25
961.319	1987.25
961.546	2123.25
961.773	2085.25
962	2062.25
962.227	2119.25
962.454	2046.25
962.68	2029.25
962.907	2042.25
963.134	1997.25
963.36	1994.25
963.587	2056.25
963.813	1978.25
964.04	2003.25
964.266	1967.25
964.493	2029.25
964.719	1990.25
964.945	2000.25
965.171	1904.25
965.398	1957.25
965.624	1994.25
965.85	1909.25
966.076	1900.25
966.302	1935.25
966.528	1902.25
966.754	1921.25
966.98	1914.25
967.206	1891.25
967.431	1838.25
967.657	1954.25
967.883	1920.25
968.109	1882.25
968.334	1843.25
968.56	1860.25
968.785	1853.25
969.011	1841.25
969.236	1840.25
969.462	1803.25
969.687	1842.25
969.912	1867.25
970.138	1925.25
970.363	1801.25
970.588	1850.25
970.813	1807.25
971.038	1780.25
971.263	1799.25
971.488	1825.25
971.713	1854.25
971.938	1812.25
972.163	1731.25
972.388	1738.25
972.613	1745.25
972.838	1752.25
973.062	1769.25
973.287	1754.25
973.512	1686.25
973.736	1712.25
973.961	1724.25
974.185	1718.25
974.41	1751.25
974.634	1659.25
974.858	1651.25
975.083	1695.25
975.307	1728.25
975.531	1639.25
975.755	1600.25
975.98	1636.25
976.204	1593.25
976.428	1581.25
976.652	1564.25
976.876	1576.25
977.1	1582.25
977.324	1563.25
977.547	1609.25
977.771	1622.25
977.995	1574.25
978.219	1536.25
978.442	1627.25
978.666	1590.25
978.89	1548.25
979.113	1537.25
979.337	1557.25
979.56	1501.25
979.783	1627.25
980.007	1507.25
980.23	1539.25
980.453	1502.25
980.677	1576.25
980.9	1512.25
981.123	1464.25
981.346	1534.25
981.569	1518.25
981.792	1533.25
982.015	1512.25
982.238	1479.25
982.461	1502.25
982.684	1467.25
982.907	1432.25
983.129	1438.25
983.352	1462.25
983.575	1475.25
983.797	1488.25
984.02	1455.25
984.242	1456.25
984.465	1421.25
984.687	1452.25
984.91	1509.25
985.132	1445.25
985.354	1504.25
985.577	1432.25
985.799	1444.25
986.021	1361.25
986.243	1387.25
986.465	1413.25
986.687	1459.25
986.909	1488.25
987.131	1424.25
987.353	1391.25
987.575	1432.25
987.797	1369.25
988.019	1323.25
988.241	1374.25
988.462	1376.25
988.684	1398.25
988.906	1440.25
989.127	1444.25
989.349	1339.25
989.57	1349.25
989.792	1429.25
990.013	1417.25
990.234	1455.25
990.456	1437.25
990.677	1427.25
990.898	1344.25
991.119	1367.25
991.341	1401.25
991.562	1314.25
991.783	1396.25
992.004	1347.25
992.225	1296.25
992.446	1366.25
992.667	1285.25
992.887	1346.25
993.108	1242.25
993.329	1363.25
993.55	1309.25
993.77	1260.25
993.991	1262.25
994.212	1298.25
994.432	1289.25
994.653	1301.25
994.873	1306.25
995.093	1194.25
995.314	1247.25
995.534	1329.25
995.754	1314.25
995.975	1364.25
996.195	1244.25
996.415	1292.25
996.635	1266.25
996.855	1282.25
997.075	1273.25
997.295	1260.25
997.515	1236.25
997.735	1291.25
997.955	1291.25
998.174	1261.25
998.394	1247.25
998.614	1279.25
998.834	1237.25
999.053	1286.25
999.273	1282.25
999.492	1335.25
999.712	1269.25
999.931	1220.25
1000.151	1280.25
1000.37	1230.25
1000.589	1318.25
1000.809	1226.25
1001.028	1354.25
1001.247	1271.25
1001.466	1189.25
1001.685	1304.25
1001.904	1256.25
1002.123	1233.25
1002.342	1258.25
1002.561	1227.25
1002.78	1229.25
1002.999	1310.25
1003.218	1237.25
1003.436	1244.25
1003.655	1264.25
1003.874	1203.25
1004.092	1209.25
1004.311	1285.25
1004.53	1230.25
1004.748	1328.25
1004.966	1245.25
1005.185	1313.25
1005.403	1303.25
1005.622	1263.25
1005.84	1329.25
1006.058	1243.25
1006.276	1252.25
1006.494	1738.25
1006.712	1248.25
1006.931	1328.25
1007.149	1259.25
1007.367	1241.25
1007.584	1282.25
1007.802	1304.25
1008.02	1257.25
1008.238	1343.25
1008.456	1335.25
1008.673	1232.25
1008.891	1317.25
1009.109	1271.25
1009.326	1335.25
1009.544	1396.25
1009.761	1293.25
1009.979	1382.25
1010.196	1384.25
1010.413	1478.25
1010.631	1532.25
1010.848	1556.25
1011.065	1530.25
1011.282	1513.25
1011.5	1448.25
1011.717	1549.25
1011.934	1484.25
1012.151	1511.25
1012.368	1502.25
1012.585	1455.25
1012.801	1503.25
1013.018	1453.25
1013.235	1445.25
1013.452	1467.25
1013.669	1450.25
1013.885	1460.25
1014.102	1513.25
1014.318	1437.25
1014.535	1427.25
1014.751	1447.25
1014.968	1431.25
1015.184	1473.25
1015.401	1355.25
1015.617	1408.25
1015.833	1378.25
1016.049	1372.25
1016.266	1361.25
1016.482	1379.25
1016.698	1283.25
1016.914	1341.25
1017.13	1261.25
1017.346	1270.25
1017.562	1328.25
1017.778	1270.25
1017.993	1258.25
1018.209	1313.25
1018.425	1292.25
1018.641	1240.25
1018.856	1239.25
1019.072	1247.25
1019.288	1307.25
1019.503	1238.25
1019.719	1173.25
1019.934	1194.25
1020.149	1273.25
1020.365	1238.25
1020.58	1160.25
1020.795	1208.25
1021.011	1173.25
1021.226	1135.25
1021.441	1178.25
1021.656	1082.25
1021.871	1033.25
1022.086	1041.25
1022.301	1017.25
1022.516	1044.25
1022.731	1077.25
1022.946	986.25
1023.16	989.25
1023.375	966.25
1023.59	941.25
1023.804	898.25
1024.019	1022.25
1024.234	900.25
1024.448	917.25
1024.663	860.25
1024.877	882.25
1025.092	914.25
1025.306	902.25
1025.52	787.25
1025.734	911.25
1025.949	830.25
1026.163	804.25
1026.377	751.25
1026.591	807.25
1026.805	747.25
1027.019	729.25
1027.233	686.25
1027.447	671.25
1027.661	750.25
1027.875	695.25
1028.088	695.25
1028.302	639.25
1028.516	637.25
1028.73	644.25
1028.943	623.25
1029.157	576.25
1029.37	547.25
1029.584	-0.75
1029.797	-0.75
1030.011	-1.75
1030.224	-4.75
