Data from QEP037381__94__11-36-35-595.txt Node

Date: Wed Dec 21 11:36:35 EST 2022
User: dcclab
Spectrometer: QEP03738
Trigger mode: 4
Integration Time (sec): 1.000000E1
Scans to average: 1
Electric dark correction enabled: true
Nonlinearity correction enabled: false
Boxcar width: 0
XAxis mode: Wavelengths
Number of Pixels in Spectrum: 1044
>>>>>Begin Spectral Data<<<<<
784.041	14
784.3	2
784.558	-4
784.817	-7
785.075	41277
785.334	8304
785.592	4367
785.851	3130
786.109	2380
786.368	1900
786.626	1568
786.884	1345
787.143	1136
787.401	934
787.659	895
787.917	769
788.175	729
788.433	651
788.691	600
788.949	573
789.207	560
789.465	491
789.723	474
789.98	433
790.238	487
790.496	466
790.753	448
791.011	505
791.268	418
791.526	430
791.783	454
792.041	444
792.298	358
792.556	426
792.813	406
793.07	382
793.327	379
793.584	459
793.841	384
794.099	400
794.356	472
794.613	362
794.869	399
795.126	361
795.383	343
795.64	388
795.897	332
796.153	373
796.41	373
796.667	363
796.923	365
797.18	363
797.436	389
797.693	355
797.949	409
798.206	424
798.462	334
798.718	399
798.974	366
799.231	415
799.487	388
799.743	387
799.999	429
800.255	410
800.511	389
800.767	431
801.023	410
801.279	428
801.534	437
801.79	460
802.046	460
802.302	537
802.557	567
802.813	654
803.068	726
803.324	954
803.579	1189
803.835	1555
804.09	2116
804.345	2656
804.601	3275
804.856	4001
805.111	4566
805.366	4934
805.621	5324
805.876	5534
806.131	5732
806.386	5717
806.641	5824
806.896	5946
807.151	6091
807.406	6104
807.661	6224
807.915	6339
808.17	6495
808.425	6567
808.679	6514
808.934	6692
809.188	6712
809.443	6850
809.697	6885
809.951	6964
810.206	6952
810.46	7024
810.714	7124
810.968	7156
811.223	7171
811.477	7340
811.731	7315
811.985	7284
812.239	7300
812.493	7397
812.747	7400
813	7415
813.254	7417
813.508	7459
813.762	7455
814.015	7505
814.269	7557
814.522	7646
814.776	7738
815.03	7799
815.283	7918
815.536	8062
815.79	8182
816.043	8258
816.296	8351
816.55	8454
816.803	8602
817.056	8735
817.309	8747
817.562	8809
817.815	8926
818.068	8935
818.321	9044
818.574	9133
818.827	9319
819.079	9342
819.332	9603
819.585	9686
819.838	9779
820.09	9695
820.343	9861
820.595	9842
820.848	9931
821.1	9998
821.353	9944
821.605	9955
821.857	9923
822.11	9781
822.362	9780
822.614	9745
822.866	9748
823.118	9732
823.37	9914
823.622	9922
823.874	9910
824.126	9950
824.378	9808
824.63	9944
824.882	9941
825.134	10000
825.385	9906
825.637	9844
825.888	9826
826.14	9802
826.392	9740
826.643	9665
826.895	9775
827.146	9627
827.397	9584
827.649	9590
827.9	9554
828.151	9606
828.402	9584
828.653	9674
828.905	9663
829.156	9635
829.407	9672
829.658	9659
829.909	9759
830.159	9785
830.41	9656
830.661	9625
830.912	9515
831.162	9447
831.413	9497
831.664	9472
831.914	9406
832.165	9459
832.415	9446
832.666	9499
832.916	9471
833.167	9436
833.417	9462
833.667	9420
833.917	9328
834.168	9401
834.418	9355
834.668	9290
834.918	9246
835.168	9163
835.418	9073
835.668	9151
835.918	9108
836.167	9132
836.417	8996
836.667	9092
836.917	9093
837.166	9025
837.416	9084
837.666	9052
837.915	9060
838.165	9005
838.414	8991
838.663	8937
838.913	9048
839.162	8997
839.411	9011
839.661	8911
839.91	8908
840.159	8897
840.408	8898
840.657	8932
840.906	8916
841.155	8994
841.404	8910
841.653	8983
841.902	8915
842.15	8960
842.399	8945
842.648	8960
842.897	8902
843.145	8787
843.394	8798
843.642	8707
843.891	8648
844.139	8568
844.388	8421
844.636	8479
844.884	8396
845.133	8450
845.381	8436
845.629	8476
845.877	8403
846.125	8398
846.373	8454
846.621	8319
846.869	8361
847.117	8299
847.365	8185
847.613	8254
847.861	8247
848.108	8293
848.356	8231
848.604	8216
848.851	8240
849.099	8264
849.346	8262
849.594	8330
849.841	8429
850.089	8469
850.336	8560
850.583	8658
850.831	8520
851.078	8485
851.325	8437
851.572	8394
851.819	8324
852.066	8075
852.313	7906
852.56	7845
852.807	7749
853.054	7771
853.301	7763
853.548	7855
853.794	7954
854.041	7863
854.288	7905
854.534	8092
854.781	7960
855.028	7926
855.274	8049
855.52	7952
855.767	7953
856.013	7962
856.26	8180
856.506	7835
856.752	7817
856.998	7826
857.244	7843
857.49	7929
857.736	7948
857.982	7867
858.228	7840
858.474	7755
858.72	7725
858.966	7675
859.212	7555
859.458	7488
859.703	7436
859.949	7314
860.195	7341
860.44	7290
860.686	7189
860.931	7270
861.177	7148
861.422	7147
861.667	7090
861.913	7068
862.158	7097
862.403	7161
862.648	7127
862.893	7152
863.138	7138
863.384	7069
863.629	7127
863.873	7103
864.118	7117
864.363	6987
864.608	7011
864.853	6998
865.098	6988
865.342	6920
865.587	6884
865.832	6935
866.076	6908
866.321	6832
866.565	6894
866.81	6746
867.054	6774
867.298	6748
867.543	6693
867.787	6747
868.031	6767
868.275	6741
868.519	6704
868.764	6711
869.008	6686
869.252	6748
869.496	6723
869.739	6742
869.983	6776
870.227	6863
870.471	6760
870.715	6761
870.958	6776
871.202	6834
871.446	6827
871.689	6796
871.933	6791
872.176	6822
872.42	6838
872.663	6793
872.906	6809
873.15	6827
873.393	6808
873.636	6806
873.879	6752
874.122	6687
874.366	6535
874.609	6464
874.852	6372
875.095	6353
875.337	6309
875.58	6257
875.823	6249
876.066	6254
876.309	6282
876.551	6154
876.794	6149
877.037	6215
877.279	6065
877.522	6111
877.764	6106
878.007	6043
878.249	6080
878.491	6015
878.734	6061
878.976	6054
879.218	5941
879.46	5989
879.702	5949
879.945	5830
880.187	5821
880.429	5751
880.671	5789
880.912	5788
881.154	5709
881.396	5700
881.638	5704
881.88	5673
882.121	5653
882.363	5686
882.605	5715
882.846	5704
883.088	5710
883.329	5734
883.571	5752
883.812	5902
884.053	6047
884.295	6198
884.536	6366
884.777	6217
885.018	6231
885.259	6167
885.5	6083
885.742	6299
885.982	6066
886.223	5962
886.464	5928
886.705	5825
886.946	5697
887.187	5579
887.428	5573
887.668	5425
887.909	5358
888.15	5257
888.39	5238
888.631	5245
888.871	5225
889.111	5169
889.352	5108
889.592	5066
889.833	5041
890.073	4997
890.313	5008
890.553	4896
890.793	4924
891.033	4863
891.273	4859
891.513	4824
891.753	4881
891.993	4823
892.233	4863
892.473	4915
892.713	4867
892.952	4850
893.192	4879
893.432	4834
893.671	4851
893.911	4849
894.15	4764
894.39	4746
894.629	4739
894.869	4714
895.108	4741
895.347	4717
895.587	4739
895.826	4688
896.065	4653
896.304	4691
896.543	4724
896.782	4633
897.021	4677
897.26	4656
897.499	4737
897.738	4725
897.977	4649
898.216	4611
898.454	4605
898.693	4569
898.932	4567
899.17	4590
899.409	4597
899.647	4561
899.886	4561
900.124	4585
900.363	4543
900.601	4582
900.839	4579
901.078	4654
901.316	4692
901.554	4712
901.792	4738
902.03	4671
902.268	4723
902.506	4737
902.744	4674
902.982	4632
903.22	4491
903.458	4470
903.695	4377
903.933	4287
904.171	4160
904.409	4074
904.646	4097
904.884	3996
905.121	3999
905.359	3945
905.596	3913
905.833	3840
906.071	3809
906.308	3839
906.545	3812
906.783	3735
907.02	3731
907.257	3701
907.494	3683
907.731	3701
907.968	3696
908.205	3620
908.442	3649
908.679	3632
908.915	3546
909.152	3577
909.389	3485
909.626	3493
909.862	3463
910.099	3483
910.335	3484
910.572	3334
910.808	3473
911.045	3376
911.281	3382
911.518	3452
911.754	3357
911.99	3332
912.226	3343
912.463	3264
912.699	3301
912.935	3294
913.171	3216
913.407	3158
913.643	3217
913.879	3156
914.114	3141
914.35	3077
914.586	3119
914.822	3043
915.057	3085
915.293	3006
915.529	2947
915.764	3051
916	3009
916.235	3021
916.471	3039
916.706	2890
916.941	2942
917.177	2989
917.412	3004
917.647	2943
917.882	2920
918.117	2990
918.352	2936
918.588	2983
918.823	2881
919.057	2880
919.292	2784
919.527	2872
919.762	2808
919.997	2869
920.232	2789
920.466	2797
920.701	2675
920.935	2746
921.17	2670
921.405	2651
921.639	2708
921.873	2643
922.108	2695
922.342	2683
922.576	2620
922.811	2623
923.045	2699
923.279	2666
923.513	2500
923.747	2628
923.981	2614
924.215	2554
924.449	2552
924.683	2472
924.917	2510
925.151	2528
925.385	2562
925.618	2532
925.852	2492
926.086	2450
926.319	2513
926.553	2457
926.786	2503
927.02	2457
927.253	2519
927.486	2487
927.72	2416
927.953	2510
928.186	2477
928.42	2460
928.653	2440
928.886	2409
929.119	2431
929.352	2430
929.585	2418
929.818	2381
930.051	2403
930.284	2368
930.516	2282
930.749	2340
930.982	2346
931.215	2379
931.447	2271
931.68	2303
931.912	2232
932.145	2277
932.377	2255
932.61	2424
932.842	2192
933.074	2294
933.307	2257
933.539	2321
933.771	2330
934.003	2258
934.236	2354
934.468	2332
934.7	2262
934.932	2291
935.164	2201
935.395	2205
935.627	2245
935.859	2265
936.091	2189
936.323	2224
936.554	2276
936.786	2226
937.017	2146
937.249	2205
937.481	2122
937.712	2219
937.943	2194
938.175	2161
938.406	2177
938.637	2272
938.869	2110
939.1	2172
939.331	2128
939.562	2175
939.793	2153
940.024	2195
940.255	2185
940.486	2125
940.717	2119
940.948	2112
941.179	2073
941.409	2068
941.64	2078
941.871	2112
942.102	2068
942.332	2070
942.563	2087
942.793	2072
943.024	2057
943.254	2072
943.484	2093
943.715	2119
943.945	2094
944.175	2024
944.405	2007
944.636	2023
944.866	2041
945.096	2090
945.326	1946
945.556	2042
945.786	2081
946.016	2029
946.245	1966
946.475	1996
946.705	1970
946.935	1991
947.164	2003
947.394	1952
947.624	1951
947.853	1978
948.083	1975
948.312	1917
948.542	1884
948.771	1863
949	1881
949.23	1893
949.459	1889
949.688	1938
949.917	1916
950.146	1919
950.375	1933
950.604	1845
950.833	1953
951.062	1907
951.291	1884
951.52	1882
951.749	1891
951.978	1856
952.206	1848
952.435	1821
952.664	1882
952.892	1893
953.121	1849
953.349	1897
953.578	1850
953.806	1837
954.035	1753
954.263	1796
954.491	1763
954.719	1839
954.948	1743
955.176	1753
955.404	1691
955.632	1749
955.86	1774
956.088	1739
956.316	1778
956.544	1774
956.772	1716
956.999	1698
957.227	1785
957.455	1705
957.683	1711
957.91	1696
958.138	1698
958.365	1701
958.593	1647
958.82	1625
959.048	1716
959.275	1673
959.502	1646
959.73	1614
959.957	1664
960.184	1679
960.411	1633
960.638	1703
960.865	1652
961.092	1691
961.319	1586
961.546	1661
961.773	1666
962	1632
962.227	1690
962.454	1648
962.68	1614
962.907	1629
963.134	1556
963.36	1598
963.587	1664
963.813	1582
964.04	1636
964.266	1544
964.493	1645
964.719	1584
964.945	1606
965.171	1498
965.398	1551
965.624	1578
965.85	1531
966.076	1523
966.302	1553
966.528	1537
966.754	1551
966.98	1540
967.206	1550
967.431	1486
967.657	1562
967.883	1543
968.109	1508
968.334	1499
968.56	1473
968.785	1473
969.011	1456
969.236	1515
969.462	1460
969.687	1454
969.912	1494
970.138	1528
970.363	1445
970.588	1472
970.813	1433
971.038	1419
971.263	1473
971.488	1468
971.713	1508
971.938	1489
972.163	1380
972.388	1422
972.613	1393
972.838	1410
973.062	1394
973.287	1408
973.512	1357
973.736	1397
973.961	1377
974.185	1348
974.41	1414
974.634	1316
974.858	1336
975.083	1378
975.307	1379
975.531	1351
975.755	1287
975.98	1319
976.204	1286
976.428	1261
976.652	1277
976.876	1282
977.1	1287
977.324	1253
977.547	1316
977.771	1327
977.995	1310
978.219	1214
978.442	1357
978.666	1300
978.89	1262
979.113	1276
979.337	1264
979.56	1214
979.783	1339
980.007	1211
980.23	1270
980.453	1218
980.677	1275
980.9	1261
981.123	1181
981.346	1257
981.569	1233
981.792	1268
982.015	1230
982.238	1206
982.461	1214
982.684	1209
982.907	1178
983.129	1196
983.352	1246
983.575	1218
983.797	1200
984.02	1182
984.242	1166
984.465	1206
984.687	1220
984.91	1226
985.132	1220
985.354	1230
985.577	1207
985.799	1194
986.021	1121
986.243	1133
986.465	1140
986.687	1218
986.909	1257
987.131	1182
987.353	1147
987.575	1182
987.797	1153
988.019	1087
988.241	1177
988.462	1117
988.684	1175
988.906	1204
989.127	1224
989.349	1122
989.57	1155
989.792	1180
990.013	1185
990.234	1222
990.456	1216
990.677	1213
990.898	1171
991.119	1149
991.341	1173
991.562	1122
991.783	1182
992.004	1089
992.225	1102
992.446	1151
992.667	1064
992.887	1161
993.108	1035
993.329	1169
993.55	1138
993.77	1076
993.991	1070
994.212	1139
994.432	1101
994.653	1100
994.873	1108
995.093	999
995.314	1055
995.534	1139
995.754	1154
995.975	1187
996.195	1028
996.415	1093
996.635	1087
996.855	1122
997.075	1086
997.295	1067
997.515	1083
997.735	1112
997.955	1087
998.174	1089
998.394	1058
998.614	1121
998.834	1053
999.053	1135
999.273	1105
999.492	1154
999.712	1105
999.931	1068
1000.151	1112
1000.37	1089
1000.589	1146
1000.809	1061
1001.028	1187
1001.247	1130
1001.466	1029
1001.685	1182
1001.904	1108
1002.123	1127
1002.342	1114
1002.561	1072
1002.78	1114
1002.999	1167
1003.218	1099
1003.436	1104
1003.655	1122
1003.874	1079
1004.092	1101
1004.311	1142
1004.53	1103
1004.748	1163
1004.966	1101
1005.185	1144
1005.403	1158
1005.622	1127
1005.84	1197
1006.058	1097
1006.276	1137
1006.494	1617
1006.712	1120
1006.931	1199
1007.149	1095
1007.367	1096
1007.584	1156
1007.802	1193
1008.02	1130
1008.238	1218
1008.456	1202
1008.673	1107
1008.891	1197
1009.109	1154
1009.326	1225
1009.544	1335
1009.761	1223
1009.979	1305
1010.196	1321
1010.413	1430
1010.631	1442
1010.848	1485
1011.065	1494
1011.282	1416
1011.5	1374
1011.717	1487
1011.934	1406
1012.151	1475
1012.368	1434
1012.585	1426
1012.801	1475
1013.018	1420
1013.235	1378
1013.452	1423
1013.669	1428
1013.885	1396
1014.102	1438
1014.318	1408
1014.535	1386
1014.751	1410
1014.968	1411
1015.184	1422
1015.401	1340
1015.617	1385
1015.833	1318
1016.049	1366
1016.266	1330
1016.482	1331
1016.698	1263
1016.914	1325
1017.13	1268
1017.346	1263
1017.562	1320
1017.778	1245
1017.993	1208
1018.209	1259
1018.425	1268
1018.641	1237
1018.856	1184
1019.072	1233
1019.288	1263
1019.503	1225
1019.719	1142
1019.934	1145
1020.149	1247
1020.365	1185
1020.58	1130
1020.795	1168
1021.011	1119
1021.226	1093
1021.441	1100
1021.656	1056
1021.871	992
1022.086	997
1022.301	1001
1022.516	987
1022.731	1056
1022.946	970
1023.16	939
1023.375	927
1023.59	900
1023.804	872
1024.019	985
1024.234	858
1024.448	903
1024.663	796
1024.877	841
1025.092	855
1025.306	850
1025.52	751
1025.734	871
1025.949	791
1026.163	770
1026.377	684
1026.591	765
1026.805	697
1027.019	700
1027.233	640
1027.447	600
1027.661	709
1027.875	673
1028.088	677
1028.302	601
1028.516	597
1028.73	598
1028.943	604
1029.157	555
1029.37	526
1029.584	0
1029.797	-3
1030.011	-1
1030.224	-1
