Data from QEP037381__80__11-34-15-596.txt Node

Date: Wed Dec 21 11:34:15 EST 2022
User: dcclab
Spectrometer: QEP03738
Trigger mode: 4
Integration Time (sec): 1.000000E1
Scans to average: 1
Electric dark correction enabled: true
Nonlinearity correction enabled: false
Boxcar width: 0
XAxis mode: Wavelengths
Number of Pixels in Spectrum: 1044
>>>>>Begin Spectral Data<<<<<
784.041	9.25
784.3	-2.75
784.558	-1.75
784.817	-3.75
785.075	42430.25
785.334	8632.25
785.592	4492.25
785.851	3219.25
786.109	2446.25
786.368	1956.25
786.626	1599.25
786.884	1388.25
787.143	1161.25
787.401	981.25
787.659	936.25
787.917	796.25
788.175	752.25
788.433	667.25
788.691	613.25
788.949	565.25
789.207	574.25
789.465	500.25
789.723	461.25
789.98	439.25
790.238	492.25
790.496	453.25
790.753	440.25
791.011	489.25
791.268	448.25
791.526	422.25
791.783	446.25
792.041	439.25
792.298	352.25
792.556	415.25
792.813	404.25
793.07	388.25
793.327	376.25
793.584	468.25
793.841	375.25
794.099	409.25
794.356	472.25
794.613	377.25
794.869	412.25
795.126	365.25
795.383	357.25
795.64	372.25
795.897	334.25
796.153	397.25
796.41	371.25
796.667	366.25
796.923	357.25
797.18	346.25
797.436	387.25
797.693	352.25
797.949	411.25
798.206	426.25
798.462	341.25
798.718	401.25
798.974	375.25
799.231	409.25
799.487	384.25
799.743	398.25
799.999	432.25
800.255	417.25
800.511	402.25
800.767	434.25
801.023	407.25
801.279	433.25
801.534	453.25
801.79	477.25
802.046	465.25
802.302	555.25
802.557	615.25
802.813	728.25
803.068	808.25
803.324	1081.25
803.579	1399.25
803.835	1848.25
804.09	2545.25
804.345	3219.25
804.601	3961.25
804.856	4777.25
805.111	5462.25
805.366	5993.25
805.621	6336.25
805.876	6634.25
806.131	6745.25
806.386	6867.25
806.641	6947.25
806.896	7120.25
807.151	7299.25
807.406	7263.25
807.661	7424.25
807.915	7550.25
808.17	7743.25
808.425	7801.25
808.679	7882.25
808.934	7948.25
809.188	7992.25
809.443	8142.25
809.697	8192.25
809.951	8288.25
810.206	8300.25
810.46	8339.25
810.714	8486.25
810.968	8553.25
811.223	8528.25
811.477	8671.25
811.731	8719.25
811.985	8770.25
812.239	8697.25
812.493	8798.25
812.747	8864.25
813	8792.25
813.254	8893.25
813.508	8983.25
813.762	8972.25
814.015	8933.25
814.269	9084.25
814.522	9184.25
814.776	9240.25
815.03	9367.25
815.283	9510.25
815.536	9668.25
815.79	9771.25
816.043	9943.25
816.296	10024.25
816.55	10155.25
816.803	10234.25
817.056	10437.25
817.309	10473.25
817.562	10595.25
817.815	10674.25
818.068	10728.25
818.321	10834.25
818.574	10944.25
818.827	11126.25
819.079	11208.25
819.332	11513.25
819.585	11560.25
819.838	11727.25
820.09	11740.25
820.343	11866.25
820.595	11754.25
820.848	11968.25
821.1	11990.25
821.353	11909.25
821.605	11935.25
821.857	11937.25
822.11	11814.25
822.362	11817.25
822.614	11788.25
822.866	11825.25
823.118	11790.25
823.37	11873.25
823.622	11806.25
823.874	11943.25
824.126	11959.25
824.378	11962.25
824.63	11943.25
824.882	11984.25
825.134	11966.25
825.385	11920.25
825.637	11881.25
825.888	11884.25
826.14	11839.25
826.392	11813.25
826.643	11712.25
826.895	11738.25
827.146	11561.25
827.397	11552.25
827.649	11629.25
827.9	11627.25
828.151	11576.25
828.402	11623.25
828.653	11631.25
828.905	11692.25
829.156	11746.25
829.407	11581.25
829.658	11711.25
829.909	11795.25
830.159	11798.25
830.41	11734.25
830.661	11611.25
830.912	11503.25
831.162	11464.25
831.413	11478.25
831.664	11548.25
831.914	11556.25
832.165	11518.25
832.415	11466.25
832.666	11407.25
832.916	11549.25
833.167	11425.25
833.417	11418.25
833.667	11392.25
833.917	11351.25
834.168	11311.25
834.418	11299.25
834.668	11256.25
834.918	11225.25
835.168	11189.25
835.418	11069.25
835.668	11137.25
835.918	11152.25
836.167	10996.25
836.417	10976.25
836.667	11016.25
836.917	11009.25
837.166	10983.25
837.416	11015.25
837.666	10954.25
837.915	10968.25
838.165	10894.25
838.414	10856.25
838.663	10849.25
838.913	10852.25
839.162	10919.25
839.411	10915.25
839.661	10824.25
839.91	10837.25
840.159	10791.25
840.408	10792.25
840.657	10836.25
840.906	10843.25
841.155	10904.25
841.404	10756.25
841.653	10771.25
841.902	10809.25
842.15	10878.25
842.399	10903.25
842.648	10860.25
842.897	10765.25
843.145	10684.25
843.394	10671.25
843.642	10514.25
843.891	10537.25
844.139	10456.25
844.388	10319.25
844.636	10287.25
844.884	10238.25
845.133	10286.25
845.381	10272.25
845.629	10370.25
845.877	10274.25
846.125	10285.25
846.373	10262.25
846.621	10192.25
846.869	10182.25
847.117	10031.25
847.365	10033.25
847.613	9999.25
847.861	9989.25
848.108	10098.25
848.356	10047.25
848.604	10064.25
848.851	10039.25
849.099	10037.25
849.346	10000.25
849.594	10134.25
849.841	10237.25
850.089	10262.25
850.336	10291.25
850.583	10351.25
850.831	10334.25
851.078	10263.25
851.325	10134.25
851.572	10151.25
851.819	10045.25
852.066	9750.25
852.313	9701.25
852.56	9547.25
852.807	9493.25
853.054	9531.25
853.301	9514.25
853.548	9473.25
853.794	9565.25
854.041	9598.25
854.288	9564.25
854.534	9779.25
854.781	9715.25
855.028	9602.25
855.274	9716.25
855.52	9611.25
855.767	9663.25
856.013	9739.25
856.26	9917.25
856.506	9527.25
856.752	9579.25
856.998	9560.25
857.244	9559.25
857.49	9613.25
857.736	9561.25
857.982	9583.25
858.228	9578.25
858.474	9413.25
858.72	9361.25
858.966	9328.25
859.212	9237.25
859.458	9118.25
859.703	8983.25
859.949	8916.25
860.195	8887.25
860.44	8871.25
860.686	8800.25
860.931	8853.25
861.177	8759.25
861.422	8789.25
861.667	8633.25
861.913	8635.25
862.158	8668.25
862.403	8714.25
862.648	8704.25
862.893	8689.25
863.138	8706.25
863.384	8649.25
863.629	8690.25
863.873	8630.25
864.118	8627.25
864.363	8554.25
864.608	8517.25
864.853	8562.25
865.098	8536.25
865.342	8490.25
865.587	8477.25
865.832	8417.25
866.076	8435.25
866.321	8378.25
866.565	8364.25
866.81	8271.25
867.054	8276.25
867.298	8311.25
867.543	8259.25
867.787	8293.25
868.031	8216.25
868.275	8160.25
868.519	8206.25
868.764	8277.25
869.008	8159.25
869.252	8185.25
869.496	8155.25
869.739	8153.25
869.983	8216.25
870.227	8243.25
870.471	8192.25
870.715	8229.25
870.958	8259.25
871.202	8251.25
871.446	8279.25
871.689	8270.25
871.933	8325.25
872.176	8329.25
872.42	8238.25
872.663	8258.25
872.906	8304.25
873.15	8305.25
873.393	8193.25
873.636	8194.25
873.879	8189.25
874.122	8036.25
874.366	7898.25
874.609	7889.25
874.852	7779.25
875.095	7709.25
875.337	7678.25
875.58	7590.25
875.823	7626.25
876.066	7627.25
876.309	7649.25
876.551	7466.25
876.794	7438.25
877.037	7523.25
877.279	7407.25
877.522	7412.25
877.764	7459.25
878.007	7418.25
878.249	7366.25
878.491	7371.25
878.734	7450.25
878.976	7401.25
879.218	7265.25
879.46	7306.25
879.702	7274.25
879.945	7163.25
880.187	7125.25
880.429	7090.25
880.671	7065.25
880.912	7018.25
881.154	6994.25
881.396	6893.25
881.638	7001.25
881.88	7010.25
882.121	6895.25
882.363	6942.25
882.605	6980.25
882.846	6980.25
883.088	7009.25
883.329	7004.25
883.571	7006.25
883.812	7136.25
884.053	7336.25
884.295	7539.25
884.536	7696.25
884.777	7500.25
885.018	7439.25
885.259	7462.25
885.5	7287.25
885.742	7482.25
885.982	7332.25
886.223	7199.25
886.464	7150.25
886.705	7008.25
886.946	6962.25
887.187	6865.25
887.428	6791.25
887.668	6619.25
887.909	6523.25
888.15	6500.25
888.39	6420.25
888.631	6426.25
888.871	6373.25
889.111	6352.25
889.352	6322.25
889.592	6161.25
889.833	6126.25
890.073	6109.25
890.313	6140.25
890.553	5947.25
890.793	5999.25
891.033	5936.25
891.273	5905.25
891.513	5927.25
891.753	5959.25
891.993	5919.25
892.233	5884.25
892.473	5938.25
892.713	5953.25
892.952	5930.25
893.192	5924.25
893.432	5839.25
893.671	5933.25
893.911	5907.25
894.15	5923.25
894.39	5793.25
894.629	5779.25
894.869	5800.25
895.108	5741.25
895.347	5686.25
895.587	5741.25
895.826	5664.25
896.065	5649.25
896.304	5675.25
896.543	5764.25
896.782	5631.25
897.021	5705.25
897.26	5631.25
897.499	5710.25
897.738	5748.25
897.977	5678.25
898.216	5619.25
898.454	5560.25
898.693	5487.25
898.932	5524.25
899.17	5514.25
899.409	5537.25
899.647	5518.25
899.886	5488.25
900.124	5531.25
900.363	5396.25
900.601	5572.25
900.839	5597.25
901.078	5564.25
901.316	5646.25
901.554	5693.25
901.792	5669.25
902.03	5633.25
902.268	5644.25
902.506	5656.25
902.744	5542.25
902.982	5612.25
903.22	5414.25
903.458	5340.25
903.695	5284.25
903.933	5233.25
904.171	5079.25
904.409	5041.25
904.646	4997.25
904.884	4846.25
905.121	4898.25
905.359	4777.25
905.596	4742.25
905.833	4633.25
906.071	4651.25
906.308	4671.25
906.545	4637.25
906.783	4572.25
907.02	4593.25
907.257	4524.25
907.494	4566.25
907.731	4534.25
907.968	4553.25
908.205	4454.25
908.442	4438.25
908.679	4427.25
908.915	4418.25
909.152	4375.25
909.389	4246.25
909.626	4259.25
909.862	4243.25
910.099	4226.25
910.335	4249.25
910.572	4156.25
910.808	4246.25
911.045	4176.25
911.281	4182.25
911.518	4192.25
911.754	4089.25
911.99	4120.25
912.226	4092.25
912.463	4009.25
912.699	4007.25
912.935	3997.25
913.171	3954.25
913.407	3878.25
913.643	3937.25
913.879	3838.25
914.114	3851.25
914.35	3781.25
914.586	3779.25
914.822	3736.25
915.057	3775.25
915.293	3619.25
915.529	3646.25
915.764	3731.25
916	3677.25
916.235	3630.25
916.471	3699.25
916.706	3591.25
916.941	3663.25
917.177	3646.25
917.412	3673.25
917.647	3616.25
917.882	3606.25
918.117	3600.25
918.352	3568.25
918.588	3648.25
918.823	3546.25
919.057	3525.25
919.292	3393.25
919.527	3506.25
919.762	3437.25
919.997	3457.25
920.232	3380.25
920.466	3402.25
920.701	3265.25
920.935	3336.25
921.17	3295.25
921.405	3241.25
921.639	3280.25
921.873	3259.25
922.108	3257.25
922.342	3255.25
922.576	3200.25
922.811	3171.25
923.045	3256.25
923.279	3239.25
923.513	3126.25
923.747	3145.25
923.981	3158.25
924.215	3099.25
924.449	3085.25
924.683	3048.25
924.917	3047.25
925.151	3078.25
925.385	3075.25
925.618	3027.25
925.852	3073.25
926.086	2962.25
926.319	3038.25
926.553	2988.25
926.786	3013.25
927.02	3014.25
927.253	3042.25
927.486	3027.25
927.72	2938.25
927.953	3053.25
928.186	2970.25
928.42	3013.25
928.653	2932.25
928.886	2933.25
929.119	2972.25
929.352	2929.25
929.585	2931.25
929.818	2848.25
930.051	2846.25
930.284	2855.25
930.516	2799.25
930.749	2771.25
930.982	2846.25
931.215	2798.25
931.447	2724.25
931.68	2738.25
931.912	2742.25
932.145	2754.25
932.377	2765.25
932.61	2876.25
932.842	2674.25
933.074	2737.25
933.307	2708.25
933.539	2796.25
933.771	2783.25
934.003	2727.25
934.236	2781.25
934.468	2790.25
934.7	2747.25
934.932	2774.25
935.164	2679.25
935.395	2688.25
935.627	2697.25
935.859	2735.25
936.091	2652.25
936.323	2725.25
936.554	2717.25
936.786	2653.25
937.017	2629.25
937.249	2672.25
937.481	2573.25
937.712	2688.25
937.943	2617.25
938.175	2623.25
938.406	2617.25
938.637	2665.25
938.869	2584.25
939.1	2651.25
939.331	2568.25
939.562	2603.25
939.793	2614.25
940.024	2639.25
940.255	2621.25
940.486	2504.25
940.717	2530.25
940.948	2556.25
941.179	2473.25
941.409	2508.25
941.64	2476.25
941.871	2539.25
942.102	2485.25
942.332	2462.25
942.563	2503.25
942.793	2476.25
943.024	2431.25
943.254	2497.25
943.484	2522.25
943.715	2535.25
943.945	2489.25
944.175	2433.25
944.405	2421.25
944.636	2449.25
944.866	2475.25
945.096	2498.25
945.326	2400.25
945.556	2487.25
945.786	2467.25
946.016	2423.25
946.245	2370.25
946.475	2372.25
946.705	2330.25
946.935	2394.25
947.164	2357.25
947.394	2319.25
947.624	2331.25
947.853	2347.25
948.083	2360.25
948.312	2295.25
948.542	2262.25
948.771	2208.25
949	2250.25
949.23	2267.25
949.459	2286.25
949.688	2343.25
949.917	2279.25
950.146	2289.25
950.375	2367.25
950.604	2235.25
950.833	2330.25
951.062	2309.25
951.291	2255.25
951.52	2226.25
951.749	2219.25
951.978	2197.25
952.206	2198.25
952.435	2185.25
952.664	2232.25
952.892	2246.25
953.121	2186.25
953.349	2246.25
953.578	2189.25
953.806	2189.25
954.035	2142.25
954.263	2177.25
954.491	2127.25
954.719	2174.25
954.948	2120.25
955.176	2125.25
955.404	2049.25
955.632	2102.25
955.86	2125.25
956.088	2077.25
956.316	2118.25
956.544	2160.25
956.772	2070.25
956.999	2054.25
957.227	2138.25
957.455	2019.25
957.683	2020.25
957.91	1978.25
958.138	1982.25
958.365	2029.25
958.593	1971.25
958.82	1920.25
959.048	1997.25
959.275	1967.25
959.502	1947.25
959.73	1935.25
959.957	1993.25
960.184	1988.25
960.411	1917.25
960.638	2003.25
960.865	1944.25
961.092	1981.25
961.319	1878.25
961.546	1956.25
961.773	1974.25
962	1932.25
962.227	1992.25
962.454	1923.25
962.68	1913.25
962.907	1951.25
963.134	1890.25
963.36	1908.25
963.587	1930.25
963.813	1858.25
964.04	1892.25
964.266	1858.25
964.493	1907.25
964.719	1898.25
964.945	1875.25
965.171	1815.25
965.398	1839.25
965.624	1864.25
965.85	1774.25
966.076	1812.25
966.302	1834.25
966.528	1815.25
966.754	1838.25
966.98	1796.25
967.206	1781.25
967.431	1745.25
967.657	1816.25
967.883	1783.25
968.109	1771.25
968.334	1742.25
968.56	1723.25
968.785	1745.25
969.011	1712.25
969.236	1766.25
969.462	1713.25
969.687	1712.25
969.912	1765.25
970.138	1806.25
970.363	1684.25
970.588	1718.25
970.813	1693.25
971.038	1686.25
971.263	1714.25
971.488	1722.25
971.713	1755.25
971.938	1733.25
972.163	1623.25
972.388	1668.25
972.613	1644.25
972.838	1638.25
973.062	1666.25
973.287	1648.25
973.512	1606.25
973.736	1613.25
973.961	1628.25
974.185	1605.25
974.41	1631.25
974.634	1552.25
974.858	1579.25
975.083	1615.25
975.307	1610.25
975.531	1569.25
975.755	1557.25
975.98	1554.25
976.204	1486.25
976.428	1465.25
976.652	1495.25
976.876	1456.25
977.1	1530.25
977.324	1457.25
977.547	1546.25
977.771	1548.25
977.995	1498.25
978.219	1440.25
978.442	1558.25
978.666	1488.25
978.89	1477.25
979.113	1507.25
979.337	1479.25
979.56	1453.25
979.783	1540.25
980.007	1429.25
980.23	1454.25
980.453	1440.25
980.677	1449.25
980.9	1472.25
981.123	1362.25
981.346	1472.25
981.569	1426.25
981.792	1456.25
982.015	1431.25
982.238	1388.25
982.461	1412.25
982.684	1399.25
982.907	1353.25
983.129	1370.25
983.352	1432.25
983.575	1390.25
983.797	1385.25
984.02	1346.25
984.242	1367.25
984.465	1384.25
984.687	1399.25
984.91	1419.25
985.132	1371.25
985.354	1395.25
985.577	1373.25
985.799	1347.25
986.021	1306.25
986.243	1310.25
986.465	1334.25
986.687	1404.25
986.909	1410.25
987.131	1344.25
987.353	1319.25
987.575	1353.25
987.797	1323.25
988.019	1276.25
988.241	1320.25
988.462	1280.25
988.684	1348.25
988.906	1375.25
989.127	1394.25
989.349	1269.25
989.57	1296.25
989.792	1367.25
990.013	1364.25
990.234	1382.25
990.456	1391.25
990.677	1375.25
990.898	1291.25
991.119	1315.25
991.341	1339.25
991.562	1271.25
991.783	1304.25
992.004	1250.25
992.225	1223.25
992.446	1310.25
992.667	1197.25
992.887	1304.25
993.108	1185.25
993.329	1295.25
993.55	1284.25
993.77	1204.25
993.991	1226.25
994.212	1261.25
994.432	1267.25
994.653	1227.25
994.873	1260.25
995.093	1151.25
995.314	1208.25
995.534	1276.25
995.754	1282.25
995.975	1293.25
996.195	1195.25
996.415	1250.25
996.635	1241.25
996.855	1242.25
997.075	1230.25
997.295	1210.25
997.515	1189.25
997.735	1266.25
997.955	1217.25
998.174	1212.25
998.394	1195.25
998.614	1236.25
998.834	1202.25
999.053	1241.25
999.273	1252.25
999.492	1294.25
999.712	1195.25
999.931	1168.25
1000.151	1215.25
1000.37	1233.25
1000.589	1267.25
1000.809	1181.25
1001.028	1309.25
1001.247	1240.25
1001.466	1134.25
1001.685	1277.25
1001.904	1227.25
1002.123	1212.25
1002.342	1212.25
1002.561	1164.25
1002.78	1186.25
1002.999	1294.25
1003.218	1218.25
1003.436	1185.25
1003.655	1261.25
1003.874	1180.25
1004.092	1195.25
1004.311	1247.25
1004.53	1217.25
1004.748	1280.25
1004.966	1199.25
1005.185	1267.25
1005.403	1227.25
1005.622	1216.25
1005.84	1294.25
1006.058	1190.25
1006.276	1231.25
1006.494	1714.25
1006.712	1216.25
1006.931	1290.25
1007.149	1185.25
1007.367	1206.25
1007.584	1238.25
1007.802	1307.25
1008.02	1219.25
1008.238	1323.25
1008.456	1307.25
1008.673	1186.25
1008.891	1290.25
1009.109	1296.25
1009.326	1297.25
1009.544	1401.25
1009.761	1301.25
1009.979	1430.25
1010.196	1420.25
1010.413	1523.25
1010.631	1547.25
1010.848	1582.25
1011.065	1600.25
1011.282	1555.25
1011.5	1495.25
1011.717	1620.25
1011.934	1521.25
1012.151	1569.25
1012.368	1543.25
1012.585	1497.25
1012.801	1536.25
1013.018	1513.25
1013.235	1492.25
1013.452	1521.25
1013.669	1534.25
1013.885	1513.25
1014.102	1556.25
1014.318	1547.25
1014.535	1473.25
1014.751	1530.25
1014.968	1493.25
1015.184	1524.25
1015.401	1440.25
1015.617	1480.25
1015.833	1452.25
1016.049	1413.25
1016.266	1411.25
1016.482	1378.25
1016.698	1351.25
1016.914	1379.25
1017.13	1337.25
1017.346	1334.25
1017.562	1381.25
1017.778	1337.25
1017.993	1307.25
1018.209	1345.25
1018.425	1339.25
1018.641	1286.25
1018.856	1267.25
1019.072	1301.25
1019.288	1329.25
1019.503	1312.25
1019.719	1210.25
1019.934	1234.25
1020.149	1315.25
1020.365	1247.25
1020.58	1179.25
1020.795	1248.25
1021.011	1187.25
1021.226	1145.25
1021.441	1193.25
1021.656	1120.25
1021.871	1051.25
1022.086	1070.25
1022.301	1071.25
1022.516	1051.25
1022.731	1109.25
1022.946	1008.25
1023.16	1000.25
1023.375	974.25
1023.59	942.25
1023.804	928.25
1024.019	1009.25
1024.234	907.25
1024.448	943.25
1024.663	870.25
1024.877	891.25
1025.092	890.25
1025.306	910.25
1025.52	811.25
1025.734	885.25
1025.949	821.25
1026.163	790.25
1026.377	757.25
1026.591	804.25
1026.805	741.25
1027.019	724.25
1027.233	678.25
1027.447	663.25
1027.661	747.25
1027.875	690.25
1028.088	721.25
1028.302	640.25
1028.516	628.25
1028.73	624.25
1028.943	619.25
1029.157	581.25
1029.37	550.25
1029.584	0.25
1029.797	0.25
1030.011	-0.75
1030.224	-0.75
