Data from QEP037381__17__11-23-45-593.txt Node

Date: Wed Dec 21 11:23:45 EST 2022
User: dcclab
Spectrometer: QEP03738
Trigger mode: 4
Integration Time (sec): 1.000000E1
Scans to average: 1
Electric dark correction enabled: true
Nonlinearity correction enabled: false
Boxcar width: 0
XAxis mode: Wavelengths
Number of Pixels in Spectrum: 1044
>>>>>Begin Spectral Data<<<<<
784.041	12.62
784.3	1.62
784.558	-2.38
784.817	-5.38
785.075	38040.62
785.334	7754.62
785.592	4122.62
785.851	2950.62
786.109	2282.62
786.368	1822.62
786.626	1488.62
786.884	1273.62
787.143	1102.62
787.401	885.62
787.659	856.62
787.917	754.62
788.175	709.62
788.433	633.62
788.691	574.62
788.949	554.62
789.207	543.62
789.465	467.62
789.723	474.62
789.98	434.62
790.238	483.62
790.496	467.62
790.753	453.62
791.011	485.62
791.268	435.62
791.526	437.62
791.783	462.62
792.041	439.62
792.298	359.62
792.556	423.62
792.813	412.62
793.07	376.62
793.327	382.62
793.584	461.62
793.841	376.62
794.099	412.62
794.356	460.62
794.613	372.62
794.869	411.62
795.126	375.62
795.383	351.62
795.64	378.62
795.897	335.62
796.153	399.62
796.41	386.62
796.667	364.62
796.923	366.62
797.18	378.62
797.436	403.62
797.693	353.62
797.949	423.62
798.206	431.62
798.462	354.62
798.718	417.62
798.974	384.62
799.231	429.62
799.487	415.62
799.743	417.62
799.999	448.62
800.255	441.62
800.511	417.62
800.767	457.62
801.023	436.62
801.279	467.62
801.534	493.62
801.79	537.62
802.046	528.62
802.302	641.62
802.557	705.62
802.813	850.62
803.068	1005.62
803.324	1359.62
803.579	1815.62
803.835	2469.62
804.09	3361.62
804.345	4243.62
804.601	5289.62
804.856	6378.62
805.111	7346.62
805.366	8035.62
805.621	8559.62
805.876	9002.62
806.131	9272.62
806.386	9386.62
806.641	9531.62
806.896	9707.62
807.151	9951.62
807.406	10052.62
807.661	10243.62
807.915	10418.62
808.17	10560.62
808.425	10654.62
808.679	10789.62
808.934	10904.62
809.188	10907.62
809.443	11077.62
809.697	11210.62
809.951	11239.62
810.206	11368.62
810.46	11522.62
810.714	11561.62
810.968	11675.62
811.223	11748.62
811.477	11845.62
811.731	11980.62
811.985	11946.62
812.239	12005.62
812.493	12098.62
812.747	12050.62
813	12148.62
813.254	12174.62
813.508	12271.62
813.762	12249.62
814.015	12376.62
814.269	12407.62
814.522	12508.62
814.776	12752.62
815.03	12809.62
815.283	13097.62
815.536	13197.62
815.79	13429.62
816.043	13574.62
816.296	13771.62
816.55	13924.62
816.803	14096.62
817.056	14286.62
817.309	14352.62
817.562	14533.62
817.815	14641.62
818.068	14778.62
818.321	14798.62
818.574	15065.62
818.827	15273.62
819.079	15371.62
819.332	15666.62
819.585	15868.62
819.838	16030.62
820.09	16134.62
820.343	16241.62
820.595	16165.62
820.848	16421.62
821.1	16493.62
821.353	16393.62
821.605	16362.62
821.857	16399.62
822.11	16226.62
822.362	16307.62
822.614	16211.62
822.866	16307.62
823.118	16231.62
823.37	16307.62
823.622	16266.62
823.874	16260.62
824.126	16463.62
824.378	16472.62
824.63	16498.62
824.882	16452.62
825.134	16463.62
825.385	16396.62
825.637	16376.62
825.888	16345.62
826.14	16310.62
826.392	16197.62
826.643	16123.62
826.895	16037.62
827.146	15978.62
827.397	15974.62
827.649	16028.62
827.9	15904.62
828.151	16018.62
828.402	16030.62
828.653	16108.62
828.905	16145.62
829.156	16087.62
829.407	16127.62
829.658	16029.62
829.909	16208.62
830.159	16236.62
830.41	16015.62
830.661	16059.62
830.912	15862.62
831.162	15799.62
831.413	15775.62
831.664	15865.62
831.914	15767.62
832.165	15716.62
832.415	15701.62
832.666	15807.62
832.916	15898.62
833.167	15726.62
833.417	15754.62
833.667	15625.62
833.917	15588.62
834.168	15588.62
834.418	15546.62
834.668	15456.62
834.918	15362.62
835.168	15274.62
835.418	15186.62
835.668	15183.62
835.918	15214.62
836.167	15218.62
836.417	15049.62
836.667	15191.62
836.917	15151.62
837.166	15057.62
837.416	15132.62
837.666	15148.62
837.915	15078.62
838.165	14987.62
838.414	15020.62
838.663	14946.62
838.913	14951.62
839.162	14853.62
839.411	14967.62
839.661	14805.62
839.91	14865.62
840.159	14806.62
840.408	14858.62
840.657	14779.62
840.906	14821.62
841.155	14824.62
841.404	14828.62
841.653	14809.62
841.902	14800.62
842.15	14815.62
842.399	14851.62
842.648	14843.62
842.897	14732.62
843.145	14629.62
843.394	14545.62
843.642	14440.62
843.891	14400.62
844.139	14347.62
844.388	14235.62
844.636	14159.62
844.884	14184.62
845.133	14129.62
845.381	14097.62
845.629	14128.62
845.877	14074.62
846.125	14019.62
846.373	14074.62
846.621	13941.62
846.869	13930.62
847.117	13813.62
847.365	13813.62
847.613	13721.62
847.861	13771.62
848.108	13687.62
848.356	13768.62
848.604	13525.62
848.851	13516.62
849.099	13648.62
849.346	13688.62
849.594	13773.62
849.841	13909.62
850.089	13900.62
850.336	13915.62
850.583	14074.62
850.831	13871.62
851.078	13769.62
851.325	13753.62
851.572	13746.62
851.819	13646.62
852.066	13196.62
852.313	13047.62
852.56	13069.62
852.807	12940.62
853.054	12974.62
853.301	12982.62
853.548	12987.62
853.794	13043.62
854.041	13066.62
854.288	13014.62
854.534	13207.62
854.781	13172.62
855.028	13121.62
855.274	13192.62
855.52	13133.62
855.767	13040.62
856.013	13154.62
856.26	13423.62
856.506	12965.62
856.752	12883.62
856.998	12905.62
857.244	12941.62
857.49	13023.62
857.736	13017.62
857.982	13025.62
858.228	12961.62
858.474	12813.62
858.72	12759.62
858.966	12585.62
859.212	12470.62
859.458	12449.62
859.703	12285.62
859.949	12143.62
860.195	12140.62
860.44	12109.62
860.686	12023.62
860.931	11990.62
861.177	11841.62
861.422	11873.62
861.667	11759.62
861.913	11713.62
862.158	11764.62
862.403	11747.62
862.648	11799.62
862.893	11814.62
863.138	11813.62
863.384	11758.62
863.629	11798.62
863.873	11657.62
864.118	11727.62
864.363	11536.62
864.608	11599.62
864.853	11540.62
865.098	11493.62
865.342	11422.62
865.587	11378.62
865.832	11419.62
866.076	11408.62
866.321	11357.62
866.565	11318.62
866.81	11152.62
867.054	11217.62
867.298	11154.62
867.543	11114.62
867.787	11185.62
868.031	11102.62
868.275	11079.62
868.519	11054.62
868.764	11045.62
869.008	11011.62
869.252	11105.62
869.496	10938.62
869.739	10986.62
869.983	10960.62
870.227	11038.62
870.471	10992.62
870.715	11086.62
870.958	11105.62
871.202	11064.62
871.446	11113.62
871.689	11016.62
871.933	11098.62
872.176	10996.62
872.42	11111.62
872.663	11043.62
872.906	11050.62
873.15	11024.62
873.393	11106.62
873.636	11046.62
873.879	10897.62
874.122	10796.62
874.366	10527.62
874.609	10505.62
874.852	10406.62
875.095	10356.62
875.337	10277.62
875.58	10128.62
875.823	10174.62
876.066	10130.62
876.309	10084.62
876.551	9993.62
876.794	9924.62
877.037	9967.62
877.279	9872.62
877.522	9886.62
877.764	10004.62
878.007	9859.62
878.249	9890.62
878.491	9847.62
878.734	9889.62
878.976	9762.62
879.218	9710.62
879.46	9735.62
879.702	9679.62
879.945	9593.62
880.187	9444.62
880.429	9436.62
880.671	9407.62
880.912	9330.62
881.154	9310.62
881.396	9183.62
881.638	9295.62
881.88	9290.62
882.121	9221.62
882.363	9227.62
882.605	9266.62
882.846	9204.62
883.088	9227.62
883.329	9264.62
883.571	9292.62
883.812	9356.62
884.053	9637.62
884.295	9813.62
884.536	10000.62
884.777	9875.62
885.018	9748.62
885.259	9644.62
885.5	9671.62
885.742	9820.62
885.982	9582.62
886.223	9523.62
886.464	9343.62
886.705	9285.62
886.946	9196.62
887.187	8982.62
887.428	8886.62
887.668	8757.62
887.909	8582.62
888.15	8510.62
888.39	8465.62
888.631	8422.62
888.871	8332.62
889.111	8320.62
889.352	8239.62
889.592	8170.62
889.833	8067.62
890.073	7983.62
890.313	8012.62
890.553	7858.62
890.793	7905.62
891.033	7782.62
891.273	7813.62
891.513	7796.62
891.753	7787.62
891.993	7777.62
892.233	7822.62
892.473	7889.62
892.713	7794.62
892.952	7760.62
893.192	7784.62
893.432	7738.62
893.671	7743.62
893.911	7752.62
894.15	7681.62
894.39	7587.62
894.629	7557.62
894.869	7538.62
895.108	7503.62
895.347	7451.62
895.587	7508.62
895.826	7415.62
896.065	7367.62
896.304	7373.62
896.543	7343.62
896.782	7282.62
897.021	7353.62
897.26	7335.62
897.499	7321.62
897.738	7309.62
897.977	7286.62
898.216	7166.62
898.454	7126.62
898.693	7091.62
898.932	7091.62
899.17	7059.62
899.409	7054.62
899.647	7073.62
899.886	6991.62
900.124	7052.62
900.363	7037.62
900.601	7030.62
900.839	7058.62
901.078	7141.62
901.316	7091.62
901.554	7181.62
901.792	7194.62
902.03	7193.62
902.268	7154.62
902.506	7156.62
902.744	7082.62
902.982	7059.62
903.22	6895.62
903.458	6792.62
903.695	6682.62
903.933	6702.62
904.171	6457.62
904.409	6437.62
904.646	6369.62
904.884	6262.62
905.121	6225.62
905.359	6185.62
905.596	6110.62
905.833	6009.62
906.071	6010.62
906.308	5999.62
906.545	5959.62
906.783	5929.62
907.02	5921.62
907.257	5915.62
907.494	5844.62
907.731	5826.62
907.968	5892.62
908.205	5749.62
908.442	5715.62
908.679	5668.62
908.915	5648.62
909.152	5617.62
909.389	5550.62
909.626	5566.62
909.862	5512.62
910.099	5493.62
910.335	5547.62
910.572	5406.62
910.808	5395.62
911.045	5344.62
911.281	5343.62
911.518	5411.62
911.754	5347.62
911.99	5270.62
912.226	5253.62
912.463	5194.62
912.699	5133.62
912.935	5158.62
913.171	5125.62
913.407	5028.62
913.643	5135.62
913.879	5012.62
914.114	4933.62
914.35	4884.62
914.586	4898.62
914.822	4796.62
915.057	4880.62
915.293	4704.62
915.529	4709.62
915.764	4765.62
916	4707.62
916.235	4730.62
916.471	4742.62
916.706	4635.62
916.941	4635.62
917.177	4658.62
917.412	4690.62
917.647	4685.62
917.882	4596.62
918.117	4681.62
918.352	4615.62
918.588	4679.62
918.823	4547.62
919.057	4511.62
919.292	4426.62
919.527	4474.62
919.762	4364.62
919.997	4419.62
920.232	4310.62
920.466	4318.62
920.701	4177.62
920.935	4246.62
921.17	4253.62
921.405	4159.62
921.639	4183.62
921.873	4101.62
922.108	4156.62
922.342	4160.62
922.576	4100.62
922.811	4087.62
923.045	4071.62
923.279	4125.62
923.513	3940.62
923.747	4041.62
923.981	4022.62
924.215	3930.62
924.449	3931.62
924.683	3873.62
924.917	3890.62
925.151	3893.62
925.385	3927.62
925.618	3849.62
925.852	3870.62
926.086	3809.62
926.319	3853.62
926.553	3850.62
926.786	3839.62
927.02	3822.62
927.253	3866.62
927.486	3848.62
927.72	3755.62
927.953	3790.62
928.186	3802.62
928.42	3776.62
928.653	3699.62
928.886	3728.62
929.119	3722.62
929.352	3665.62
929.585	3633.62
929.818	3643.62
930.051	3636.62
930.284	3608.62
930.516	3531.62
930.749	3530.62
930.982	3558.62
931.215	3538.62
931.447	3406.62
931.68	3455.62
931.912	3488.62
932.145	3443.62
932.377	3468.62
932.61	3589.62
932.842	3381.62
933.074	3429.62
933.307	3413.62
933.539	3488.62
933.771	3450.62
934.003	3425.62
934.236	3498.62
934.468	3478.62
934.7	3412.62
934.932	3475.62
935.164	3374.62
935.395	3372.62
935.627	3348.62
935.859	3359.62
936.091	3299.62
936.323	3377.62
936.554	3413.62
936.786	3306.62
937.017	3281.62
937.249	3327.62
937.481	3245.62
937.712	3328.62
937.943	3301.62
938.175	3259.62
938.406	3252.62
938.637	3310.62
938.869	3216.62
939.1	3294.62
939.331	3222.62
939.562	3235.62
939.793	3185.62
940.024	3206.62
940.255	3210.62
940.486	3130.62
940.717	3146.62
940.948	3104.62
941.179	3097.62
941.409	3094.62
941.64	3111.62
941.871	3110.62
942.102	3096.62
942.332	3121.62
942.563	3118.62
942.793	3110.62
943.024	3040.62
943.254	3093.62
943.484	3125.62
943.715	3113.62
943.945	3103.62
944.175	3048.62
944.405	2986.62
944.636	2995.62
944.866	3058.62
945.096	3061.62
945.326	3000.62
945.556	3050.62
945.786	3103.62
946.016	3000.62
946.245	2905.62
946.475	2971.62
946.705	2934.62
946.935	2907.62
947.164	2936.62
947.394	2873.62
947.624	2876.62
947.853	2946.62
948.083	2855.62
948.312	2823.62
948.542	2777.62
948.771	2776.62
949	2782.62
949.23	2825.62
949.459	2825.62
949.688	2846.62
949.917	2784.62
950.146	2828.62
950.375	2867.62
950.604	2781.62
950.833	2780.62
951.062	2846.62
951.291	2778.62
951.52	2740.62
951.749	2776.62
951.978	2722.62
952.206	2736.62
952.435	2679.62
952.664	2768.62
952.892	2749.62
953.121	2711.62
953.349	2704.62
953.578	2727.62
953.806	2698.62
954.035	2652.62
954.263	2648.62
954.491	2603.62
954.719	2651.62
954.948	2571.62
955.176	2582.62
955.404	2547.62
955.632	2576.62
955.86	2579.62
956.088	2570.62
956.316	2603.62
956.544	2556.62
956.772	2543.62
956.999	2485.62
957.227	2578.62
957.455	2458.62
957.683	2525.62
957.91	2462.62
958.138	2460.62
958.365	2474.62
958.593	2405.62
958.82	2407.62
959.048	2441.62
959.275	2392.62
959.502	2408.62
959.73	2407.62
959.957	2392.62
960.184	2441.62
960.411	2353.62
960.638	2429.62
960.865	2369.62
961.092	2380.62
961.319	2329.62
961.546	2410.62
961.773	2385.62
962	2364.62
962.227	2378.62
962.454	2366.62
962.68	2337.62
962.907	2359.62
963.134	2308.62
963.36	2329.62
963.587	2336.62
963.813	2269.62
964.04	2300.62
964.266	2193.62
964.493	2343.62
964.719	2271.62
964.945	2256.62
965.171	2162.62
965.398	2245.62
965.624	2276.62
965.85	2181.62
966.076	2176.62
966.302	2214.62
966.528	2187.62
966.754	2203.62
966.98	2193.62
967.206	2150.62
967.431	2094.62
967.657	2210.62
967.883	2201.62
968.109	2157.62
968.334	2106.62
968.56	2115.62
968.785	2128.62
969.011	2071.62
969.236	2125.62
969.462	2072.62
969.687	2065.62
969.912	2135.62
970.138	2131.62
970.363	2060.62
970.588	2065.62
970.813	2052.62
971.038	2035.62
971.263	2059.62
971.488	2062.62
971.713	2090.62
971.938	2066.62
972.163	2000.62
972.388	1989.62
972.613	1973.62
972.838	2008.62
973.062	1986.62
973.287	1958.62
973.512	1897.62
973.736	1974.62
973.961	1954.62
974.185	1914.62
974.41	1969.62
974.634	1875.62
974.858	1848.62
975.083	1910.62
975.307	1906.62
975.531	1875.62
975.755	1843.62
975.98	1832.62
976.204	1746.62
976.428	1765.62
976.652	1779.62
976.876	1758.62
977.1	1777.62
977.324	1770.62
977.547	1815.62
977.771	1832.62
977.995	1788.62
978.219	1730.62
978.442	1835.62
978.666	1746.62
978.89	1766.62
979.113	1759.62
979.337	1739.62
979.56	1720.62
979.783	1788.62
980.007	1692.62
980.23	1706.62
980.453	1691.62
980.677	1748.62
980.9	1744.62
981.123	1618.62
981.346	1728.62
981.569	1713.62
981.792	1709.62
982.015	1670.62
982.238	1651.62
982.461	1661.62
982.684	1622.62
982.907	1612.62
983.129	1616.62
983.352	1637.62
983.575	1638.62
983.797	1648.62
984.02	1591.62
984.242	1564.62
984.465	1629.62
984.687	1613.62
984.91	1635.62
985.132	1621.62
985.354	1641.62
985.577	1598.62
985.799	1595.62
986.021	1516.62
986.243	1525.62
986.465	1548.62
986.687	1572.62
986.909	1609.62
987.131	1587.62
987.353	1512.62
987.575	1569.62
987.797	1532.62
988.019	1487.62
988.241	1550.62
988.462	1512.62
988.684	1548.62
988.906	1569.62
989.127	1571.62
989.349	1475.62
989.57	1534.62
989.792	1538.62
990.013	1562.62
990.234	1559.62
990.456	1560.62
990.677	1540.62
990.898	1502.62
991.119	1484.62
991.341	1526.62
991.562	1491.62
991.783	1514.62
992.004	1433.62
992.225	1424.62
992.446	1478.62
992.667	1400.62
992.887	1469.62
993.108	1357.62
993.329	1518.62
993.55	1479.62
993.77	1383.62
993.991	1398.62
994.212	1420.62
994.432	1405.62
994.653	1428.62
994.873	1435.62
995.093	1309.62
995.314	1355.62
995.534	1415.62
995.754	1442.62
995.975	1461.62
996.195	1353.62
996.415	1385.62
996.635	1375.62
996.855	1401.62
997.075	1377.62
997.295	1370.62
997.515	1344.62
997.735	1405.62
997.955	1380.62
998.174	1361.62
998.394	1353.62
998.614	1397.62
998.834	1335.62
999.053	1391.62
999.273	1386.62
999.492	1444.62
999.712	1362.62
999.931	1328.62
1000.151	1370.62
1000.37	1338.62
1000.589	1426.62
1000.809	1323.62
1001.028	1433.62
1001.247	1361.62
1001.466	1246.62
1001.685	1421.62
1001.904	1347.62
1002.123	1324.62
1002.342	1343.62
1002.561	1290.62
1002.78	1317.62
1002.999	1369.62
1003.218	1352.62
1003.436	1286.62
1003.655	1376.62
1003.874	1309.62
1004.092	1326.62
1004.311	1339.62
1004.53	1305.62
1004.748	1409.62
1004.966	1317.62
1005.185	1371.62
1005.403	1348.62
1005.622	1330.62
1005.84	1385.62
1006.058	1285.62
1006.276	1316.62
1006.494	1817.62
1006.712	1349.62
1006.931	1412.62
1007.149	1316.62
1007.367	1303.62
1007.584	1344.62
1007.802	1393.62
1008.02	1313.62
1008.238	1409.62
1008.456	1418.62
1008.673	1280.62
1008.891	1374.62
1009.109	1365.62
1009.326	1397.62
1009.544	1492.62
1009.761	1430.62
1009.979	1502.62
1010.196	1502.62
1010.413	1623.62
1010.631	1650.62
1010.848	1655.62
1011.065	1683.62
1011.282	1629.62
1011.5	1571.62
1011.717	1683.62
1011.934	1614.62
1012.151	1666.62
1012.368	1623.62
1012.585	1564.62
1012.801	1631.62
1013.018	1600.62
1013.235	1583.62
1013.452	1582.62
1013.669	1606.62
1013.885	1607.62
1014.102	1640.62
1014.318	1595.62
1014.535	1534.62
1014.751	1599.62
1014.968	1578.62
1015.184	1582.62
1015.401	1507.62
1015.617	1521.62
1015.833	1493.62
1016.049	1472.62
1016.266	1458.62
1016.482	1457.62
1016.698	1397.62
1016.914	1446.62
1017.13	1394.62
1017.346	1343.62
1017.562	1443.62
1017.778	1350.62
1017.993	1317.62
1018.209	1411.62
1018.425	1395.62
1018.641	1326.62
1018.856	1306.62
1019.072	1348.62
1019.288	1378.62
1019.503	1343.62
1019.719	1260.62
1019.934	1278.62
1020.149	1312.62
1020.365	1260.62
1020.58	1228.62
1020.795	1260.62
1021.011	1210.62
1021.226	1198.62
1021.441	1223.62
1021.656	1134.62
1021.871	1090.62
1022.086	1116.62
1022.301	1097.62
1022.516	1076.62
1022.731	1138.62
1022.946	1050.62
1023.16	1038.62
1023.375	1034.62
1023.59	985.62
1023.804	945.62
1024.019	1071.62
1024.234	917.62
1024.448	969.62
1024.663	882.62
1024.877	904.62
1025.092	931.62
1025.306	925.62
1025.52	829.62
1025.734	940.62
1025.949	828.62
1026.163	813.62
1026.377	774.62
1026.591	819.62
1026.805	727.62
1027.019	743.62
1027.233	716.62
1027.447	651.62
1027.661	775.62
1027.875	696.62
1028.088	706.62
1028.302	628.62
1028.516	629.62
1028.73	638.62
1028.943	643.62
1029.157	575.62
1029.37	561.62
1029.584	-3.38
1029.797	0.62
1030.011	-2.38
1030.224	-1.38
