Data from QEP037381__101__11-37-45-597.txt Node

Date: Wed Dec 21 11:37:45 EST 2022
User: dcclab
Spectrometer: QEP03738
Trigger mode: 4
Integration Time (sec): 1.000000E1
Scans to average: 1
Electric dark correction enabled: true
Nonlinearity correction enabled: false
Boxcar width: 0
XAxis mode: Wavelengths
Number of Pixels in Spectrum: 1044
>>>>>Begin Spectral Data<<<<<
784.041	12.25
784.3	3.25
784.558	-7.75
784.817	-1.75
785.075	41100.25
785.334	8361.25
785.592	4475.25
785.851	3200.25
786.109	2450.25
786.368	1936.25
786.626	1597.25
786.884	1357.25
787.143	1166.25
787.401	957.25
787.659	902.25
787.917	788.25
788.175	750.25
788.433	660.25
788.691	595.25
788.949	581.25
789.207	573.25
789.465	497.25
789.723	487.25
789.98	432.25
790.238	497.25
790.496	465.25
790.753	441.25
791.011	494.25
791.268	450.25
791.526	417.25
791.783	442.25
792.041	429.25
792.298	345.25
792.556	407.25
792.813	394.25
793.07	382.25
793.327	377.25
793.584	459.25
793.841	377.25
794.099	404.25
794.356	465.25
794.613	372.25
794.869	401.25
795.126	369.25
795.383	359.25
795.64	362.25
795.897	323.25
796.153	388.25
796.41	387.25
796.667	346.25
796.923	366.25
797.18	357.25
797.436	396.25
797.693	352.25
797.949	394.25
798.206	419.25
798.462	348.25
798.718	397.25
798.974	378.25
799.231	410.25
799.487	398.25
799.743	394.25
799.999	438.25
800.255	412.25
800.511	401.25
800.767	440.25
801.023	397.25
801.279	420.25
801.534	448.25
801.79	467.25
802.046	460.25
802.302	565.25
802.557	595.25
802.813	674.25
803.068	753.25
803.324	980.25
803.579	1292.25
803.835	1683.25
804.09	2257.25
804.345	2889.25
804.601	3601.25
804.856	4321.25
805.111	4976.25
805.366	5446.25
805.621	5769.25
805.876	6038.25
806.131	6154.25
806.386	6225.25
806.641	6340.25
806.896	6484.25
807.151	6655.25
807.406	6678.25
807.661	6816.25
807.915	6969.25
808.17	7011.25
808.425	7110.25
808.679	7134.25
808.934	7372.25
809.188	7293.25
809.443	7444.25
809.697	7488.25
809.951	7545.25
810.206	7528.25
810.46	7672.25
810.714	7745.25
810.968	7865.25
811.223	7805.25
811.477	7899.25
811.731	7976.25
811.985	8003.25
812.239	7987.25
812.493	8110.25
812.747	8110.25
813	8061.25
813.254	8160.25
813.508	8230.25
813.762	8179.25
814.015	8196.25
814.269	8307.25
814.522	8419.25
814.776	8448.25
815.03	8553.25
815.283	8657.25
815.536	8802.25
815.79	8966.25
816.043	9087.25
816.296	9190.25
816.55	9263.25
816.803	9387.25
817.056	9569.25
817.309	9596.25
817.562	9686.25
817.815	9814.25
818.068	9837.25
818.321	9945.25
818.574	10058.25
818.827	10222.25
819.079	10324.25
819.332	10590.25
819.585	10615.25
819.838	10796.25
820.09	10727.25
820.343	10893.25
820.595	10825.25
820.848	10980.25
821.1	11043.25
821.353	10986.25
821.605	11024.25
821.857	11065.25
822.11	10919.25
822.362	10865.25
822.614	10890.25
822.866	10893.25
823.118	10847.25
823.37	10973.25
823.622	10923.25
823.874	11021.25
824.126	10941.25
824.378	10951.25
824.63	11002.25
824.882	11010.25
825.134	11026.25
825.385	11005.25
825.637	10988.25
825.888	10995.25
826.14	10943.25
826.392	10865.25
826.643	10790.25
826.895	10849.25
827.146	10781.25
827.397	10708.25
827.649	10730.25
827.9	10664.25
828.151	10723.25
828.402	10753.25
828.653	10783.25
828.905	10791.25
829.156	10831.25
829.407	10784.25
829.658	10792.25
829.909	10913.25
830.159	10848.25
830.41	10816.25
830.661	10732.25
830.912	10633.25
831.162	10552.25
831.413	10616.25
831.664	10620.25
831.914	10579.25
832.165	10568.25
832.415	10581.25
832.666	10566.25
832.916	10590.25
833.167	10523.25
833.417	10555.25
833.667	10512.25
833.917	10500.25
834.168	10468.25
834.418	10409.25
834.668	10348.25
834.918	10256.25
835.168	10259.25
835.418	10190.25
835.668	10244.25
835.918	10282.25
836.167	10252.25
836.417	10055.25
836.667	10178.25
836.917	10179.25
837.166	10066.25
837.416	10123.25
837.666	10142.25
837.915	10069.25
838.165	10111.25
838.414	10062.25
838.663	9920.25
838.913	10040.25
839.162	9943.25
839.411	9997.25
839.661	9936.25
839.91	9958.25
840.159	9884.25
840.408	9930.25
840.657	9983.25
840.906	9947.25
841.155	9966.25
841.404	9911.25
841.653	9922.25
841.902	9881.25
842.15	10009.25
842.399	10087.25
842.648	9927.25
842.897	9935.25
843.145	9769.25
843.394	9794.25
843.642	9712.25
843.891	9647.25
844.139	9596.25
844.388	9527.25
844.636	9398.25
844.884	9476.25
845.133	9404.25
845.381	9445.25
845.629	9454.25
845.877	9418.25
846.125	9360.25
846.373	9379.25
846.621	9363.25
846.869	9401.25
847.117	9268.25
847.365	9240.25
847.613	9236.25
847.861	9180.25
848.108	9215.25
848.356	9150.25
848.604	9149.25
848.851	9185.25
849.099	9181.25
849.346	9240.25
849.594	9316.25
849.841	9408.25
850.089	9364.25
850.336	9482.25
850.583	9575.25
850.831	9429.25
851.078	9425.25
851.325	9306.25
851.572	9335.25
851.819	9135.25
852.066	8970.25
852.313	8840.25
852.56	8811.25
852.807	8668.25
853.054	8676.25
853.301	8648.25
853.548	8739.25
853.794	8826.25
854.041	8777.25
854.288	8795.25
854.534	8997.25
854.781	8868.25
855.028	8903.25
855.274	8894.25
855.52	8852.25
855.767	8860.25
856.013	8866.25
856.26	9145.25
856.506	8723.25
856.752	8751.25
856.998	8730.25
857.244	8807.25
857.49	8758.25
857.736	8771.25
857.982	8804.25
858.228	8760.25
858.474	8620.25
858.72	8574.25
858.966	8560.25
859.212	8447.25
859.458	8364.25
859.703	8299.25
859.949	8220.25
860.195	8174.25
860.44	8173.25
860.686	8083.25
860.931	8161.25
861.177	8044.25
861.422	7998.25
861.667	7953.25
861.913	7931.25
862.158	7908.25
862.403	8003.25
862.648	8074.25
862.893	8034.25
863.138	8031.25
863.384	8003.25
863.629	7989.25
863.873	7945.25
864.118	7907.25
864.363	7850.25
864.608	7902.25
864.853	7803.25
865.098	7859.25
865.342	7784.25
865.587	7699.25
865.832	7751.25
866.076	7689.25
866.321	7695.25
866.565	7694.25
866.81	7636.25
867.054	7655.25
867.298	7593.25
867.543	7601.25
867.787	7622.25
868.031	7601.25
868.275	7610.25
868.519	7491.25
868.764	7520.25
869.008	7515.25
869.252	7533.25
869.496	7486.25
869.739	7519.25
869.983	7528.25
870.227	7523.25
870.471	7472.25
870.715	7516.25
870.958	7499.25
871.202	7542.25
871.446	7529.25
871.689	7533.25
871.933	7618.25
872.176	7515.25
872.42	7438.25
872.663	7515.25
872.906	7614.25
873.15	7526.25
873.393	7514.25
873.636	7554.25
873.879	7442.25
874.122	7353.25
874.366	7163.25
874.609	7142.25
874.852	7137.25
875.095	7106.25
875.337	7011.25
875.58	6982.25
875.823	6966.25
876.066	7000.25
876.309	6995.25
876.551	6864.25
876.794	6865.25
877.037	6842.25
877.279	6785.25
877.522	6812.25
877.764	6820.25
878.007	6843.25
878.249	6788.25
878.491	6781.25
878.734	6816.25
878.976	6757.25
879.218	6666.25
879.46	6680.25
879.702	6624.25
879.945	6577.25
880.187	6505.25
880.429	6504.25
880.671	6499.25
880.912	6473.25
881.154	6409.25
881.396	6336.25
881.638	6417.25
881.88	6407.25
882.121	6373.25
882.363	6383.25
882.605	6427.25
882.846	6407.25
883.088	6402.25
883.329	6364.25
883.571	6424.25
883.812	6479.25
884.053	6616.25
884.295	6766.25
884.536	6901.25
884.777	6795.25
885.018	6727.25
885.259	6740.25
885.5	6631.25
885.742	6882.25
885.982	6645.25
886.223	6574.25
886.464	6487.25
886.705	6374.25
886.946	6340.25
887.187	6213.25
887.428	6186.25
887.668	6080.25
887.909	6006.25
888.15	5888.25
888.39	5906.25
888.631	5912.25
888.871	5836.25
889.111	5771.25
889.352	5695.25
889.592	5719.25
889.833	5646.25
890.073	5636.25
890.313	5631.25
890.553	5513.25
890.793	5503.25
891.033	5494.25
891.273	5389.25
891.513	5461.25
891.753	5445.25
891.993	5385.25
892.233	5424.25
892.473	5542.25
892.713	5469.25
892.952	5449.25
893.192	5434.25
893.432	5440.25
893.671	5444.25
893.911	5445.25
894.15	5407.25
894.39	5365.25
894.629	5342.25
894.869	5316.25
895.108	5279.25
895.347	5254.25
895.587	5252.25
895.826	5235.25
896.065	5188.25
896.304	5251.25
896.543	5284.25
896.782	5181.25
897.021	5242.25
897.26	5215.25
897.499	5234.25
897.738	5222.25
897.977	5148.25
898.216	5138.25
898.454	5088.25
898.693	5059.25
898.932	5100.25
899.17	5060.25
899.409	5044.25
899.647	5036.25
899.886	5009.25
900.124	5041.25
900.363	5059.25
900.601	5134.25
900.839	5076.25
901.078	5101.25
901.316	5127.25
901.554	5109.25
901.792	5151.25
902.03	5137.25
902.268	5191.25
902.506	5160.25
902.744	5033.25
902.982	5126.25
903.22	5003.25
903.458	4916.25
903.695	4868.25
903.933	4759.25
904.171	4644.25
904.409	4607.25
904.646	4562.25
904.884	4479.25
905.121	4512.25
905.359	4417.25
905.596	4322.25
905.833	4241.25
906.071	4275.25
906.308	4278.25
906.545	4245.25
906.783	4202.25
907.02	4239.25
907.257	4177.25
907.494	4162.25
907.731	4191.25
907.968	4207.25
908.205	4109.25
908.442	4135.25
908.679	4071.25
908.915	4022.25
909.152	4084.25
909.389	3957.25
909.626	3936.25
909.862	3920.25
910.099	3918.25
910.335	3947.25
910.572	3790.25
910.808	3897.25
911.045	3793.25
911.281	3817.25
911.518	3823.25
911.754	3817.25
911.99	3825.25
912.226	3765.25
912.463	3716.25
912.699	3690.25
912.935	3678.25
913.171	3642.25
913.407	3579.25
913.643	3619.25
913.879	3598.25
914.114	3549.25
914.35	3475.25
914.586	3459.25
914.822	3426.25
915.057	3502.25
915.293	3336.25
915.529	3372.25
915.764	3471.25
916	3397.25
916.235	3420.25
916.471	3393.25
916.706	3330.25
916.941	3363.25
917.177	3314.25
917.412	3383.25
917.647	3362.25
917.882	3313.25
918.117	3352.25
918.352	3346.25
918.588	3362.25
918.823	3259.25
919.057	3251.25
919.292	3141.25
919.527	3274.25
919.762	3136.25
919.997	3204.25
920.232	3152.25
920.466	3177.25
920.701	3019.25
920.935	3071.25
921.17	3033.25
921.405	2979.25
921.639	3032.25
921.873	3008.25
922.108	3038.25
922.342	2994.25
922.576	2978.25
922.811	2975.25
923.045	2979.25
923.279	3018.25
923.513	2867.25
923.747	2977.25
923.981	2917.25
924.215	2881.25
924.449	2892.25
924.683	2852.25
924.917	2807.25
925.151	2820.25
925.385	2889.25
925.618	2856.25
925.852	2830.25
926.086	2762.25
926.319	2797.25
926.553	2800.25
926.786	2799.25
927.02	2821.25
927.253	2829.25
927.486	2802.25
927.72	2720.25
927.953	2812.25
928.186	2737.25
928.42	2775.25
928.653	2730.25
928.886	2724.25
929.119	2753.25
929.352	2711.25
929.585	2663.25
929.818	2666.25
930.051	2680.25
930.284	2678.25
930.516	2608.25
930.749	2584.25
930.982	2647.25
931.215	2633.25
931.447	2542.25
931.68	2556.25
931.912	2528.25
932.145	2525.25
932.377	2547.25
932.61	2671.25
932.842	2511.25
933.074	2572.25
933.307	2523.25
933.539	2612.25
933.771	2572.25
934.003	2500.25
934.236	2614.25
934.468	2616.25
934.7	2517.25
934.932	2566.25
935.164	2475.25
935.395	2492.25
935.627	2529.25
935.859	2506.25
936.091	2385.25
936.323	2526.25
936.554	2535.25
936.786	2492.25
937.017	2409.25
937.249	2476.25
937.481	2418.25
937.712	2479.25
937.943	2427.25
938.175	2430.25
938.406	2418.25
938.637	2481.25
938.869	2392.25
939.1	2427.25
939.331	2370.25
939.562	2456.25
939.793	2423.25
940.024	2441.25
940.255	2428.25
940.486	2389.25
940.717	2389.25
940.948	2355.25
941.179	2291.25
941.409	2332.25
941.64	2312.25
941.871	2327.25
942.102	2307.25
942.332	2322.25
942.563	2336.25
942.793	2345.25
943.024	2275.25
943.254	2310.25
943.484	2344.25
943.715	2381.25
943.945	2310.25
944.175	2249.25
944.405	2243.25
944.636	2274.25
944.866	2316.25
945.096	2296.25
945.326	2243.25
945.556	2308.25
945.786	2287.25
946.016	2264.25
946.245	2193.25
946.475	2202.25
946.705	2210.25
946.935	2203.25
947.164	2197.25
947.394	2174.25
947.624	2186.25
947.853	2193.25
948.083	2179.25
948.312	2126.25
948.542	2106.25
948.771	2054.25
949	2101.25
949.23	2109.25
949.459	2122.25
949.688	2182.25
949.917	2144.25
950.146	2119.25
950.375	2172.25
950.604	2084.25
950.833	2154.25
951.062	2168.25
951.291	2093.25
951.52	2046.25
951.749	2078.25
951.978	2039.25
952.206	2051.25
952.435	2058.25
952.664	2074.25
952.892	2076.25
953.121	2031.25
953.349	2078.25
953.578	2087.25
953.806	2037.25
954.035	1966.25
954.263	2031.25
954.491	1966.25
954.719	2027.25
954.948	1958.25
955.176	1950.25
955.404	1855.25
955.632	1959.25
955.86	1972.25
956.088	1920.25
956.316	1979.25
956.544	1975.25
956.772	1901.25
956.999	1898.25
957.227	1967.25
957.455	1882.25
957.683	1921.25
957.91	1847.25
958.138	1852.25
958.365	1845.25
958.593	1849.25
958.82	1785.25
959.048	1894.25
959.275	1825.25
959.502	1830.25
959.73	1821.25
959.957	1862.25
960.184	1863.25
960.411	1820.25
960.638	1881.25
960.865	1791.25
961.092	1860.25
961.319	1772.25
961.546	1829.25
961.773	1839.25
962	1818.25
962.227	1886.25
962.454	1810.25
962.68	1810.25
962.907	1816.25
963.134	1763.25
963.36	1777.25
963.587	1834.25
963.813	1742.25
964.04	1793.25
964.266	1712.25
964.493	1821.25
964.719	1745.25
964.945	1756.25
965.171	1706.25
965.398	1720.25
965.624	1736.25
965.85	1684.25
966.076	1663.25
966.302	1732.25
966.528	1675.25
966.754	1734.25
966.98	1714.25
967.206	1748.25
967.431	1616.25
967.657	1687.25
967.883	1692.25
968.109	1654.25
968.334	1633.25
968.56	1610.25
968.785	1623.25
969.011	1621.25
969.236	1639.25
969.462	1581.25
969.687	1611.25
969.912	1652.25
970.138	1663.25
970.363	1568.25
970.588	1613.25
970.813	1623.25
971.038	1593.25
971.263	1598.25
971.488	1621.25
971.713	1647.25
971.938	1634.25
972.163	1524.25
972.388	1575.25
972.613	1534.25
972.838	1550.25
973.062	1536.25
973.287	1560.25
973.512	1478.25
973.736	1508.25
973.961	1513.25
974.185	1513.25
974.41	1526.25
974.634	1432.25
974.858	1462.25
975.083	1523.25
975.307	1505.25
975.531	1453.25
975.755	1420.25
975.98	1459.25
976.204	1381.25
976.428	1387.25
976.652	1392.25
976.876	1385.25
977.1	1407.25
977.324	1364.25
977.547	1457.25
977.771	1452.25
977.995	1407.25
978.219	1348.25
978.442	1476.25
978.666	1390.25
978.89	1401.25
979.113	1372.25
979.337	1374.25
979.56	1364.25
979.783	1458.25
980.007	1330.25
980.23	1383.25
980.453	1358.25
980.677	1378.25
980.9	1369.25
981.123	1272.25
981.346	1366.25
981.569	1339.25
981.792	1404.25
982.015	1329.25
982.238	1305.25
982.461	1355.25
982.684	1284.25
982.907	1277.25
983.129	1304.25
983.352	1337.25
983.575	1338.25
983.797	1321.25
984.02	1261.25
984.242	1277.25
984.465	1292.25
984.687	1317.25
984.91	1321.25
985.132	1304.25
985.354	1309.25
985.577	1296.25
985.799	1285.25
986.021	1230.25
986.243	1246.25
986.465	1256.25
986.687	1334.25
986.909	1338.25
987.131	1278.25
987.353	1240.25
987.575	1293.25
987.797	1267.25
988.019	1195.25
988.241	1249.25
988.462	1208.25
988.684	1277.25
988.906	1277.25
989.127	1296.25
989.349	1204.25
989.57	1239.25
989.792	1269.25
990.013	1289.25
990.234	1290.25
990.456	1310.25
990.677	1300.25
990.898	1227.25
991.119	1244.25
991.341	1284.25
991.562	1187.25
991.783	1230.25
992.004	1168.25
992.225	1181.25
992.446	1194.25
992.667	1154.25
992.887	1250.25
993.108	1114.25
993.329	1257.25
993.55	1215.25
993.77	1154.25
993.991	1143.25
994.212	1171.25
994.432	1194.25
994.653	1183.25
994.873	1216.25
995.093	1074.25
995.314	1137.25
995.534	1199.25
995.754	1212.25
995.975	1242.25
996.195	1126.25
996.415	1206.25
996.635	1172.25
996.855	1185.25
997.075	1164.25
997.295	1146.25
997.515	1137.25
997.735	1194.25
997.955	1165.25
998.174	1156.25
998.394	1107.25
998.614	1161.25
998.834	1148.25
999.053	1201.25
999.273	1161.25
999.492	1243.25
999.712	1186.25
999.931	1105.25
1000.151	1173.25
1000.37	1157.25
1000.589	1195.25
1000.809	1137.25
1001.028	1233.25
1001.247	1179.25
1001.466	1080.25
1001.685	1228.25
1001.904	1181.25
1002.123	1170.25
1002.342	1191.25
1002.561	1134.25
1002.78	1149.25
1002.999	1213.25
1003.218	1153.25
1003.436	1135.25
1003.655	1203.25
1003.874	1133.25
1004.092	1153.25
1004.311	1194.25
1004.53	1158.25
1004.748	1235.25
1004.966	1160.25
1005.185	1226.25
1005.403	1190.25
1005.622	1187.25
1005.84	1243.25
1006.058	1155.25
1006.276	1170.25
1006.494	1656.25
1006.712	1174.25
1006.931	1259.25
1007.149	1146.25
1007.367	1140.25
1007.584	1176.25
1007.802	1212.25
1008.02	1177.25
1008.238	1275.25
1008.456	1258.25
1008.673	1135.25
1008.891	1219.25
1009.109	1201.25
1009.326	1243.25
1009.544	1343.25
1009.761	1237.25
1009.979	1313.25
1010.196	1324.25
1010.413	1416.25
1010.631	1438.25
1010.848	1479.25
1011.065	1472.25
1011.282	1433.25
1011.5	1371.25
1011.717	1475.25
1011.934	1429.25
1012.151	1444.25
1012.368	1431.25
1012.585	1393.25
1012.801	1454.25
1013.018	1411.25
1013.235	1333.25
1013.452	1398.25
1013.669	1407.25
1013.885	1383.25
1014.102	1446.25
1014.318	1386.25
1014.535	1347.25
1014.751	1396.25
1014.968	1378.25
1015.184	1415.25
1015.401	1330.25
1015.617	1341.25
1015.833	1273.25
1016.049	1319.25
1016.266	1275.25
1016.482	1298.25
1016.698	1223.25
1016.914	1275.25
1017.13	1219.25
1017.346	1223.25
1017.562	1278.25
1017.778	1223.25
1017.993	1187.25
1018.209	1235.25
1018.425	1225.25
1018.641	1188.25
1018.856	1146.25
1019.072	1198.25
1019.288	1261.25
1019.503	1186.25
1019.719	1112.25
1019.934	1146.25
1020.149	1199.25
1020.365	1148.25
1020.58	1111.25
1020.795	1153.25
1021.011	1097.25
1021.226	1104.25
1021.441	1104.25
1021.656	1036.25
1021.871	979.25
1022.086	987.25
1022.301	990.25
1022.516	989.25
1022.731	1045.25
1022.946	942.25
1023.16	928.25
1023.375	923.25
1023.59	902.25
1023.804	876.25
1024.019	965.25
1024.234	858.25
1024.448	897.25
1024.663	807.25
1024.877	836.25
1025.092	849.25
1025.306	869.25
1025.52	778.25
1025.734	856.25
1025.949	777.25
1026.163	774.25
1026.377	715.25
1026.591	774.25
1026.805	684.25
1027.019	690.25
1027.233	655.25
1027.447	610.25
1027.661	728.25
1027.875	639.25
1028.088	673.25
1028.302	617.25
1028.516	607.25
1028.73	594.25
1028.943	597.25
1029.157	557.25
1029.37	521.25
1029.584	-3.75
1029.797	-1.75
1030.011	0.25
1030.224	-0.75
