Data from QEP037381__75__11-33-25-596.txt Node

Date: Wed Dec 21 11:33:25 EST 2022
User: dcclab
Spectrometer: QEP03738
Trigger mode: 4
Integration Time (sec): 1.000000E1
Scans to average: 1
Electric dark correction enabled: true
Nonlinearity correction enabled: false
Boxcar width: 0
XAxis mode: Wavelengths
Number of Pixels in Spectrum: 1044
>>>>>Begin Spectral Data<<<<<
784.041	13.38
784.3	-0.62
784.558	-4.62
784.817	-2.62
785.075	44205.38
785.334	8908.38
785.592	4689.38
785.851	3301.38
786.109	2534.38
786.368	2008.38
786.626	1636.38
786.884	1416.38
787.143	1200.38
787.401	977.38
787.659	934.38
787.917	793.38
788.175	765.38
788.433	666.38
788.691	604.38
788.949	577.38
789.207	575.38
789.465	509.38
789.723	478.38
789.98	457.38
790.238	498.38
790.496	461.38
790.753	439.38
791.011	505.38
791.268	443.38
791.526	436.38
791.783	448.38
792.041	445.38
792.298	359.38
792.556	440.38
792.813	421.38
793.07	396.38
793.327	392.38
793.584	466.38
793.841	384.38
794.099	420.38
794.356	454.38
794.613	379.38
794.869	411.38
795.126	371.38
795.383	363.38
795.64	384.38
795.897	334.38
796.153	388.38
796.41	382.38
796.667	363.38
796.923	371.38
797.18	369.38
797.436	401.38
797.693	352.38
797.949	409.38
798.206	431.38
798.462	352.38
798.718	408.38
798.974	372.38
799.231	424.38
799.487	409.38
799.743	415.38
799.999	430.38
800.255	412.38
800.511	392.38
800.767	451.38
801.023	427.38
801.279	444.38
801.534	460.38
801.79	493.38
802.046	499.38
802.302	583.38
802.557	615.38
802.813	731.38
803.068	835.38
803.324	1123.38
803.579	1446.38
803.835	1946.38
804.09	2656.38
804.345	3368.38
804.601	4245.38
804.856	5194.38
805.111	5946.38
805.366	6455.38
805.621	6935.38
805.876	7230.38
806.131	7394.38
806.386	7535.38
806.641	7683.38
806.896	7797.38
807.151	7936.38
807.406	7993.38
807.661	8244.38
807.915	8351.38
808.17	8437.38
808.425	8545.38
808.679	8595.38
808.934	8792.38
809.188	8784.38
809.443	8881.38
809.697	9013.38
809.951	9036.38
810.206	9170.38
810.46	9334.38
810.714	9318.38
810.968	9456.38
811.223	9465.38
811.477	9520.38
811.731	9647.38
811.985	9633.38
812.239	9595.38
812.493	9733.38
812.747	9854.38
813	9801.38
813.254	9831.38
813.508	9952.38
813.762	9874.38
814.015	9944.38
814.269	10094.38
814.522	10025.38
814.776	10299.38
815.03	10433.38
815.283	10521.38
815.536	10728.38
815.79	10841.38
816.043	11008.38
816.296	11097.38
816.55	11276.38
816.803	11393.38
817.056	11577.38
817.309	11614.38
817.562	11787.38
817.815	11943.38
818.068	11971.38
818.321	12104.38
818.574	12212.38
818.827	12492.38
819.079	12498.38
819.332	12815.38
819.585	12898.38
819.838	13059.38
820.09	13061.38
820.343	13211.38
820.595	13155.38
820.848	13342.38
821.1	13403.38
821.353	13328.38
821.605	13394.38
821.857	13348.38
822.11	13259.38
822.362	13178.38
822.614	13172.38
822.866	13257.38
823.118	13236.38
823.37	13327.38
823.622	13337.38
823.874	13384.38
824.126	13408.38
824.378	13294.38
824.63	13439.38
824.882	13475.38
825.134	13474.38
825.385	13428.38
825.637	13381.38
825.888	13293.38
826.14	13296.38
826.392	13235.38
826.643	13094.38
826.895	13222.38
827.146	13115.38
827.397	13079.38
827.649	13139.38
827.9	13066.38
828.151	13065.38
828.402	13135.38
828.653	13257.38
828.905	13159.38
829.156	13181.38
829.407	13129.38
829.658	13180.38
829.909	13296.38
830.159	13209.38
830.41	13088.38
830.661	13128.38
830.912	12980.38
831.162	13065.38
831.413	12844.38
831.664	12962.38
831.914	12900.38
832.165	12946.38
832.415	12925.38
832.666	12916.38
832.916	12918.38
833.167	12948.38
833.417	12970.38
833.667	12778.38
833.917	12773.38
834.168	12813.38
834.418	12728.38
834.668	12745.38
834.918	12665.38
835.168	12556.38
835.418	12464.38
835.668	12512.38
835.918	12529.38
836.167	12462.38
836.417	12388.38
836.667	12429.38
836.917	12470.38
837.166	12386.38
837.416	12385.38
837.666	12385.38
837.915	12407.38
838.165	12390.38
838.414	12382.38
838.663	12273.38
838.913	12331.38
839.162	12228.38
839.411	12327.38
839.661	12277.38
839.91	12234.38
840.159	12155.38
840.408	12157.38
840.657	12213.38
840.906	12184.38
841.155	12172.38
841.404	12151.38
841.653	12284.38
841.902	12160.38
842.15	12245.38
842.399	12326.38
842.648	12210.38
842.897	12242.38
843.145	12097.38
843.394	11966.38
843.642	11846.38
843.891	11937.38
844.139	11732.38
844.388	11688.38
844.636	11695.38
844.884	11681.38
845.133	11628.38
845.381	11680.38
845.629	11665.38
845.877	11569.38
846.125	11611.38
846.373	11671.38
846.621	11544.38
846.869	11551.38
847.117	11490.38
847.365	11378.38
847.613	11304.38
847.861	11369.38
848.108	11361.38
848.356	11363.38
848.604	11198.38
848.851	11324.38
849.099	11363.38
849.346	11391.38
849.594	11507.38
849.841	11509.38
850.089	11664.38
850.336	11697.38
850.583	11794.38
850.831	11673.38
851.078	11649.38
851.325	11512.38
851.572	11432.38
851.819	11179.38
852.066	11110.38
852.313	10956.38
852.56	10782.38
852.807	10777.38
853.054	10778.38
853.301	10818.38
853.548	10763.38
853.794	10806.38
854.041	10887.38
854.288	10915.38
854.534	11107.38
854.781	11020.38
855.028	10936.38
855.274	11006.38
855.52	10962.38
855.767	10917.38
856.013	10906.38
856.26	11207.38
856.506	10844.38
856.752	10822.38
856.998	10804.38
857.244	10790.38
857.49	10845.38
857.736	10920.38
857.982	10913.38
858.228	10852.38
858.474	10663.38
858.72	10603.38
858.966	10578.38
859.212	10525.38
859.458	10323.38
859.703	10325.38
859.949	10190.38
860.195	10189.38
860.44	10081.38
860.686	10026.38
860.931	10074.38
861.177	9979.38
861.422	9898.38
861.667	9819.38
861.913	9945.38
862.158	9874.38
862.403	9953.38
862.648	9971.38
862.893	10004.38
863.138	9966.38
863.384	9839.38
863.629	9942.38
863.873	9889.38
864.118	9877.38
864.363	9751.38
864.608	9817.38
864.853	9763.38
865.098	9717.38
865.342	9705.38
865.587	9614.38
865.832	9658.38
866.076	9674.38
866.321	9571.38
866.565	9574.38
866.81	9468.38
867.054	9473.38
867.298	9407.38
867.543	9366.38
867.787	9444.38
868.031	9449.38
868.275	9388.38
868.519	9406.38
868.764	9341.38
869.008	9279.38
869.252	9359.38
869.496	9350.38
869.739	9286.38
869.983	9363.38
870.227	9322.38
870.471	9339.38
870.715	9292.38
870.958	9367.38
871.202	9392.38
871.446	9439.38
871.689	9365.38
871.933	9427.38
872.176	9481.38
872.42	9321.38
872.663	9364.38
872.906	9424.38
873.15	9386.38
873.393	9343.38
873.636	9308.38
873.879	9357.38
874.122	9162.38
874.366	9021.38
874.609	8870.38
874.852	8833.38
875.095	8757.38
875.337	8727.38
875.58	8624.38
875.823	8650.38
876.066	8698.38
876.309	8711.38
876.551	8606.38
876.794	8507.38
877.037	8571.38
877.279	8469.38
877.522	8519.38
877.764	8507.38
878.007	8479.38
878.249	8553.38
878.491	8407.38
878.734	8460.38
878.976	8429.38
879.218	8346.38
879.46	8415.38
879.702	8304.38
879.945	8258.38
880.187	8201.38
880.429	8144.38
880.671	8100.38
880.912	8092.38
881.154	7968.38
881.396	7989.38
881.638	8016.38
881.88	7966.38
882.121	7912.38
882.363	7972.38
882.605	8037.38
882.846	7992.38
883.088	7957.38
883.329	7948.38
883.571	7963.38
883.812	8115.38
884.053	8277.38
884.295	8487.38
884.536	8511.38
884.777	8481.38
885.018	8382.38
885.259	8285.38
885.5	8269.38
885.742	8468.38
885.982	8213.38
886.223	8124.38
886.464	8070.38
886.705	7946.38
886.946	7954.38
887.187	7776.38
887.428	7735.38
887.668	7609.38
887.909	7486.38
888.15	7354.38
888.39	7414.38
888.631	7437.38
888.871	7287.38
889.111	7249.38
889.352	7211.38
889.592	7124.38
889.833	7052.38
890.073	7054.38
890.313	7077.38
890.553	6945.38
890.793	6905.38
891.033	6864.38
891.273	6839.38
891.513	6802.38
891.753	6834.38
891.993	6827.38
892.233	6795.38
892.473	6926.38
892.713	6848.38
892.952	6824.38
893.192	6894.38
893.432	6774.38
893.671	6866.38
893.911	6764.38
894.15	6718.38
894.39	6704.38
894.629	6592.38
894.869	6672.38
895.108	6641.38
895.347	6618.38
895.587	6591.38
895.826	6566.38
896.065	6485.38
896.304	6532.38
896.543	6615.38
896.782	6496.38
897.021	6520.38
897.26	6541.38
897.499	6549.38
897.738	6584.38
897.977	6511.38
898.216	6472.38
898.454	6367.38
898.693	6334.38
898.932	6313.38
899.17	6293.38
899.409	6313.38
899.647	6287.38
899.886	6324.38
900.124	6380.38
900.363	6285.38
900.601	6349.38
900.839	6332.38
901.078	6341.38
901.316	6449.38
901.554	6434.38
901.792	6497.38
902.03	6429.38
902.268	6414.38
902.506	6466.38
902.744	6307.38
902.982	6300.38
903.22	6168.38
903.458	6170.38
903.695	6025.38
903.933	5950.38
904.171	5829.38
904.409	5811.38
904.646	5724.38
904.884	5599.38
905.121	5604.38
905.359	5522.38
905.596	5478.38
905.833	5407.38
906.071	5378.38
906.308	5384.38
906.545	5356.38
906.783	5321.38
907.02	5283.38
907.257	5269.38
907.494	5277.38
907.731	5218.38
907.968	5233.38
908.205	5144.38
908.442	5131.38
908.679	5086.38
908.915	5041.38
909.152	5045.38
909.389	4930.38
909.626	4986.38
909.862	4935.38
910.099	4911.38
910.335	4941.38
910.572	4829.38
910.808	4874.38
911.045	4828.38
911.281	4799.38
911.518	4833.38
911.754	4805.38
911.99	4780.38
912.226	4766.38
912.463	4638.38
912.699	4627.38
912.935	4648.38
913.171	4580.38
913.407	4513.38
913.643	4539.38
913.879	4491.38
914.114	4472.38
914.35	4391.38
914.586	4341.38
914.822	4279.38
915.057	4391.38
915.293	4257.38
915.529	4217.38
915.764	4331.38
916	4300.38
916.235	4239.38
916.471	4286.38
916.706	4189.38
916.941	4199.38
917.177	4211.38
917.412	4194.38
917.647	4267.38
917.882	4135.38
918.117	4214.38
918.352	4171.38
918.588	4189.38
918.823	4103.38
919.057	4040.38
919.292	3969.38
919.527	4063.38
919.762	4003.38
919.997	3972.38
920.232	3898.38
920.466	3906.38
920.701	3805.38
920.935	3839.38
921.17	3804.38
921.405	3759.38
921.639	3828.38
921.873	3717.38
922.108	3771.38
922.342	3780.38
922.576	3682.38
922.811	3711.38
923.045	3714.38
923.279	3713.38
923.513	3589.38
923.747	3663.38
923.981	3669.38
924.215	3624.38
924.449	3588.38
924.683	3541.38
924.917	3539.38
925.151	3473.38
925.385	3582.38
925.618	3520.38
925.852	3539.38
926.086	3436.38
926.319	3500.38
926.553	3476.38
926.786	3472.38
927.02	3494.38
927.253	3494.38
927.486	3480.38
927.72	3434.38
927.953	3461.38
928.186	3452.38
928.42	3464.38
928.653	3361.38
928.886	3376.38
929.119	3439.38
929.352	3374.38
929.585	3364.38
929.818	3337.38
930.051	3314.38
930.284	3278.38
930.516	3213.38
930.749	3198.38
930.982	3246.38
931.215	3252.38
931.447	3154.38
931.68	3152.38
931.912	3144.38
932.145	3197.38
932.377	3196.38
932.61	3310.38
932.842	3117.38
933.074	3219.38
933.307	3095.38
933.539	3245.38
933.771	3199.38
934.003	3150.38
934.236	3218.38
934.468	3254.38
934.7	3138.38
934.932	3163.38
935.164	3108.38
935.395	3100.38
935.627	3136.38
935.859	3123.38
936.091	3078.38
936.323	3085.38
936.554	3132.38
936.786	3055.38
937.017	3031.38
937.249	3041.38
937.481	2942.38
937.712	3074.38
937.943	3019.38
938.175	3003.38
938.406	3021.38
938.637	3059.38
938.869	2984.38
939.1	2988.38
939.331	2963.38
939.562	3005.38
939.793	3008.38
940.024	2987.38
940.255	2982.38
940.486	2934.38
940.717	2948.38
940.948	2947.38
941.179	2828.38
941.409	2889.38
941.64	2903.38
941.871	2887.38
942.102	2875.38
942.332	2871.38
942.563	2912.38
942.793	2865.38
943.024	2837.38
943.254	2861.38
943.484	2905.38
943.715	2897.38
943.945	2869.38
944.175	2787.38
944.405	2820.38
944.636	2791.38
944.866	2831.38
945.096	2832.38
945.326	2782.38
945.556	2843.38
945.786	2817.38
946.016	2764.38
946.245	2717.38
946.475	2774.38
946.705	2734.38
946.935	2714.38
947.164	2712.38
947.394	2689.38
947.624	2660.38
947.853	2699.38
948.083	2689.38
948.312	2620.38
948.542	2569.38
948.771	2580.38
949	2598.38
949.23	2588.38
949.459	2630.38
949.688	2668.38
949.917	2615.38
950.146	2641.38
950.375	2694.38
950.604	2565.38
950.833	2628.38
951.062	2633.38
951.291	2563.38
951.52	2541.38
951.749	2584.38
951.978	2510.38
952.206	2515.38
952.435	2544.38
952.664	2537.38
952.892	2580.38
953.121	2531.38
953.349	2554.38
953.578	2538.38
953.806	2494.38
954.035	2455.38
954.263	2507.38
954.491	2385.38
954.719	2475.38
954.948	2413.38
955.176	2408.38
955.404	2364.38
955.632	2423.38
955.86	2405.38
956.088	2391.38
956.316	2419.38
956.544	2426.38
956.772	2383.38
956.999	2362.38
957.227	2419.38
957.455	2336.38
957.683	2335.38
957.91	2291.38
958.138	2284.38
958.365	2248.38
958.593	2255.38
958.82	2213.38
959.048	2325.38
959.275	2259.38
959.502	2228.38
959.73	2231.38
959.957	2236.38
960.184	2268.38
960.411	2220.38
960.638	2273.38
960.865	2211.38
961.092	2262.38
961.319	2170.38
961.546	2266.38
961.773	2238.38
962	2226.38
962.227	2262.38
962.454	2209.38
962.68	2188.38
962.907	2244.38
963.134	2159.38
963.36	2168.38
963.587	2202.38
963.813	2139.38
964.04	2182.38
964.266	2108.38
964.493	2164.38
964.719	2172.38
964.945	2137.38
965.171	2046.38
965.398	2125.38
965.624	2151.38
965.85	2042.38
966.076	2043.38
966.302	2072.38
966.528	2050.38
966.754	2098.38
966.98	2090.38
967.206	2038.38
967.431	1999.38
967.657	2081.38
967.883	2022.38
968.109	2052.38
968.334	2001.38
968.56	1967.38
968.785	2001.38
969.011	1924.38
969.236	1983.38
969.462	1966.38
969.687	1950.38
969.912	2025.38
970.138	2018.38
970.363	1917.38
970.588	1967.38
970.813	1933.38
971.038	1906.38
971.263	1952.38
971.488	1930.38
971.713	1974.38
971.938	1937.38
972.163	1859.38
972.388	1882.38
972.613	1863.38
972.838	1869.38
973.062	1862.38
973.287	1865.38
973.512	1818.38
973.736	1847.38
973.961	1838.38
974.185	1792.38
974.41	1886.38
974.634	1787.38
974.858	1771.38
975.083	1820.38
975.307	1810.38
975.531	1761.38
975.755	1721.38
975.98	1737.38
976.204	1706.38
976.428	1675.38
976.652	1678.38
976.876	1660.38
977.1	1685.38
977.324	1678.38
977.547	1730.38
977.771	1728.38
977.995	1717.38
978.219	1630.38
978.442	1762.38
978.666	1711.38
978.89	1691.38
979.113	1681.38
979.337	1655.38
979.56	1631.38
979.783	1713.38
980.007	1629.38
980.23	1643.38
980.453	1624.38
980.677	1678.38
980.9	1622.38
981.123	1535.38
981.346	1606.38
981.569	1617.38
981.792	1644.38
982.015	1617.38
982.238	1566.38
982.461	1590.38
982.684	1566.38
982.907	1537.38
983.129	1528.38
983.352	1572.38
983.575	1541.38
983.797	1564.38
984.02	1521.38
984.242	1512.38
984.465	1547.38
984.687	1559.38
984.91	1568.38
985.132	1554.38
985.354	1574.38
985.577	1523.38
985.799	1524.38
986.021	1444.38
986.243	1484.38
986.465	1477.38
986.687	1540.38
986.909	1589.38
987.131	1517.38
987.353	1477.38
987.575	1483.38
987.797	1455.38
988.019	1417.38
988.241	1491.38
988.462	1438.38
988.684	1484.38
988.906	1499.38
989.127	1524.38
989.349	1415.38
989.57	1458.38
989.792	1497.38
990.013	1488.38
990.234	1513.38
990.456	1555.38
990.677	1517.38
990.898	1433.38
991.119	1443.38
991.341	1476.38
991.562	1403.38
991.783	1469.38
992.004	1367.38
992.225	1354.38
992.446	1436.38
992.667	1335.38
992.887	1423.38
993.108	1296.38
993.329	1437.38
993.55	1417.38
993.77	1366.38
993.991	1343.38
994.212	1380.38
994.432	1369.38
994.653	1368.38
994.873	1375.38
995.093	1257.38
995.314	1319.38
995.534	1390.38
995.754	1407.38
995.975	1410.38
996.195	1291.38
996.415	1361.38
996.635	1333.38
996.855	1376.38
997.075	1341.38
997.295	1328.38
997.515	1288.38
997.735	1380.38
997.955	1330.38
998.174	1324.38
998.394	1290.38
998.614	1341.38
998.834	1311.38
999.053	1364.38
999.273	1335.38
999.492	1382.38
999.712	1332.38
999.931	1307.38
1000.151	1350.38
1000.37	1304.38
1000.589	1338.38
1000.809	1306.38
1001.028	1427.38
1001.247	1362.38
1001.466	1223.38
1001.685	1377.38
1001.904	1326.38
1002.123	1301.38
1002.342	1323.38
1002.561	1274.38
1002.78	1308.38
1002.999	1365.38
1003.218	1274.38
1003.436	1269.38
1003.655	1330.38
1003.874	1277.38
1004.092	1304.38
1004.311	1322.38
1004.53	1272.38
1004.748	1378.38
1004.966	1277.38
1005.185	1350.38
1005.403	1341.38
1005.622	1314.38
1005.84	1383.38
1006.058	1262.38
1006.276	1313.38
1006.494	1798.38
1006.712	1313.38
1006.931	1391.38
1007.149	1278.38
1007.367	1275.38
1007.584	1323.38
1007.802	1365.38
1008.02	1295.38
1008.238	1416.38
1008.456	1391.38
1008.673	1258.38
1008.891	1359.38
1009.109	1344.38
1009.326	1374.38
1009.544	1471.38
1009.761	1384.38
1009.979	1462.38
1010.196	1474.38
1010.413	1575.38
1010.631	1604.38
1010.848	1640.38
1011.065	1640.38
1011.282	1590.38
1011.5	1522.38
1011.717	1593.38
1011.934	1589.38
1012.151	1608.38
1012.368	1591.38
1012.585	1526.38
1012.801	1586.38
1013.018	1533.38
1013.235	1538.38
1013.452	1556.38
1013.669	1552.38
1013.885	1529.38
1014.102	1559.38
1014.318	1544.38
1014.535	1490.38
1014.751	1520.38
1014.968	1535.38
1015.184	1558.38
1015.401	1478.38
1015.617	1496.38
1015.833	1463.38
1016.049	1441.38
1016.266	1422.38
1016.482	1421.38
1016.698	1386.38
1016.914	1412.38
1017.13	1334.38
1017.346	1340.38
1017.562	1418.38
1017.778	1384.38
1017.993	1338.38
1018.209	1414.38
1018.425	1357.38
1018.641	1332.38
1018.856	1304.38
1019.072	1334.38
1019.288	1375.38
1019.503	1319.38
1019.719	1274.38
1019.934	1261.38
1020.149	1335.38
1020.365	1262.38
1020.58	1228.38
1020.795	1285.38
1021.011	1227.38
1021.226	1187.38
1021.441	1229.38
1021.656	1147.38
1021.871	1083.38
1022.086	1103.38
1022.301	1102.38
1022.516	1073.38
1022.731	1135.38
1022.946	1042.38
1023.16	1042.38
1023.375	1010.38
1023.59	977.38
1023.804	945.38
1024.019	1066.38
1024.234	936.38
1024.448	977.38
1024.663	879.38
1024.877	929.38
1025.092	920.38
1025.306	959.38
1025.52	849.38
1025.734	946.38
1025.949	884.38
1026.163	824.38
1026.377	755.38
1026.591	818.38
1026.805	765.38
1027.019	778.38
1027.233	733.38
1027.447	666.38
1027.661	784.38
1027.875	736.38
1028.088	724.38
1028.302	661.38
1028.516	650.38
1028.73	670.38
1028.943	642.38
1029.157	605.38
1029.37	561.38
1029.584	1.38
1029.797	-4.62
1030.011	-1.62
1030.224	-0.62
