Data from QEP037381__10__11-22-35-593.txt Node

Date: Wed Dec 21 11:22:35 EST 2022
User: dcclab
Spectrometer: QEP03738
Trigger mode: 4
Integration Time (sec): 1.000000E1
Scans to average: 1
Electric dark correction enabled: true
Nonlinearity correction enabled: false
Boxcar width: 0
XAxis mode: Wavelengths
Number of Pixels in Spectrum: 1044
>>>>>Begin Spectral Data<<<<<
784.041	11.25
784.3	0.25
784.558	0.25
784.817	-5.75
785.075	43838.25
785.334	8585.25
785.592	4475.25
785.851	3161.25
786.109	2409.25
786.368	1930.25
786.626	1599.25
786.884	1367.25
787.143	1149.25
787.401	948.25
787.659	918.25
787.917	783.25
788.175	731.25
788.433	667.25
788.691	600.25
788.949	579.25
789.207	556.25
789.465	484.25
789.723	483.25
789.98	437.25
790.238	498.25
790.496	470.25
790.753	444.25
791.011	497.25
791.268	451.25
791.526	439.25
791.783	462.25
792.041	451.25
792.298	361.25
792.556	450.25
792.813	411.25
793.07	398.25
793.327	392.25
793.584	484.25
793.841	403.25
794.099	416.25
794.356	482.25
794.613	372.25
794.869	431.25
795.126	386.25
795.383	368.25
795.64	398.25
795.897	346.25
796.153	411.25
796.41	381.25
796.667	391.25
796.923	391.25
797.18	378.25
797.436	396.25
797.693	373.25
797.949	418.25
798.206	444.25
798.462	363.25
798.718	418.25
798.974	402.25
799.231	443.25
799.487	419.25
799.743	424.25
799.999	454.25
800.255	440.25
800.511	434.25
800.767	477.25
801.023	448.25
801.279	493.25
801.534	500.25
801.79	545.25
802.046	561.25
802.302	660.25
802.557	746.25
802.813	894.25
803.068	1068.25
803.324	1470.25
803.579	1906.25
803.835	2625.25
804.09	3554.25
804.345	4625.25
804.601	5838.25
804.856	7085.25
805.111	8216.25
805.366	9052.25
805.621	9755.25
805.876	10173.25
806.131	10500.25
806.386	10682.25
806.641	10810.25
806.896	11039.25
807.151	11313.25
807.406	11473.25
807.661	11721.25
807.915	11835.25
808.17	12132.25
808.425	12226.25
808.679	12329.25
808.934	12576.25
809.188	12594.25
809.443	12676.25
809.697	12875.25
809.951	12981.25
810.206	13040.25
810.46	13290.25
810.714	13310.25
810.968	13460.25
811.223	13541.25
811.477	13681.25
811.731	13842.25
811.985	13783.25
812.239	13763.25
812.493	13881.25
812.747	14020.25
813	13994.25
813.254	14157.25
813.508	14186.25
813.762	14175.25
814.015	14341.25
814.269	14451.25
814.522	14539.25
814.776	14685.25
815.03	14924.25
815.283	15046.25
815.536	15349.25
815.79	15656.25
816.043	15783.25
816.296	16033.25
816.55	16241.25
816.803	16337.25
817.056	16634.25
817.309	16828.25
817.562	16935.25
817.815	17138.25
818.068	17242.25
818.321	17406.25
818.574	17712.25
818.827	17889.25
819.079	18028.25
819.332	18420.25
819.585	18578.25
819.838	18848.25
820.09	18861.25
820.343	19067.25
820.595	19077.25
820.848	19227.25
821.1	19282.25
821.353	19212.25
821.605	19251.25
821.857	19304.25
822.11	19136.25
822.362	19097.25
822.614	19066.25
822.866	19045.25
823.118	19097.25
823.37	19262.25
823.622	19241.25
823.874	19204.25
824.126	19319.25
824.378	19302.25
824.63	19350.25
824.882	19418.25
825.134	19302.25
825.385	19447.25
825.637	19364.25
825.888	19375.25
826.14	19208.25
826.392	19199.25
826.643	19076.25
826.895	19138.25
827.146	18973.25
827.397	18924.25
827.649	18849.25
827.9	18970.25
828.151	18955.25
828.402	19044.25
828.653	19027.25
828.905	18993.25
829.156	19152.25
829.407	19094.25
829.658	19063.25
829.909	19186.25
830.159	19160.25
830.41	18913.25
830.661	18776.25
830.912	18753.25
831.162	18687.25
831.413	18739.25
831.664	18651.25
831.914	18602.25
832.165	18573.25
832.415	18578.25
832.666	18621.25
832.916	18617.25
833.167	18495.25
833.417	18628.25
833.667	18534.25
833.917	18446.25
834.168	18427.25
834.418	18461.25
834.668	18287.25
834.918	18256.25
835.168	18241.25
835.418	18027.25
835.668	17933.25
835.918	17945.25
836.167	17947.25
836.417	17822.25
836.667	17977.25
836.917	17918.25
837.166	17769.25
837.416	17834.25
837.666	17792.25
837.915	17870.25
838.165	17875.25
838.414	17640.25
838.663	17569.25
838.913	17655.25
839.162	17505.25
839.411	17659.25
839.661	17524.25
839.91	17457.25
840.159	17430.25
840.408	17477.25
840.657	17545.25
840.906	17445.25
841.155	17471.25
841.404	17469.25
841.653	17438.25
841.902	17448.25
842.15	17566.25
842.399	17504.25
842.648	17506.25
842.897	17362.25
843.145	17308.25
843.394	17220.25
843.642	17071.25
843.891	17025.25
844.139	16867.25
844.388	16761.25
844.636	16685.25
844.884	16678.25
845.133	16600.25
845.381	16576.25
845.629	16618.25
845.877	16644.25
846.125	16576.25
846.373	16537.25
846.621	16404.25
846.869	16402.25
847.117	16342.25
847.365	16257.25
847.613	16271.25
847.861	16122.25
848.108	16163.25
848.356	16120.25
848.604	16072.25
848.851	16116.25
849.099	16165.25
849.346	16228.25
849.594	16258.25
849.841	16370.25
850.089	16467.25
850.336	16521.25
850.583	16582.25
850.831	16462.25
851.078	16337.25
851.325	16203.25
851.572	16145.25
851.819	15969.25
852.066	15624.25
852.313	15514.25
852.56	15401.25
852.807	15310.25
853.054	15245.25
853.301	15151.25
853.548	15228.25
853.794	15353.25
854.041	15428.25
854.288	15392.25
854.534	15598.25
854.781	15472.25
855.028	15462.25
855.274	15424.25
855.52	15447.25
855.767	15266.25
856.013	15456.25
856.26	15535.25
856.506	15166.25
856.752	15112.25
856.998	15235.25
857.244	15205.25
857.49	15283.25
857.736	15327.25
857.982	15288.25
858.228	15330.25
858.474	15078.25
858.72	14954.25
858.966	14783.25
859.212	14667.25
859.458	14599.25
859.703	14399.25
859.949	14320.25
860.195	14302.25
860.44	14176.25
860.686	14094.25
860.931	14107.25
861.177	13956.25
861.422	13904.25
861.667	13859.25
861.913	13938.25
862.158	13862.25
862.403	13939.25
862.648	13938.25
862.893	14087.25
863.138	13933.25
863.384	13890.25
863.629	13928.25
863.873	13908.25
864.118	13790.25
864.363	13716.25
864.608	13718.25
864.853	13707.25
865.098	13566.25
865.342	13526.25
865.587	13478.25
865.832	13445.25
866.076	13407.25
866.321	13345.25
866.565	13375.25
866.81	13229.25
867.054	13290.25
867.298	13198.25
867.543	13158.25
867.787	13182.25
868.031	13088.25
868.275	13064.25
868.519	13067.25
868.764	13053.25
869.008	12983.25
869.252	13112.25
869.496	12915.25
869.739	12947.25
869.983	12946.25
870.227	12977.25
870.471	12862.25
870.715	12947.25
870.958	12975.25
871.202	12966.25
871.446	12923.25
871.689	13003.25
871.933	12965.25
872.176	13005.25
872.42	12979.25
872.663	12916.25
872.906	12918.25
873.15	12866.25
873.393	12795.25
873.636	12816.25
873.879	12617.25
874.122	12618.25
874.366	12328.25
874.609	12271.25
874.852	12191.25
875.095	12127.25
875.337	12091.25
875.58	11915.25
875.823	11967.25
876.066	11958.25
876.309	11908.25
876.551	11762.25
876.794	11749.25
877.037	11810.25
877.279	11693.25
877.522	11694.25
877.764	11729.25
878.007	11689.25
878.249	11710.25
878.491	11616.25
878.734	11700.25
878.976	11634.25
879.218	11520.25
879.46	11456.25
879.702	11359.25
879.945	11397.25
880.187	11239.25
880.429	11183.25
880.671	11086.25
880.912	11113.25
881.154	11116.25
881.396	10997.25
881.638	10997.25
881.88	10986.25
882.121	10884.25
882.363	10959.25
882.605	10942.25
882.846	10943.25
883.088	10912.25
883.329	10910.25
883.571	10804.25
883.812	10963.25
884.053	11199.25
884.295	11316.25
884.536	11413.25
884.777	11274.25
885.018	11308.25
885.259	11263.25
885.5	11081.25
885.742	11303.25
885.982	11122.25
886.223	10993.25
886.464	10901.25
886.705	10863.25
886.946	10733.25
887.187	10565.25
887.428	10537.25
887.668	10250.25
887.909	10156.25
888.15	10097.25
888.39	10049.25
888.631	10037.25
888.871	9941.25
889.111	9887.25
889.352	9771.25
889.592	9738.25
889.833	9656.25
890.073	9613.25
890.313	9607.25
890.553	9455.25
890.793	9391.25
891.033	9345.25
891.273	9309.25
891.513	9317.25
891.753	9352.25
891.993	9307.25
892.233	9279.25
892.473	9353.25
892.713	9318.25
892.952	9252.25
893.192	9332.25
893.432	9262.25
893.671	9275.25
893.911	9219.25
894.15	9186.25
894.39	9079.25
894.629	8989.25
894.869	9017.25
895.108	8932.25
895.347	8921.25
895.587	8935.25
895.826	8821.25
896.065	8882.25
896.304	8860.25
896.543	8890.25
896.782	8804.25
897.021	8766.25
897.26	8749.25
897.499	8772.25
897.738	8739.25
897.977	8642.25
898.216	8596.25
898.454	8557.25
898.693	8517.25
898.932	8483.25
899.17	8376.25
899.409	8364.25
899.647	8369.25
899.886	8382.25
900.124	8428.25
900.363	8344.25
900.601	8451.25
900.839	8418.25
901.078	8462.25
901.316	8475.25
901.554	8470.25
901.792	8531.25
902.03	8429.25
902.268	8531.25
902.506	8516.25
902.744	8293.25
902.982	8340.25
903.22	8163.25
903.458	8108.25
903.695	8089.25
903.933	7970.25
904.171	7767.25
904.409	7611.25
904.646	7585.25
904.884	7489.25
905.121	7441.25
905.359	7349.25
905.596	7253.25
905.833	7141.25
906.071	7172.25
906.308	7129.25
906.545	7130.25
906.783	7050.25
907.02	7073.25
907.257	7037.25
907.494	7033.25
907.731	6957.25
907.968	6986.25
908.205	6971.25
908.442	6878.25
908.679	6820.25
908.915	6803.25
909.152	6739.25
909.389	6670.25
909.626	6635.25
909.862	6580.25
910.099	6517.25
910.335	6529.25
910.572	6450.25
910.808	6445.25
911.045	6447.25
911.281	6392.25
911.518	6475.25
911.754	6402.25
911.99	6387.25
912.226	6280.25
912.463	6223.25
912.699	6212.25
912.935	6084.25
913.171	6121.25
913.407	6008.25
913.643	6083.25
913.879	5993.25
914.114	5945.25
914.35	5848.25
914.586	5781.25
914.822	5726.25
915.057	5758.25
915.293	5677.25
915.529	5638.25
915.764	5681.25
916	5632.25
916.235	5635.25
916.471	5688.25
916.706	5527.25
916.941	5527.25
917.177	5541.25
917.412	5585.25
917.647	5563.25
917.882	5531.25
918.117	5566.25
918.352	5511.25
918.588	5525.25
918.823	5440.25
919.057	5401.25
919.292	5244.25
919.527	5338.25
919.762	5244.25
919.997	5210.25
920.232	5162.25
920.466	5122.25
920.701	4995.25
920.935	5053.25
921.17	4980.25
921.405	4962.25
921.639	5000.25
921.873	4952.25
922.108	4932.25
922.342	4961.25
922.576	4873.25
922.811	4835.25
923.045	4923.25
923.279	4833.25
923.513	4759.25
923.747	4787.25
923.981	4769.25
924.215	4696.25
924.449	4651.25
924.683	4607.25
924.917	4625.25
925.151	4569.25
925.385	4638.25
925.618	4572.25
925.852	4563.25
926.086	4460.25
926.319	4589.25
926.553	4602.25
926.786	4559.25
927.02	4542.25
927.253	4564.25
927.486	4559.25
927.72	4511.25
927.953	4493.25
928.186	4464.25
928.42	4461.25
928.653	4429.25
928.886	4397.25
929.119	4469.25
929.352	4395.25
929.585	4364.25
929.818	4322.25
930.051	4325.25
930.284	4264.25
930.516	4178.25
930.749	4190.25
930.982	4197.25
931.215	4191.25
931.447	4117.25
931.68	4131.25
931.912	4105.25
932.145	4114.25
932.377	4061.25
932.61	4249.25
932.842	4065.25
933.074	4089.25
933.307	4058.25
933.539	4164.25
933.771	4108.25
934.003	4030.25
934.236	4155.25
934.468	4153.25
934.7	4016.25
934.932	4081.25
935.164	3997.25
935.395	4039.25
935.627	4013.25
935.859	4016.25
936.091	3938.25
936.323	3991.25
936.554	3982.25
936.786	3912.25
937.017	3838.25
937.249	3929.25
937.481	3839.25
937.712	3901.25
937.943	3898.25
938.175	3847.25
938.406	3874.25
938.637	3920.25
938.869	3781.25
939.1	3840.25
939.331	3784.25
939.562	3851.25
939.793	3779.25
940.024	3839.25
940.255	3815.25
940.486	3784.25
940.717	3721.25
940.948	3708.25
941.179	3632.25
941.409	3671.25
941.64	3669.25
941.871	3688.25
942.102	3698.25
942.332	3648.25
942.563	3702.25
942.793	3665.25
943.024	3657.25
943.254	3633.25
943.484	3711.25
943.715	3702.25
943.945	3676.25
944.175	3598.25
944.405	3594.25
944.636	3566.25
944.866	3626.25
945.096	3618.25
945.326	3595.25
945.556	3598.25
945.786	3604.25
946.016	3544.25
946.245	3475.25
946.475	3470.25
946.705	3488.25
946.935	3462.25
947.164	3433.25
947.394	3408.25
947.624	3405.25
947.853	3416.25
948.083	3413.25
948.312	3336.25
948.542	3288.25
948.771	3300.25
949	3311.25
949.23	3303.25
949.459	3323.25
949.688	3345.25
949.917	3343.25
950.146	3344.25
950.375	3405.25
950.604	3292.25
950.833	3346.25
951.062	3279.25
951.291	3308.25
951.52	3259.25
951.749	3218.25
951.978	3226.25
952.206	3189.25
952.435	3185.25
952.664	3220.25
952.892	3258.25
953.121	3216.25
953.349	3190.25
953.578	3173.25
953.806	3136.25
954.035	3106.25
954.263	3113.25
954.491	3065.25
954.719	3102.25
954.948	3060.25
955.176	3021.25
955.404	2952.25
955.632	3030.25
955.86	3054.25
956.088	3019.25
956.316	3028.25
956.544	3040.25
956.772	2936.25
956.999	2893.25
957.227	2992.25
957.455	2908.25
957.683	2923.25
957.91	2888.25
958.138	2853.25
958.365	2837.25
958.593	2841.25
958.82	2791.25
959.048	2865.25
959.275	2813.25
959.502	2790.25
959.73	2792.25
959.957	2871.25
960.184	2831.25
960.411	2746.25
960.638	2833.25
960.865	2783.25
961.092	2773.25
961.319	2735.25
961.546	2787.25
961.773	2801.25
962	2751.25
962.227	2787.25
962.454	2729.25
962.68	2737.25
962.907	2769.25
963.134	2703.25
963.36	2675.25
963.587	2697.25
963.813	2641.25
964.04	2675.25
964.266	2608.25
964.493	2691.25
964.719	2676.25
964.945	2637.25
965.171	2540.25
965.398	2588.25
965.624	2604.25
965.85	2544.25
966.076	2528.25
966.302	2624.25
966.528	2502.25
966.754	2564.25
966.98	2528.25
967.206	2517.25
967.431	2448.25
967.657	2542.25
967.883	2490.25
968.109	2499.25
968.334	2458.25
968.56	2463.25
968.785	2454.25
969.011	2380.25
969.236	2471.25
969.462	2381.25
969.687	2402.25
969.912	2452.25
970.138	2453.25
970.363	2378.25
970.588	2388.25
970.813	2385.25
971.038	2358.25
971.263	2402.25
971.488	2355.25
971.713	2396.25
971.938	2413.25
972.163	2301.25
972.388	2304.25
972.613	2257.25
972.838	2306.25
973.062	2269.25
973.287	2268.25
973.512	2222.25
973.736	2252.25
973.961	2238.25
974.185	2211.25
974.41	2248.25
974.634	2149.25
974.858	2148.25
975.083	2256.25
975.307	2194.25
975.531	2123.25
975.755	2098.25
975.98	2142.25
976.204	2057.25
976.428	2031.25
976.652	2050.25
976.876	2020.25
977.1	2078.25
977.324	2043.25
977.547	2086.25
977.771	2074.25
977.995	2067.25
978.219	2023.25
978.442	2096.25
978.666	2044.25
978.89	2044.25
979.113	2028.25
979.337	1985.25
979.56	1996.25
979.783	2056.25
980.007	1932.25
980.23	1990.25
980.453	1951.25
980.677	1994.25
980.9	1990.25
981.123	1891.25
981.346	1988.25
981.569	1942.25
981.792	1985.25
982.015	1918.25
982.238	1885.25
982.461	1912.25
982.684	1871.25
982.907	1844.25
983.129	1858.25
983.352	1890.25
983.575	1866.25
983.797	1895.25
984.02	1827.25
984.242	1858.25
984.465	1845.25
984.687	1844.25
984.91	1879.25
985.132	1825.25
985.354	1864.25
985.577	1827.25
985.799	1805.25
986.021	1740.25
986.243	1749.25
986.465	1786.25
986.687	1820.25
986.909	1856.25
987.131	1758.25
987.353	1722.25
987.575	1786.25
987.797	1745.25
988.019	1687.25
988.241	1738.25
988.462	1677.25
988.684	1767.25
988.906	1757.25
989.127	1809.25
989.349	1681.25
989.57	1700.25
989.792	1755.25
990.013	1752.25
990.234	1749.25
990.456	1786.25
990.677	1762.25
990.898	1684.25
991.119	1693.25
991.341	1726.25
991.562	1630.25
991.783	1715.25
992.004	1619.25
992.225	1604.25
992.446	1705.25
992.667	1573.25
992.887	1661.25
993.108	1560.25
993.329	1709.25
993.55	1616.25
993.77	1566.25
993.991	1519.25
994.212	1623.25
994.432	1586.25
994.653	1620.25
994.873	1597.25
995.093	1462.25
995.314	1523.25
995.534	1596.25
995.754	1615.25
995.975	1635.25
996.195	1503.25
996.415	1546.25
996.635	1561.25
996.855	1566.25
997.075	1525.25
997.295	1522.25
997.515	1499.25
997.735	1561.25
997.955	1507.25
998.174	1524.25
998.394	1486.25
998.614	1561.25
998.834	1507.25
999.053	1559.25
999.273	1515.25
999.492	1571.25
999.712	1507.25
999.931	1475.25
1000.151	1516.25
1000.37	1499.25
1000.589	1578.25
1000.809	1460.25
1001.028	1567.25
1001.247	1508.25
1001.466	1409.25
1001.685	1559.25
1001.904	1502.25
1002.123	1493.25
1002.342	1482.25
1002.561	1417.25
1002.78	1462.25
1002.999	1535.25
1003.218	1447.25
1003.436	1438.25
1003.655	1504.25
1003.874	1416.25
1004.092	1457.25
1004.311	1500.25
1004.53	1454.25
1004.748	1528.25
1004.966	1446.25
1005.185	1486.25
1005.403	1495.25
1005.622	1467.25
1005.84	1532.25
1006.058	1449.25
1006.276	1477.25
1006.494	1930.25
1006.712	1434.25
1006.931	1504.25
1007.149	1452.25
1007.367	1433.25
1007.584	1456.25
1007.802	1506.25
1008.02	1450.25
1008.238	1527.25
1008.456	1540.25
1008.673	1386.25
1008.891	1518.25
1009.109	1484.25
1009.326	1541.25
1009.544	1575.25
1009.761	1511.25
1009.979	1637.25
1010.196	1631.25
1010.413	1704.25
1010.631	1766.25
1010.848	1806.25
1011.065	1781.25
1011.282	1763.25
1011.5	1665.25
1011.717	1788.25
1011.934	1721.25
1012.151	1749.25
1012.368	1742.25
1012.585	1690.25
1012.801	1747.25
1013.018	1689.25
1013.235	1685.25
1013.452	1684.25
1013.669	1702.25
1013.885	1699.25
1014.102	1737.25
1014.318	1667.25
1014.535	1678.25
1014.751	1678.25
1014.968	1668.25
1015.184	1686.25
1015.401	1590.25
1015.617	1620.25
1015.833	1560.25
1016.049	1587.25
1016.266	1552.25
1016.482	1575.25
1016.698	1479.25
1016.914	1563.25
1017.13	1488.25
1017.346	1494.25
1017.562	1541.25
1017.778	1464.25
1017.993	1454.25
1018.209	1495.25
1018.425	1487.25
1018.641	1404.25
1018.856	1411.25
1019.072	1427.25
1019.288	1473.25
1019.503	1453.25
1019.719	1363.25
1019.934	1358.25
1020.149	1446.25
1020.365	1385.25
1020.58	1325.25
1020.795	1386.25
1021.011	1297.25
1021.226	1279.25
1021.441	1308.25
1021.656	1244.25
1021.871	1153.25
1022.086	1181.25
1022.301	1180.25
1022.516	1166.25
1022.731	1213.25
1022.946	1135.25
1023.16	1131.25
1023.375	1070.25
1023.59	1065.25
1023.804	1045.25
1024.019	1138.25
1024.234	1019.25
1024.448	1017.25
1024.663	959.25
1024.877	996.25
1025.092	1004.25
1025.306	1021.25
1025.52	919.25
1025.734	1007.25
1025.949	920.25
1026.163	891.25
1026.377	857.25
1026.591	888.25
1026.805	830.25
1027.019	833.25
1027.233	775.25
1027.447	743.25
1027.661	841.25
1027.875	777.25
1028.088	782.25
1028.302	705.25
1028.516	695.25
1028.73	697.25
1028.943	669.25
1029.157	637.25
1029.37	620.25
1029.584	-0.75
1029.797	-1.75
1030.011	1.25
1030.224	-4.75
