Data from QEP037381__92__11-36-15-597.txt Node

Date: Wed Dec 21 11:36:15 EST 2022
User: dcclab
Spectrometer: QEP03738
Trigger mode: 4
Integration Time (sec): 1.000000E1
Scans to average: 1
Electric dark correction enabled: true
Nonlinearity correction enabled: false
Boxcar width: 0
XAxis mode: Wavelengths
Number of Pixels in Spectrum: 1044
>>>>>Begin Spectral Data<<<<<
784.041	16.38
784.3	-2.62
784.558	-3.62
784.817	-2.62
785.075	41585.38
785.334	8275.38
785.592	4328.38
785.851	3111.38
786.109	2373.38
786.368	1889.38
786.626	1542.38
786.884	1285.38
787.143	1124.38
787.401	916.38
787.659	873.38
787.917	760.38
788.175	723.38
788.433	633.38
788.691	593.38
788.949	557.38
789.207	559.38
789.465	481.38
789.723	478.38
789.98	420.38
790.238	476.38
790.496	458.38
790.753	432.38
791.011	504.38
791.268	441.38
791.526	425.38
791.783	438.38
792.041	430.38
792.298	355.38
792.556	420.38
792.813	417.38
793.07	382.38
793.327	373.38
793.584	462.38
793.841	384.38
794.099	389.38
794.356	459.38
794.613	365.38
794.869	412.38
795.126	373.38
795.383	339.38
795.64	379.38
795.897	326.38
796.153	392.38
796.41	369.38
796.667	352.38
796.923	362.38
797.18	355.38
797.436	383.38
797.693	353.38
797.949	404.38
798.206	412.38
798.462	340.38
798.718	398.38
798.974	376.38
799.231	416.38
799.487	411.38
799.743	392.38
799.999	421.38
800.255	421.38
800.511	374.38
800.767	427.38
801.023	388.38
801.279	419.38
801.534	439.38
801.79	460.38
802.046	456.38
802.302	538.38
802.557	573.38
802.813	658.38
803.068	739.38
803.324	960.38
803.579	1237.38
803.835	1610.38
804.09	2153.38
804.345	2753.38
804.601	3417.38
804.856	4100.38
805.111	4704.38
805.366	5148.38
805.621	5467.38
805.876	5718.38
806.131	5875.38
806.386	6000.38
806.641	6033.38
806.896	6216.38
807.151	6364.38
807.406	6393.38
807.661	6470.38
807.915	6621.38
808.17	6734.38
808.425	6799.38
808.679	6810.38
808.934	6957.38
809.188	6999.38
809.443	7108.38
809.697	7228.38
809.951	7172.38
810.206	7229.38
810.46	7298.38
810.714	7388.38
810.968	7501.38
811.223	7488.38
811.477	7548.38
811.731	7607.38
811.985	7599.38
812.239	7570.38
812.493	7664.38
812.747	7672.38
813	7684.38
813.254	7774.38
813.508	7813.38
813.762	7803.38
814.015	7795.38
814.269	7962.38
814.522	8007.38
814.776	8049.38
815.03	8135.38
815.283	8273.38
815.536	8416.38
815.79	8511.38
816.043	8604.38
816.296	8719.38
816.55	8865.38
816.803	8979.38
817.056	9086.38
817.309	9133.38
817.562	9281.38
817.815	9420.38
818.068	9347.38
818.321	9444.38
818.574	9554.38
818.827	9688.38
819.079	9778.38
819.332	10034.38
819.585	10058.38
819.838	10235.38
820.09	10160.38
820.343	10319.38
820.595	10303.38
820.848	10322.38
821.1	10364.38
821.353	10355.38
821.605	10265.38
821.857	10338.38
822.11	10199.38
822.362	10224.38
822.614	10199.38
822.866	10191.38
823.118	10250.38
823.37	10375.38
823.622	10327.38
823.874	10331.38
824.126	10405.38
824.378	10383.38
824.63	10350.38
824.882	10458.38
825.134	10407.38
825.385	10414.38
825.637	10275.38
825.888	10282.38
826.14	10195.38
826.392	10150.38
826.643	10153.38
826.895	10130.38
827.146	10035.38
827.397	10043.38
827.649	10069.38
827.9	10050.38
828.151	10021.38
828.402	10071.38
828.653	10158.38
828.905	10135.38
829.156	10152.38
829.407	10145.38
829.658	10145.38
829.909	10187.38
830.159	10253.38
830.41	10208.38
830.661	10065.38
830.912	10033.38
831.162	10046.38
831.413	9885.38
831.664	9951.38
831.914	9933.38
832.165	10002.38
832.415	9925.38
832.666	9975.38
832.916	9979.38
833.167	9924.38
833.417	9955.38
833.667	9849.38
833.917	9834.38
834.168	9825.38
834.418	9887.38
834.668	9724.38
834.918	9654.38
835.168	9680.38
835.418	9543.38
835.668	9564.38
835.918	9549.38
836.167	9519.38
836.417	9462.38
836.667	9549.38
836.917	9495.38
837.166	9453.38
837.416	9573.38
837.666	9507.38
837.915	9544.38
838.165	9510.38
838.414	9468.38
838.663	9437.38
838.913	9496.38
839.162	9331.38
839.411	9494.38
839.661	9395.38
839.91	9317.38
840.159	9438.38
840.408	9447.38
840.657	9455.38
840.906	9446.38
841.155	9432.38
841.404	9405.38
841.653	9420.38
841.902	9372.38
842.15	9600.38
842.399	9527.38
842.648	9396.38
842.897	9423.38
843.145	9312.38
843.394	9229.38
843.642	9103.38
843.891	9198.38
844.139	9027.38
844.388	8946.38
844.636	8977.38
844.884	8922.38
845.133	8983.38
845.381	8851.38
845.629	8958.38
845.877	8881.38
846.125	8888.38
846.373	8906.38
846.621	8801.38
846.869	8874.38
847.117	8784.38
847.365	8706.38
847.613	8733.38
847.861	8737.38
848.108	8730.38
848.356	8714.38
848.604	8689.38
848.851	8660.38
849.099	8734.38
849.346	8709.38
849.594	8842.38
849.841	8902.38
850.089	8927.38
850.336	9004.38
850.583	9061.38
850.831	9053.38
851.078	8992.38
851.325	8906.38
851.572	8906.38
851.819	8670.38
852.066	8543.38
852.313	8377.38
852.56	8348.38
852.807	8279.38
853.054	8290.38
853.301	8286.38
853.548	8283.38
853.794	8418.38
854.041	8355.38
854.288	8345.38
854.534	8579.38
854.781	8488.38
855.028	8421.38
855.274	8543.38
855.52	8438.38
855.767	8495.38
856.013	8535.38
856.26	8790.38
856.506	8455.38
856.752	8338.38
856.998	8382.38
857.244	8382.38
857.49	8450.38
857.736	8473.38
857.982	8481.38
858.228	8387.38
858.474	8279.38
858.72	8214.38
858.966	8133.38
859.212	8039.38
859.458	7989.38
859.703	7879.38
859.949	7776.38
860.195	7808.38
860.44	7773.38
860.686	7725.38
860.931	7820.38
861.177	7662.38
861.422	7613.38
861.667	7495.38
861.913	7501.38
862.158	7497.38
862.403	7580.38
862.648	7632.38
862.893	7575.38
863.138	7546.38
863.384	7474.38
863.629	7545.38
863.873	7575.38
864.118	7534.38
864.363	7455.38
864.608	7481.38
864.853	7457.38
865.098	7405.38
865.342	7379.38
865.587	7368.38
865.832	7388.38
866.076	7353.38
866.321	7333.38
866.565	7283.38
866.81	7260.38
867.054	7273.38
867.298	7193.38
867.543	7182.38
867.787	7234.38
868.031	7194.38
868.275	7191.38
868.519	7181.38
868.764	7186.38
869.008	7220.38
869.252	7209.38
869.496	7222.38
869.739	7170.38
869.983	7191.38
870.227	7180.38
870.471	7181.38
870.715	7330.38
870.958	7285.38
871.202	7304.38
871.446	7254.38
871.689	7288.38
871.933	7346.38
872.176	7311.38
872.42	7220.38
872.663	7290.38
872.906	7325.38
873.15	7312.38
873.393	7317.38
873.636	7403.38
873.879	7270.38
874.122	7216.38
874.366	6973.38
874.609	6887.38
874.852	6852.38
875.095	6808.38
875.337	6785.38
875.58	6660.38
875.823	6684.38
876.066	6710.38
876.309	6699.38
876.551	6593.38
876.794	6548.38
877.037	6660.38
877.279	6490.38
877.522	6535.38
877.764	6510.38
878.007	6510.38
878.249	6511.38
878.491	6467.38
878.734	6525.38
878.976	6508.38
879.218	6373.38
879.46	6413.38
879.702	6396.38
879.945	6265.38
880.187	6209.38
880.429	6183.38
880.671	6193.38
880.912	6163.38
881.154	6129.38
881.396	6037.38
881.638	6114.38
881.88	6135.38
882.121	6114.38
882.363	6130.38
882.605	6122.38
882.846	6109.38
883.088	6137.38
883.329	6159.38
883.571	6231.38
883.812	6281.38
884.053	6538.38
884.295	6768.38
884.536	6824.38
884.777	6757.38
885.018	6700.38
885.259	6682.38
885.5	6543.38
885.742	6760.38
885.982	6570.38
886.223	6409.38
886.464	6330.38
886.705	6258.38
886.946	6223.38
887.187	6027.38
887.428	6018.38
887.668	5844.38
887.909	5746.38
888.15	5653.38
888.39	5732.38
888.631	5679.38
888.871	5615.38
889.111	5504.38
889.352	5501.38
889.592	5413.38
889.833	5343.38
890.073	5313.38
890.313	5344.38
890.553	5245.38
890.793	5269.38
891.033	5226.38
891.273	5150.38
891.513	5231.38
891.753	5244.38
891.993	5152.38
892.233	5213.38
892.473	5286.38
892.713	5239.38
892.952	5147.38
893.192	5227.38
893.432	5206.38
893.671	5258.38
893.911	5204.38
894.15	5173.38
894.39	5134.38
894.629	5098.38
894.869	5097.38
895.108	5071.38
895.347	5044.38
895.587	5055.38
895.826	5009.38
896.065	5008.38
896.304	5015.38
896.543	5065.38
896.782	4967.38
897.021	4975.38
897.26	5067.38
897.499	5093.38
897.738	5076.38
897.977	5008.38
898.216	4979.38
898.454	4937.38
898.693	4898.38
898.932	4942.38
899.17	4859.38
899.409	4886.38
899.647	4881.38
899.886	4819.38
900.124	4932.38
900.363	4886.38
900.601	4921.38
900.839	4950.38
901.078	4967.38
901.316	5046.38
901.554	5063.38
901.792	5084.38
902.03	5111.38
902.268	5057.38
902.506	5082.38
902.744	4953.38
902.982	4959.38
903.22	4811.38
903.458	4809.38
903.695	4721.38
903.933	4576.38
904.171	4514.38
904.409	4409.38
904.646	4373.38
904.884	4333.38
905.121	4322.38
905.359	4275.38
905.596	4209.38
905.833	4089.38
906.071	4069.38
906.308	4167.38
906.545	4083.38
906.783	4009.38
907.02	4058.38
907.257	3995.38
907.494	4009.38
907.731	4040.38
907.968	4042.38
908.205	3959.38
908.442	3900.38
908.679	3901.38
908.915	3844.38
909.152	3879.38
909.389	3811.38
909.626	3782.38
909.862	3787.38
910.099	3786.38
910.335	3788.38
910.572	3632.38
910.808	3712.38
911.045	3669.38
911.281	3655.38
911.518	3725.38
911.754	3604.38
911.99	3630.38
912.226	3605.38
912.463	3505.38
912.699	3535.38
912.935	3471.38
913.171	3457.38
913.407	3429.38
913.643	3480.38
913.879	3440.38
914.114	3378.38
914.35	3327.38
914.586	3338.38
914.822	3279.38
915.057	3351.38
915.293	3243.38
915.529	3185.38
915.764	3328.38
916	3239.38
916.235	3212.38
916.471	3208.38
916.706	3159.38
916.941	3185.38
917.177	3186.38
917.412	3217.38
917.647	3239.38
917.882	3169.38
918.117	3208.38
918.352	3200.38
918.588	3215.38
918.823	3150.38
919.057	3089.38
919.292	3003.38
919.527	3101.38
919.762	3032.38
919.997	3064.38
920.232	2995.38
920.466	3003.38
920.701	2895.38
920.935	2972.38
921.17	2922.38
921.405	2831.38
921.639	2931.38
921.873	2879.38
922.108	2897.38
922.342	2874.38
922.576	2783.38
922.811	2803.38
923.045	2845.38
923.279	2868.38
923.513	2764.38
923.747	2860.38
923.981	2781.38
924.215	2751.38
924.449	2723.38
924.683	2686.38
924.917	2710.38
925.151	2673.38
925.385	2800.38
925.618	2698.38
925.852	2715.38
926.086	2650.38
926.319	2708.38
926.553	2706.38
926.786	2718.38
927.02	2671.38
927.253	2705.38
927.486	2704.38
927.72	2632.38
927.953	2696.38
928.186	2619.38
928.42	2686.38
928.653	2567.38
928.886	2601.38
929.119	2623.38
929.352	2631.38
929.585	2607.38
929.818	2551.38
930.051	2542.38
930.284	2560.38
930.516	2494.38
930.749	2496.38
930.982	2530.38
931.215	2513.38
931.447	2457.38
931.68	2473.38
931.912	2413.38
932.145	2460.38
932.377	2488.38
932.61	2608.38
932.842	2436.38
933.074	2455.38
933.307	2408.38
933.539	2518.38
933.771	2512.38
934.003	2439.38
934.236	2492.38
934.468	2548.38
934.7	2424.38
934.932	2470.38
935.164	2413.38
935.395	2370.38
935.627	2416.38
935.859	2431.38
936.091	2362.38
936.323	2427.38
936.554	2471.38
936.786	2360.38
937.017	2349.38
937.249	2347.38
937.481	2309.38
937.712	2402.38
937.943	2349.38
938.175	2372.38
938.406	2305.38
938.637	2419.38
938.869	2302.38
939.1	2366.38
939.331	2320.38
939.562	2344.38
939.793	2311.38
940.024	2321.38
940.255	2325.38
940.486	2267.38
940.717	2301.38
940.948	2310.38
941.179	2213.38
941.409	2222.38
941.64	2254.38
941.871	2282.38
942.102	2214.38
942.332	2250.38
942.563	2278.38
942.793	2247.38
943.024	2161.38
943.254	2245.38
943.484	2246.38
943.715	2274.38
943.945	2219.38
944.175	2226.38
944.405	2129.38
944.636	2146.38
944.866	2215.38
945.096	2249.38
945.326	2147.38
945.556	2230.38
945.786	2230.38
946.016	2168.38
946.245	2178.38
946.475	2159.38
946.705	2096.38
946.935	2142.38
947.164	2123.38
947.394	2086.38
947.624	2112.38
947.853	2133.38
948.083	2130.38
948.312	2078.38
948.542	2057.38
948.771	2017.38
949	2041.38
949.23	2025.38
949.459	2026.38
949.688	2106.38
949.917	2061.38
950.146	2082.38
950.375	2119.38
950.604	2021.38
950.833	2122.38
951.062	2091.38
951.291	2053.38
951.52	1984.38
951.749	2040.38
951.978	2004.38
952.206	2007.38
952.435	1976.38
952.664	2002.38
952.892	2039.38
953.121	1985.38
953.349	2018.38
953.578	1998.38
953.806	1964.38
954.035	1926.38
954.263	1971.38
954.491	1905.38
954.719	1975.38
954.948	1909.38
955.176	1919.38
955.404	1838.38
955.632	1903.38
955.86	1889.38
956.088	1857.38
956.316	1898.38
956.544	1929.38
956.772	1867.38
956.999	1834.38
957.227	1918.38
957.455	1835.38
957.683	1837.38
957.91	1803.38
958.138	1814.38
958.365	1799.38
958.593	1810.38
958.82	1736.38
959.048	1830.38
959.275	1778.38
959.502	1782.38
959.73	1761.38
959.957	1796.38
960.184	1797.38
960.411	1758.38
960.638	1830.38
960.865	1768.38
961.092	1796.38
961.319	1724.38
961.546	1800.38
961.773	1809.38
962	1788.38
962.227	1841.38
962.454	1764.38
962.68	1742.38
962.907	1784.38
963.134	1731.38
963.36	1757.38
963.587	1753.38
963.813	1688.38
964.04	1754.38
964.266	1667.38
964.493	1749.38
964.719	1725.38
964.945	1721.38
965.171	1621.38
965.398	1694.38
965.624	1696.38
965.85	1650.38
966.076	1650.38
966.302	1667.38
966.528	1641.38
966.754	1688.38
966.98	1682.38
967.206	1666.38
967.431	1588.38
967.657	1662.38
967.883	1643.38
968.109	1639.38
968.334	1595.38
968.56	1619.38
968.785	1611.38
969.011	1569.38
969.236	1635.38
969.462	1560.38
969.687	1570.38
969.912	1636.38
970.138	1655.38
970.363	1564.38
970.588	1578.38
970.813	1559.38
971.038	1526.38
971.263	1564.38
971.488	1583.38
971.713	1611.38
971.938	1601.38
972.163	1496.38
972.388	1539.38
972.613	1518.38
972.838	1534.38
973.062	1501.38
973.287	1506.38
973.512	1464.38
973.736	1508.38
973.961	1476.38
974.185	1463.38
974.41	1531.38
974.634	1398.38
974.858	1440.38
975.083	1475.38
975.307	1511.38
975.531	1430.38
975.755	1416.38
975.98	1405.38
976.204	1360.38
976.428	1366.38
976.652	1375.38
976.876	1348.38
977.1	1403.38
977.324	1344.38
977.547	1397.38
977.771	1396.38
977.995	1371.38
978.219	1318.38
978.442	1427.38
978.666	1358.38
978.89	1376.38
979.113	1377.38
979.337	1360.38
979.56	1332.38
979.783	1406.38
980.007	1304.38
980.23	1362.38
980.453	1324.38
980.677	1352.38
980.9	1346.38
981.123	1253.38
981.346	1362.38
981.569	1330.38
981.792	1339.38
982.015	1306.38
982.238	1278.38
982.461	1311.38
982.684	1286.38
982.907	1259.38
983.129	1253.38
983.352	1294.38
983.575	1281.38
983.797	1304.38
984.02	1249.38
984.242	1252.38
984.465	1258.38
984.687	1300.38
984.91	1327.38
985.132	1284.38
985.354	1302.38
985.577	1268.38
985.799	1262.38
986.021	1205.38
986.243	1215.38
986.465	1232.38
986.687	1289.38
986.909	1333.38
987.131	1257.38
987.353	1221.38
987.575	1272.38
987.797	1225.38
988.019	1184.38
988.241	1240.38
988.462	1182.38
988.684	1237.38
988.906	1279.38
989.127	1305.38
989.349	1178.38
989.57	1226.38
989.792	1275.38
990.013	1279.38
990.234	1289.38
990.456	1282.38
990.677	1276.38
990.898	1228.38
991.119	1239.38
991.341	1249.38
991.562	1194.38
991.783	1223.38
992.004	1159.38
992.225	1167.38
992.446	1227.38
992.667	1133.38
992.887	1224.38
993.108	1126.38
993.329	1227.38
993.55	1172.38
993.77	1153.38
993.991	1140.38
994.212	1175.38
994.432	1161.38
994.653	1205.38
994.873	1186.38
995.093	1073.38
995.314	1113.38
995.534	1185.38
995.754	1211.38
995.975	1219.38
996.195	1116.38
996.415	1175.38
996.635	1171.38
996.855	1162.38
997.075	1148.38
997.295	1147.38
997.515	1117.38
997.735	1171.38
997.955	1141.38
998.174	1145.38
998.394	1136.38
998.614	1176.38
998.834	1108.38
999.053	1187.38
999.273	1178.38
999.492	1231.38
999.712	1162.38
999.931	1108.38
1000.151	1164.38
1000.37	1152.38
1000.589	1211.38
1000.809	1123.38
1001.028	1253.38
1001.247	1179.38
1001.466	1085.38
1001.685	1249.38
1001.904	1166.38
1002.123	1161.38
1002.342	1174.38
1002.561	1126.38
1002.78	1152.38
1002.999	1226.38
1003.218	1147.38
1003.436	1127.38
1003.655	1206.38
1003.874	1120.38
1004.092	1131.38
1004.311	1191.38
1004.53	1157.38
1004.748	1216.38
1004.966	1155.38
1005.185	1195.38
1005.403	1203.38
1005.622	1175.38
1005.84	1249.38
1006.058	1165.38
1006.276	1178.38
1006.494	1662.38
1006.712	1161.38
1006.931	1250.38
1007.149	1141.38
1007.367	1180.38
1007.584	1192.38
1007.802	1236.38
1008.02	1166.38
1008.238	1270.38
1008.456	1272.38
1008.673	1168.38
1008.891	1269.38
1009.109	1226.38
1009.326	1265.38
1009.544	1376.38
1009.761	1268.38
1009.979	1374.38
1010.196	1411.38
1010.413	1485.38
1010.631	1549.38
1010.848	1582.38
1011.065	1572.38
1011.282	1516.38
1011.5	1459.38
1011.717	1557.38
1011.934	1509.38
1012.151	1536.38
1012.368	1494.38
1012.585	1479.38
1012.801	1523.38
1013.018	1508.38
1013.235	1438.38
1013.452	1487.38
1013.669	1508.38
1013.885	1500.38
1014.102	1540.38
1014.318	1472.38
1014.535	1446.38
1014.751	1473.38
1014.968	1469.38
1015.184	1514.38
1015.401	1417.38
1015.617	1446.38
1015.833	1415.38
1016.049	1414.38
1016.266	1384.38
1016.482	1397.38
1016.698	1315.38
1016.914	1365.38
1017.13	1329.38
1017.346	1305.38
1017.562	1380.38
1017.778	1321.38
1017.993	1273.38
1018.209	1342.38
1018.425	1307.38
1018.641	1285.38
1018.856	1253.38
1019.072	1279.38
1019.288	1328.38
1019.503	1301.38
1019.719	1207.38
1019.934	1220.38
1020.149	1284.38
1020.365	1225.38
1020.58	1173.38
1020.795	1238.38
1021.011	1157.38
1021.226	1141.38
1021.441	1182.38
1021.656	1093.38
1021.871	1043.38
1022.086	1040.38
1022.301	1047.38
1022.516	1032.38
1022.731	1081.38
1022.946	992.38
1023.16	1003.38
1023.375	963.38
1023.59	940.38
1023.804	921.38
1024.019	1004.38
1024.234	881.38
1024.448	906.38
1024.663	819.38
1024.877	868.38
1025.092	888.38
1025.306	894.38
1025.52	803.38
1025.734	880.38
1025.949	803.38
1026.163	784.38
1026.377	724.38
1026.591	785.38
1026.805	710.38
1027.019	707.38
1027.233	681.38
1027.447	635.38
1027.661	733.38
1027.875	667.38
1028.088	682.38
1028.302	613.38
1028.516	613.38
1028.73	623.38
1028.943	596.38
1029.157	573.38
1029.37	523.38
1029.584	-2.62
1029.797	1.38
1030.011	-4.62
1030.224	-1.62
