Data from QEP037381__9__11-22-25-593.txt Node

Date: Wed Dec 21 11:22:25 EST 2022
User: dcclab
Spectrometer: QEP03738
Trigger mode: 4
Integration Time (sec): 1.000000E1
Scans to average: 1
Electric dark correction enabled: true
Nonlinearity correction enabled: false
Boxcar width: 0
XAxis mode: Wavelengths
Number of Pixels in Spectrum: 1044
>>>>>Begin Spectral Data<<<<<
784.041	14.12
784.3	0.12
784.558	-3.88
784.817	-3.88
785.075	41755.12
785.334	8645.12
785.592	4541.12
785.851	3220.12
786.109	2455.12
786.368	1967.12
786.626	1610.12
786.884	1354.12
787.143	1167.12
787.401	962.12
787.659	897.12
787.917	799.12
788.175	756.12
788.433	655.12
788.691	620.12
788.949	584.12
789.207	571.12
789.465	503.12
789.723	486.12
789.98	451.12
790.238	494.12
790.496	467.12
790.753	447.12
791.011	497.12
791.268	455.12
791.526	437.12
791.783	457.12
792.041	448.12
792.298	355.12
792.556	423.12
792.813	400.12
793.07	402.12
793.327	388.12
793.584	462.12
793.841	404.12
794.099	410.12
794.356	476.12
794.613	360.12
794.869	403.12
795.126	380.12
795.383	357.12
795.64	394.12
795.897	349.12
796.153	382.12
796.41	389.12
796.667	372.12
796.923	363.12
797.18	370.12
797.436	398.12
797.693	364.12
797.949	425.12
798.206	449.12
798.462	362.12
798.718	412.12
798.974	389.12
799.231	422.12
799.487	420.12
799.743	421.12
799.999	438.12
800.255	442.12
800.511	423.12
800.767	457.12
801.023	439.12
801.279	473.12
801.534	487.12
801.79	532.12
802.046	522.12
802.302	639.12
802.557	684.12
802.813	807.12
803.068	946.12
803.324	1278.12
803.579	1670.12
803.835	2247.12
804.09	3057.12
804.345	3920.12
804.601	4949.12
804.856	5951.12
805.111	6892.12
805.366	7658.12
805.621	8081.12
805.876	8498.12
806.131	8724.12
806.386	8890.12
806.641	8952.12
806.896	9192.12
807.151	9433.12
807.406	9411.12
807.661	9683.12
807.915	9836.12
808.17	10002.12
808.425	10056.12
808.679	10078.12
808.934	10309.12
809.188	10326.12
809.443	10437.12
809.697	10679.12
809.951	10623.12
810.206	10708.12
810.46	10883.12
810.714	11010.12
810.968	11023.12
811.223	11088.12
811.477	11133.12
811.731	11269.12
811.985	11344.12
812.239	11311.12
812.493	11323.12
812.747	11541.12
813	11410.12
813.254	11480.12
813.508	11525.12
813.762	11574.12
814.015	11686.12
814.269	11778.12
814.522	11909.12
814.776	11961.12
815.03	12129.12
815.283	12325.12
815.536	12477.12
815.79	12665.12
816.043	12789.12
816.296	12985.12
816.55	13175.12
816.803	13319.12
817.056	13560.12
817.309	13547.12
817.562	13640.12
817.815	13875.12
818.068	13851.12
818.321	14043.12
818.574	14236.12
818.827	14361.12
819.079	14509.12
819.332	14790.12
819.585	14955.12
819.838	15125.12
820.09	15120.12
820.343	15334.12
820.595	15331.12
820.848	15376.12
821.1	15436.12
821.353	15443.12
821.605	15360.12
821.857	15519.12
822.11	15277.12
822.362	15309.12
822.614	15166.12
822.866	15261.12
823.118	15168.12
823.37	15250.12
823.622	15365.12
823.874	15377.12
824.126	15474.12
824.378	15426.12
824.63	15540.12
824.882	15450.12
825.134	15460.12
825.385	15555.12
825.637	15398.12
825.888	15427.12
826.14	15394.12
826.392	15169.12
826.643	15146.12
826.895	15086.12
827.146	15092.12
827.397	15072.12
827.649	15041.12
827.9	15064.12
828.151	15129.12
828.402	15047.12
828.653	15057.12
828.905	15120.12
829.156	15204.12
829.407	15176.12
829.658	15218.12
829.909	15284.12
830.159	15338.12
830.41	15156.12
830.661	15096.12
830.912	14955.12
831.162	14959.12
831.413	14848.12
831.664	14977.12
831.914	14978.12
832.165	14861.12
832.415	14881.12
832.666	14859.12
832.916	14917.12
833.167	14822.12
833.417	14851.12
833.667	14754.12
833.917	14748.12
834.168	14702.12
834.418	14721.12
834.668	14498.12
834.918	14583.12
835.168	14550.12
835.418	14442.12
835.668	14420.12
835.918	14331.12
836.167	14337.12
836.417	14176.12
836.667	14266.12
836.917	14276.12
837.166	14263.12
837.416	14337.12
837.666	14299.12
837.915	14261.12
838.165	14221.12
838.414	14142.12
838.663	14148.12
838.913	14116.12
839.162	14036.12
839.411	14197.12
839.661	14037.12
839.91	14061.12
840.159	14098.12
840.408	14006.12
840.657	14019.12
840.906	14063.12
841.155	14103.12
841.404	14003.12
841.653	13977.12
841.902	13987.12
842.15	14181.12
842.399	14145.12
842.648	14062.12
842.897	14001.12
843.145	13953.12
843.394	13719.12
843.642	13747.12
843.891	13645.12
844.139	13558.12
844.388	13417.12
844.636	13347.12
844.884	13385.12
845.133	13330.12
845.381	13312.12
845.629	13298.12
845.877	13333.12
846.125	13317.12
846.373	13303.12
846.621	13213.12
846.869	13322.12
847.117	13152.12
847.365	13078.12
847.613	12966.12
847.861	12976.12
848.108	13004.12
848.356	13025.12
848.604	12904.12
848.851	12982.12
849.099	13001.12
849.346	13044.12
849.594	13091.12
849.841	13225.12
850.089	13294.12
850.336	13333.12
850.583	13446.12
850.831	13391.12
851.078	13285.12
851.325	13183.12
851.572	13054.12
851.819	12936.12
852.066	12608.12
852.313	12467.12
852.56	12341.12
852.807	12323.12
853.054	12352.12
853.301	12358.12
853.548	12341.12
853.794	12433.12
854.041	12471.12
854.288	12430.12
854.534	12602.12
854.781	12553.12
855.028	12489.12
855.274	12565.12
855.52	12553.12
855.767	12501.12
856.013	12569.12
856.26	12769.12
856.506	12380.12
856.752	12328.12
856.998	12321.12
857.244	12393.12
857.49	12469.12
857.736	12490.12
857.982	12494.12
858.228	12423.12
858.474	12252.12
858.72	12130.12
858.966	12096.12
859.212	11993.12
859.458	11883.12
859.703	11745.12
859.949	11573.12
860.195	11560.12
860.44	11544.12
860.686	11502.12
860.931	11496.12
861.177	11445.12
861.422	11278.12
861.667	11296.12
861.913	11274.12
862.158	11263.12
862.403	11304.12
862.648	11311.12
862.893	11365.12
863.138	11282.12
863.384	11230.12
863.629	11324.12
863.873	11340.12
864.118	11276.12
864.363	11167.12
864.608	11173.12
864.853	11151.12
865.098	11130.12
865.342	11052.12
865.587	10994.12
865.832	11077.12
866.076	10988.12
866.321	10911.12
866.565	10837.12
866.81	10752.12
867.054	10735.12
867.298	10752.12
867.543	10722.12
867.787	10762.12
868.031	10739.12
868.275	10701.12
868.519	10626.12
868.764	10682.12
869.008	10539.12
869.252	10706.12
869.496	10662.12
869.739	10592.12
869.983	10591.12
870.227	10623.12
870.471	10577.12
870.715	10599.12
870.958	10687.12
871.202	10737.12
871.446	10727.12
871.689	10706.12
871.933	10666.12
872.176	10743.12
872.42	10650.12
872.663	10735.12
872.906	10727.12
873.15	10607.12
873.393	10670.12
873.636	10773.12
873.879	10539.12
874.122	10416.12
874.366	10299.12
874.609	10212.12
874.852	10079.12
875.095	10081.12
875.337	9944.12
875.58	9809.12
875.823	9925.12
876.066	9931.12
876.309	9901.12
876.551	9704.12
876.794	9680.12
877.037	9766.12
877.279	9602.12
877.522	9663.12
877.764	9700.12
878.007	9603.12
878.249	9634.12
878.491	9576.12
878.734	9582.12
878.976	9573.12
879.218	9487.12
879.46	9497.12
879.702	9419.12
879.945	9366.12
880.187	9210.12
880.429	9244.12
880.671	9198.12
880.912	9128.12
881.154	9130.12
881.396	9075.12
881.638	9079.12
881.88	9091.12
882.121	9028.12
882.363	9049.12
882.605	9039.12
882.846	9060.12
883.088	9091.12
883.329	9061.12
883.571	9088.12
883.812	9227.12
884.053	9401.12
884.295	9577.12
884.536	9769.12
884.777	9660.12
885.018	9529.12
885.259	9484.12
885.5	9345.12
885.742	9583.12
885.982	9341.12
886.223	9297.12
886.464	9255.12
886.705	9072.12
886.946	9000.12
887.187	8772.12
887.428	8774.12
887.668	8626.12
887.909	8492.12
888.15	8378.12
888.39	8336.12
888.631	8360.12
888.871	8304.12
889.111	8148.12
889.352	8118.12
889.592	8033.12
889.833	7969.12
890.073	7859.12
890.313	7976.12
890.553	7823.12
890.793	7737.12
891.033	7716.12
891.273	7651.12
891.513	7664.12
891.753	7783.12
891.993	7683.12
892.233	7710.12
892.473	7723.12
892.713	7742.12
892.952	7713.12
893.192	7732.12
893.432	7702.12
893.671	7728.12
893.911	7654.12
894.15	7613.12
894.39	7556.12
894.629	7552.12
894.869	7517.12
895.108	7486.12
895.347	7448.12
895.587	7412.12
895.826	7397.12
896.065	7317.12
896.304	7452.12
896.543	7442.12
896.782	7356.12
897.021	7364.12
897.26	7367.12
897.499	7399.12
897.738	7348.12
897.977	7261.12
898.216	7209.12
898.454	7211.12
898.693	7144.12
898.932	7153.12
899.17	7103.12
899.409	7091.12
899.647	7073.12
899.886	7021.12
900.124	7133.12
900.363	7089.12
900.601	7114.12
900.839	7092.12
901.078	7180.12
901.316	7198.12
901.554	7250.12
901.792	7299.12
902.03	7219.12
902.268	7236.12
902.506	7257.12
902.744	7187.12
902.982	7135.12
903.22	6941.12
903.458	6920.12
903.695	6760.12
903.933	6740.12
904.171	6512.12
904.409	6407.12
904.646	6447.12
904.884	6291.12
905.121	6246.12
905.359	6138.12
905.596	6134.12
905.833	6045.12
906.071	5989.12
906.308	6035.12
906.545	5995.12
906.783	5918.12
907.02	5952.12
907.257	5923.12
907.494	5919.12
907.731	5861.12
907.968	5912.12
908.205	5790.12
908.442	5759.12
908.679	5772.12
908.915	5704.12
909.152	5693.12
909.389	5567.12
909.626	5574.12
909.862	5532.12
910.099	5517.12
910.335	5486.12
910.572	5404.12
910.808	5444.12
911.045	5399.12
911.281	5372.12
911.518	5418.12
911.754	5385.12
911.99	5364.12
912.226	5315.12
912.463	5223.12
912.699	5190.12
912.935	5180.12
913.171	5143.12
913.407	5049.12
913.643	5122.12
913.879	5060.12
914.114	4975.12
914.35	4926.12
914.586	4909.12
914.822	4834.12
915.057	4906.12
915.293	4745.12
915.529	4751.12
915.764	4847.12
916	4773.12
916.235	4743.12
916.471	4742.12
916.706	4641.12
916.941	4710.12
917.177	4697.12
917.412	4743.12
917.647	4664.12
917.882	4686.12
918.117	4713.12
918.352	4659.12
918.588	4700.12
918.823	4556.12
919.057	4599.12
919.292	4455.12
919.527	4530.12
919.762	4453.12
919.997	4473.12
920.232	4366.12
920.466	4393.12
920.701	4297.12
920.935	4309.12
921.17	4205.12
921.405	4180.12
921.639	4208.12
921.873	4228.12
922.108	4210.12
922.342	4177.12
922.576	4127.12
922.811	4171.12
923.045	4126.12
923.279	4184.12
923.513	4029.12
923.747	4088.12
923.981	4022.12
924.215	3991.12
924.449	3959.12
924.683	3915.12
924.917	3942.12
925.151	3888.12
925.385	3995.12
925.618	3895.12
925.852	3877.12
926.086	3870.12
926.319	3877.12
926.553	3921.12
926.786	3872.12
927.02	3842.12
927.253	3872.12
927.486	3875.12
927.72	3822.12
927.953	3884.12
928.186	3794.12
928.42	3871.12
928.653	3800.12
928.886	3754.12
929.119	3790.12
929.352	3747.12
929.585	3731.12
929.818	3637.12
930.051	3647.12
930.284	3681.12
930.516	3570.12
930.749	3583.12
930.982	3594.12
931.215	3580.12
931.447	3510.12
931.68	3544.12
931.912	3540.12
932.145	3518.12
932.377	3515.12
932.61	3679.12
932.842	3441.12
933.074	3539.12
933.307	3507.12
933.539	3578.12
933.771	3513.12
934.003	3458.12
934.236	3637.12
934.468	3601.12
934.7	3467.12
934.932	3506.12
935.164	3476.12
935.395	3409.12
935.627	3418.12
935.859	3421.12
936.091	3387.12
936.323	3442.12
936.554	3466.12
936.786	3373.12
937.017	3323.12
937.249	3389.12
937.481	3333.12
937.712	3384.12
937.943	3320.12
938.175	3315.12
938.406	3327.12
938.637	3358.12
938.869	3275.12
939.1	3333.12
939.331	3302.12
939.562	3298.12
939.793	3298.12
940.024	3324.12
940.255	3313.12
940.486	3288.12
940.717	3243.12
940.948	3251.12
941.179	3146.12
941.409	3217.12
941.64	3208.12
941.871	3200.12
942.102	3149.12
942.332	3178.12
942.563	3174.12
942.793	3146.12
943.024	3109.12
943.254	3193.12
943.484	3169.12
943.715	3165.12
943.945	3138.12
944.175	3092.12
944.405	3055.12
944.636	3102.12
944.866	3113.12
945.096	3135.12
945.326	3080.12
945.556	3089.12
945.786	3116.12
946.016	3082.12
946.245	3016.12
946.475	3000.12
946.705	3021.12
946.935	2983.12
947.164	2994.12
947.394	2950.12
947.624	2951.12
947.853	2989.12
948.083	2923.12
948.312	2897.12
948.542	2825.12
948.771	2815.12
949	2868.12
949.23	2882.12
949.459	2879.12
949.688	2945.12
949.917	2846.12
950.146	2899.12
950.375	2897.12
950.604	2811.12
950.833	2923.12
951.062	2886.12
951.291	2832.12
951.52	2786.12
951.749	2786.12
951.978	2775.12
952.206	2766.12
952.435	2738.12
952.664	2842.12
952.892	2784.12
953.121	2809.12
953.349	2802.12
953.578	2769.12
953.806	2754.12
954.035	2680.12
954.263	2738.12
954.491	2669.12
954.719	2710.12
954.948	2636.12
955.176	2620.12
955.404	2602.12
955.632	2624.12
955.86	2648.12
956.088	2623.12
956.316	2626.12
956.544	2619.12
956.772	2587.12
956.999	2547.12
957.227	2639.12
957.455	2527.12
957.683	2530.12
957.91	2538.12
958.138	2477.12
958.365	2491.12
958.593	2456.12
958.82	2439.12
959.048	2476.12
959.275	2465.12
959.502	2473.12
959.73	2448.12
959.957	2431.12
960.184	2494.12
960.411	2396.12
960.638	2486.12
960.865	2416.12
961.092	2432.12
961.319	2331.12
961.546	2444.12
961.773	2452.12
962	2430.12
962.227	2481.12
962.454	2410.12
962.68	2399.12
962.907	2411.12
963.134	2348.12
963.36	2387.12
963.587	2377.12
963.813	2314.12
964.04	2367.12
964.266	2268.12
964.493	2372.12
964.719	2348.12
964.945	2316.12
965.171	2243.12
965.398	2278.12
965.624	2305.12
965.85	2183.12
966.076	2242.12
966.302	2289.12
966.528	2200.12
966.754	2252.12
966.98	2233.12
967.206	2241.12
967.431	2160.12
967.657	2240.12
967.883	2244.12
968.109	2217.12
968.334	2151.12
968.56	2136.12
968.785	2165.12
969.011	2124.12
969.236	2183.12
969.462	2115.12
969.687	2128.12
969.912	2174.12
970.138	2198.12
970.363	2109.12
970.588	2147.12
970.813	2096.12
971.038	2068.12
971.263	2123.12
971.488	2088.12
971.713	2155.12
971.938	2103.12
972.163	1997.12
972.388	2074.12
972.613	2024.12
972.838	2082.12
973.062	2041.12
973.287	2036.12
973.512	1963.12
973.736	2019.12
973.961	1998.12
974.185	1954.12
974.41	2005.12
974.634	1908.12
974.858	1908.12
975.083	1944.12
975.307	1958.12
975.531	1904.12
975.755	1876.12
975.98	1884.12
976.204	1846.12
976.428	1814.12
976.652	1829.12
976.876	1825.12
977.1	1838.12
977.324	1813.12
977.547	1832.12
977.771	1866.12
977.995	1826.12
978.219	1766.12
978.442	1881.12
978.666	1822.12
978.89	1817.12
979.113	1793.12
979.337	1811.12
979.56	1806.12
979.783	1830.12
980.007	1754.12
980.23	1816.12
980.453	1735.12
980.677	1744.12
980.9	1760.12
981.123	1676.12
981.346	1761.12
981.569	1741.12
981.792	1753.12
982.015	1715.12
982.238	1671.12
982.461	1703.12
982.684	1682.12
982.907	1677.12
983.129	1632.12
983.352	1715.12
983.575	1696.12
983.797	1678.12
984.02	1621.12
984.242	1637.12
984.465	1652.12
984.687	1664.12
984.91	1675.12
985.132	1661.12
985.354	1658.12
985.577	1660.12
985.799	1633.12
986.021	1550.12
986.243	1556.12
986.465	1585.12
986.687	1658.12
986.909	1667.12
987.131	1622.12
987.353	1572.12
987.575	1593.12
987.797	1575.12
988.019	1513.12
988.241	1598.12
988.462	1521.12
988.684	1608.12
988.906	1627.12
989.127	1643.12
989.349	1526.12
989.57	1541.12
989.792	1607.12
990.013	1617.12
990.234	1590.12
990.456	1626.12
990.677	1591.12
990.898	1525.12
991.119	1547.12
991.341	1569.12
991.562	1513.12
991.783	1539.12
992.004	1497.12
992.225	1469.12
992.446	1520.12
992.667	1447.12
992.887	1537.12
993.108	1420.12
993.329	1542.12
993.55	1511.12
993.77	1417.12
993.991	1425.12
994.212	1493.12
994.432	1464.12
994.653	1464.12
994.873	1442.12
995.093	1347.12
995.314	1419.12
995.534	1494.12
995.754	1469.12
995.975	1501.12
996.195	1411.12
996.415	1453.12
996.635	1432.12
996.855	1426.12
997.075	1420.12
997.295	1426.12
997.515	1397.12
997.735	1433.12
997.955	1413.12
998.174	1413.12
998.394	1379.12
998.614	1445.12
998.834	1389.12
999.053	1463.12
999.273	1418.12
999.492	1479.12
999.712	1407.12
999.931	1348.12
1000.151	1398.12
1000.37	1414.12
1000.589	1428.12
1000.809	1348.12
1001.028	1460.12
1001.247	1421.12
1001.466	1315.12
1001.685	1480.12
1001.904	1390.12
1002.123	1376.12
1002.342	1374.12
1002.561	1337.12
1002.78	1348.12
1002.999	1455.12
1003.218	1363.12
1003.436	1339.12
1003.655	1401.12
1003.874	1344.12
1004.092	1339.12
1004.311	1399.12
1004.53	1327.12
1004.748	1469.12
1004.966	1378.12
1005.185	1416.12
1005.403	1395.12
1005.622	1358.12
1005.84	1453.12
1006.058	1359.12
1006.276	1393.12
1006.494	1859.12
1006.712	1384.12
1006.931	1416.12
1007.149	1348.12
1007.367	1371.12
1007.584	1386.12
1007.802	1423.12
1008.02	1363.12
1008.238	1477.12
1008.456	1480.12
1008.673	1337.12
1008.891	1455.12
1009.109	1422.12
1009.326	1488.12
1009.544	1584.12
1009.761	1486.12
1009.979	1586.12
1010.196	1574.12
1010.413	1700.12
1010.631	1762.12
1010.848	1805.12
1011.065	1801.12
1011.282	1737.12
1011.5	1672.12
1011.717	1791.12
1011.934	1705.12
1012.151	1736.12
1012.368	1740.12
1012.585	1676.12
1012.801	1750.12
1013.018	1702.12
1013.235	1672.12
1013.452	1696.12
1013.669	1718.12
1013.885	1700.12
1014.102	1729.12
1014.318	1726.12
1014.535	1652.12
1014.751	1703.12
1014.968	1673.12
1015.184	1723.12
1015.401	1600.12
1015.617	1651.12
1015.833	1574.12
1016.049	1608.12
1016.266	1606.12
1016.482	1547.12
1016.698	1500.12
1016.914	1547.12
1017.13	1475.12
1017.346	1463.12
1017.562	1562.12
1017.778	1473.12
1017.993	1450.12
1018.209	1499.12
1018.425	1474.12
1018.641	1417.12
1018.856	1413.12
1019.072	1447.12
1019.288	1493.12
1019.503	1466.12
1019.719	1346.12
1019.934	1385.12
1020.149	1448.12
1020.365	1397.12
1020.58	1336.12
1020.795	1366.12
1021.011	1305.12
1021.226	1266.12
1021.441	1318.12
1021.656	1245.12
1021.871	1202.12
1022.086	1163.12
1022.301	1170.12
1022.516	1170.12
1022.731	1232.12
1022.946	1135.12
1023.16	1112.12
1023.375	1063.12
1023.59	1045.12
1023.804	1018.12
1024.019	1124.12
1024.234	989.12
1024.448	1021.12
1024.663	954.12
1024.877	956.12
1025.092	971.12
1025.306	991.12
1025.52	912.12
1025.734	984.12
1025.949	907.12
1026.163	874.12
1026.377	823.12
1026.591	870.12
1026.805	797.12
1027.019	801.12
1027.233	755.12
1027.447	706.12
1027.661	827.12
1027.875	754.12
1028.088	756.12
1028.302	697.12
1028.516	683.12
1028.73	678.12
1028.943	691.12
1029.157	653.12
1029.37	594.12
1029.584	-4.88
1029.797	-0.88
1030.011	-1.88
1030.224	1.12
