Data from QEP037381__40__11-27-35-593.txt Node

Date: Wed Dec 21 11:27:35 EST 2022
User: dcclab
Spectrometer: QEP03738
Trigger mode: 4
Integration Time (sec): 1.000000E1
Scans to average: 1
Electric dark correction enabled: true
Nonlinearity correction enabled: false
Boxcar width: 0
XAxis mode: Wavelengths
Number of Pixels in Spectrum: 1044
>>>>>Begin Spectral Data<<<<<
784.041	9.5
784.3	4.5
784.558	-3.5
784.817	-3.5
785.075	38791.5
785.334	8012.5
785.592	4265.5
785.851	3047.5
786.109	2317.5
786.368	1834.5
786.626	1524.5
786.884	1261.5
787.143	1107.5
787.401	918.5
787.659	857.5
787.917	758.5
788.175	739.5
788.433	645.5
788.691	615.5
788.949	547.5
789.207	526.5
789.465	455.5
789.723	468.5
789.98	425.5
790.238	484.5
790.496	456.5
790.753	427.5
791.011	498.5
791.268	417.5
791.526	419.5
791.783	442.5
792.041	421.5
792.298	353.5
792.556	415.5
792.813	407.5
793.07	373.5
793.327	371.5
793.584	453.5
793.841	373.5
794.099	383.5
794.356	462.5
794.613	352.5
794.869	403.5
795.126	358.5
795.383	361.5
795.64	372.5
795.897	323.5
796.153	377.5
796.41	378.5
796.667	346.5
796.923	363.5
797.18	372.5
797.436	388.5
797.693	343.5
797.949	405.5
798.206	422.5
798.462	336.5
798.718	389.5
798.974	377.5
799.231	411.5
799.487	389.5
799.743	392.5
799.999	426.5
800.255	400.5
800.511	396.5
800.767	439.5
801.023	404.5
801.279	443.5
801.534	450.5
801.79	479.5
802.046	479.5
802.302	553.5
802.557	590.5
802.813	701.5
803.068	772.5
803.324	1027.5
803.579	1325.5
803.835	1763.5
804.09	2391.5
804.345	2974.5
804.601	3703.5
804.856	4449.5
805.111	5099.5
805.366	5572.5
805.621	5932.5
805.876	6241.5
806.131	6317.5
806.386	6444.5
806.641	6576.5
806.896	6649.5
807.151	6864.5
807.406	6931.5
807.661	7078.5
807.915	7195.5
808.17	7296.5
808.425	7338.5
808.679	7363.5
808.934	7549.5
809.188	7558.5
809.443	7621.5
809.697	7779.5
809.951	7790.5
810.206	7833.5
810.46	7891.5
810.714	7914.5
810.968	8073.5
811.223	8057.5
811.477	8135.5
811.731	8179.5
811.985	8169.5
812.239	8190.5
812.493	8334.5
812.747	8321.5
813	8314.5
813.254	8345.5
813.508	8420.5
813.762	8417.5
814.015	8418.5
814.269	8485.5
814.522	8650.5
814.776	8720.5
815.03	8812.5
815.283	8843.5
815.536	9038.5
815.79	9165.5
816.043	9248.5
816.296	9362.5
816.55	9530.5
816.803	9619.5
817.056	9854.5
817.309	9762.5
817.562	9907.5
817.815	10008.5
818.068	10010.5
818.321	10146.5
818.574	10237.5
818.827	10417.5
819.079	10469.5
819.332	10811.5
819.585	10870.5
819.838	10979.5
820.09	10971.5
820.343	11068.5
820.595	11073.5
820.848	11085.5
821.1	11221.5
821.353	11154.5
821.605	11168.5
821.857	11129.5
822.11	11050.5
822.362	11034.5
822.614	11043.5
822.866	11056.5
823.118	11001.5
823.37	11163.5
823.622	11139.5
823.874	11141.5
824.126	11212.5
824.378	11169.5
824.63	11176.5
824.882	11261.5
825.134	11224.5
825.385	11117.5
825.637	11146.5
825.888	11041.5
826.14	11078.5
826.392	11010.5
826.643	10901.5
826.895	10919.5
827.146	10902.5
827.397	10791.5
827.649	10942.5
827.9	10790.5
828.151	10831.5
828.402	10825.5
828.653	10873.5
828.905	10917.5
829.156	10990.5
829.407	10953.5
829.658	11008.5
829.909	10984.5
830.159	11054.5
830.41	11009.5
830.661	10877.5
830.912	10763.5
831.162	10735.5
831.413	10757.5
831.664	10749.5
831.914	10660.5
832.165	10686.5
832.415	10658.5
832.666	10694.5
832.916	10716.5
833.167	10629.5
833.417	10690.5
833.667	10638.5
833.917	10518.5
834.168	10584.5
834.418	10553.5
834.668	10462.5
834.918	10430.5
835.168	10422.5
835.418	10338.5
835.668	10363.5
835.918	10315.5
836.167	10391.5
836.417	10212.5
836.667	10314.5
836.917	10243.5
837.166	10292.5
837.416	10237.5
837.666	10339.5
837.915	10262.5
838.165	10152.5
838.414	10142.5
838.663	10130.5
838.913	10189.5
839.162	10068.5
839.411	10139.5
839.661	10150.5
839.91	10095.5
840.159	10107.5
840.408	10186.5
840.657	10171.5
840.906	10168.5
841.155	10142.5
841.404	10090.5
841.653	10102.5
841.902	10175.5
842.15	10224.5
842.399	10251.5
842.648	10197.5
842.897	10153.5
843.145	10010.5
843.394	9972.5
843.642	9851.5
843.891	9831.5
844.139	9744.5
844.388	9640.5
844.636	9627.5
844.884	9671.5
845.133	9587.5
845.381	9626.5
845.629	9633.5
845.877	9641.5
846.125	9626.5
846.373	9613.5
846.621	9565.5
846.869	9467.5
847.117	9462.5
847.365	9386.5
847.613	9395.5
847.861	9412.5
848.108	9411.5
848.356	9363.5
848.604	9293.5
848.851	9364.5
849.099	9286.5
849.346	9428.5
849.594	9522.5
849.841	9490.5
850.089	9625.5
850.336	9673.5
850.583	9717.5
850.831	9679.5
851.078	9645.5
851.325	9512.5
851.572	9500.5
851.819	9394.5
852.066	9165.5
852.313	8914.5
852.56	8832.5
852.807	8924.5
853.054	8848.5
853.301	8840.5
853.548	8906.5
853.794	9021.5
854.041	8984.5
854.288	8936.5
854.534	9112.5
854.781	9076.5
855.028	9060.5
855.274	9141.5
855.52	9030.5
855.767	9023.5
856.013	9101.5
856.26	9355.5
856.506	8973.5
856.752	8929.5
856.998	8957.5
857.244	8922.5
857.49	9031.5
857.736	9019.5
857.982	9044.5
858.228	8929.5
858.474	8828.5
858.72	8836.5
858.966	8689.5
859.212	8660.5
859.458	8476.5
859.703	8412.5
859.949	8334.5
860.195	8338.5
860.44	8293.5
860.686	8235.5
860.931	8300.5
861.177	8181.5
861.422	8183.5
861.667	8071.5
861.913	8111.5
862.158	8059.5
862.403	8135.5
862.648	8139.5
862.893	8172.5
863.138	8144.5
863.384	8020.5
863.629	8098.5
863.873	8113.5
864.118	8073.5
864.363	7937.5
864.608	8045.5
864.853	7984.5
865.098	7932.5
865.342	7918.5
865.587	7878.5
865.832	7856.5
866.076	7870.5
866.321	7798.5
866.565	7846.5
866.81	7679.5
867.054	7763.5
867.298	7768.5
867.543	7710.5
867.787	7736.5
868.031	7727.5
868.275	7692.5
868.519	7663.5
868.764	7629.5
869.008	7626.5
869.252	7678.5
869.496	7622.5
869.739	7624.5
869.983	7766.5
870.227	7677.5
870.471	7667.5
870.715	7748.5
870.958	7711.5
871.202	7731.5
871.446	7728.5
871.689	7759.5
871.933	7749.5
872.176	7715.5
872.42	7713.5
872.663	7728.5
872.906	7796.5
873.15	7786.5
873.393	7667.5
873.636	7822.5
873.879	7694.5
874.122	7621.5
874.366	7448.5
874.609	7404.5
874.852	7309.5
875.095	7300.5
875.337	7206.5
875.58	7148.5
875.823	7088.5
876.066	7174.5
876.309	7131.5
876.551	6990.5
876.794	6975.5
877.037	6995.5
877.279	6947.5
877.522	6966.5
877.764	6924.5
878.007	6873.5
878.249	6973.5
878.491	6914.5
878.734	6910.5
878.976	6905.5
879.218	6768.5
879.46	6821.5
879.702	6760.5
879.945	6723.5
880.187	6568.5
880.429	6611.5
880.671	6602.5
880.912	6586.5
881.154	6522.5
881.396	6481.5
881.638	6567.5
881.88	6542.5
882.121	6456.5
882.363	6475.5
882.605	6572.5
882.846	6564.5
883.088	6499.5
883.329	6540.5
883.571	6595.5
883.812	6698.5
884.053	6891.5
884.295	7114.5
884.536	7211.5
884.777	7129.5
885.018	7084.5
885.259	7017.5
885.5	6932.5
885.742	7129.5
885.982	6905.5
886.223	6808.5
886.464	6753.5
886.705	6603.5
886.946	6524.5
887.187	6354.5
887.428	6352.5
887.668	6203.5
887.909	6127.5
888.15	6033.5
888.39	6043.5
888.631	6029.5
888.871	5944.5
889.111	5912.5
889.352	5835.5
889.592	5741.5
889.833	5684.5
890.073	5710.5
890.313	5759.5
890.553	5571.5
890.793	5560.5
891.033	5545.5
891.273	5529.5
891.513	5565.5
891.753	5572.5
891.993	5547.5
892.233	5555.5
892.473	5610.5
892.713	5561.5
892.952	5528.5
893.192	5526.5
893.432	5501.5
893.671	5592.5
893.911	5532.5
894.15	5460.5
894.39	5418.5
894.629	5433.5
894.869	5430.5
895.108	5365.5
895.347	5294.5
895.587	5417.5
895.826	5317.5
896.065	5282.5
896.304	5385.5
896.543	5398.5
896.782	5302.5
897.021	5293.5
897.26	5263.5
897.499	5339.5
897.738	5389.5
897.977	5296.5
898.216	5245.5
898.454	5246.5
898.693	5112.5
898.932	5249.5
899.17	5164.5
899.409	5158.5
899.647	5105.5
899.886	5152.5
900.124	5191.5
900.363	5150.5
900.601	5221.5
900.839	5245.5
901.078	5213.5
901.316	5276.5
901.554	5378.5
901.792	5346.5
902.03	5334.5
902.268	5328.5
902.506	5360.5
902.744	5256.5
902.982	5229.5
903.22	5120.5
903.458	5059.5
903.695	4943.5
903.933	4887.5
904.171	4756.5
904.409	4696.5
904.646	4676.5
904.884	4589.5
905.121	4529.5
905.359	4553.5
905.596	4421.5
905.833	4381.5
906.071	4318.5
906.308	4419.5
906.545	4346.5
906.783	4268.5
907.02	4338.5
907.257	4178.5
907.494	4239.5
907.731	4239.5
907.968	4235.5
908.205	4179.5
908.442	4150.5
908.679	4203.5
908.915	4098.5
909.152	4094.5
909.389	3982.5
909.626	4012.5
909.862	3932.5
910.099	3965.5
910.335	3994.5
910.572	3884.5
910.808	3872.5
911.045	3873.5
911.281	3878.5
911.518	3897.5
911.754	3899.5
911.99	3894.5
912.226	3775.5
912.463	3747.5
912.699	3737.5
912.935	3690.5
913.171	3676.5
913.407	3650.5
913.643	3660.5
913.879	3620.5
914.114	3565.5
914.35	3533.5
914.586	3541.5
914.822	3475.5
915.057	3589.5
915.293	3443.5
915.529	3370.5
915.764	3514.5
916	3477.5
916.235	3449.5
916.471	3489.5
916.706	3368.5
916.941	3374.5
917.177	3412.5
917.412	3425.5
917.647	3406.5
917.882	3371.5
918.117	3388.5
918.352	3378.5
918.588	3370.5
918.823	3306.5
919.057	3277.5
919.292	3251.5
919.527	3313.5
919.762	3209.5
919.997	3226.5
920.232	3163.5
920.466	3199.5
920.701	3040.5
920.935	3056.5
921.17	3084.5
921.405	3050.5
921.639	3103.5
921.873	3035.5
922.108	3043.5
922.342	3053.5
922.576	2961.5
922.811	2998.5
923.045	3026.5
923.279	3041.5
923.513	2891.5
923.747	2995.5
923.981	2950.5
924.215	2889.5
924.449	2903.5
924.683	2867.5
924.917	2880.5
925.151	2842.5
925.385	2910.5
925.618	2819.5
925.852	2842.5
926.086	2772.5
926.319	2810.5
926.553	2802.5
926.786	2855.5
927.02	2809.5
927.253	2862.5
927.486	2854.5
927.72	2742.5
927.953	2831.5
928.186	2802.5
928.42	2821.5
928.653	2738.5
928.886	2742.5
929.119	2785.5
929.352	2745.5
929.585	2747.5
929.818	2662.5
930.051	2719.5
930.284	2720.5
930.516	2581.5
930.749	2645.5
930.982	2652.5
931.215	2626.5
931.447	2604.5
931.68	2610.5
931.912	2609.5
932.145	2576.5
932.377	2549.5
932.61	2693.5
932.842	2527.5
933.074	2565.5
933.307	2512.5
933.539	2632.5
933.771	2616.5
934.003	2562.5
934.236	2615.5
934.468	2646.5
934.7	2543.5
934.932	2610.5
935.164	2523.5
935.395	2526.5
935.627	2563.5
935.859	2559.5
936.091	2496.5
936.323	2535.5
936.554	2565.5
936.786	2531.5
937.017	2425.5
937.249	2492.5
937.481	2406.5
937.712	2548.5
937.943	2455.5
938.175	2458.5
938.406	2431.5
938.637	2527.5
938.869	2447.5
939.1	2479.5
939.331	2427.5
939.562	2498.5
939.793	2418.5
940.024	2472.5
940.255	2420.5
940.486	2402.5
940.717	2405.5
940.948	2366.5
941.179	2348.5
941.409	2336.5
941.64	2365.5
941.871	2370.5
942.102	2372.5
942.332	2312.5
942.563	2396.5
942.793	2366.5
943.024	2295.5
943.254	2341.5
943.484	2389.5
943.715	2436.5
943.945	2364.5
944.175	2278.5
944.405	2258.5
944.636	2304.5
944.866	2382.5
945.096	2331.5
945.326	2281.5
945.556	2348.5
945.786	2372.5
946.016	2292.5
946.245	2241.5
946.475	2251.5
946.705	2265.5
946.935	2248.5
947.164	2232.5
947.394	2197.5
947.624	2220.5
947.853	2246.5
948.083	2217.5
948.312	2185.5
948.542	2141.5
948.771	2109.5
949	2152.5
949.23	2113.5
949.459	2151.5
949.688	2231.5
949.917	2120.5
950.146	2143.5
950.375	2219.5
950.604	2107.5
950.833	2203.5
951.062	2210.5
951.291	2121.5
951.52	2075.5
951.749	2130.5
951.978	2079.5
952.206	2083.5
952.435	2077.5
952.664	2161.5
952.892	2113.5
953.121	2090.5
953.349	2134.5
953.578	2072.5
953.806	2047.5
954.035	2064.5
954.263	2069.5
954.491	2017.5
954.719	2071.5
954.948	2005.5
955.176	1970.5
955.404	1916.5
955.632	2002.5
955.86	2000.5
956.088	1968.5
956.316	2017.5
956.544	2046.5
956.772	1945.5
956.999	1941.5
957.227	2030.5
957.455	1900.5
957.683	1936.5
957.91	1891.5
958.138	1876.5
958.365	1910.5
958.593	1878.5
958.82	1825.5
959.048	1935.5
959.275	1847.5
959.502	1860.5
959.73	1858.5
959.957	1887.5
960.184	1882.5
960.411	1842.5
960.638	1905.5
960.865	1852.5
961.092	1887.5
961.319	1776.5
961.546	1903.5
961.773	1887.5
962	1842.5
962.227	1909.5
962.454	1842.5
962.68	1815.5
962.907	1862.5
963.134	1830.5
963.36	1824.5
963.587	1855.5
963.813	1767.5
964.04	1805.5
964.266	1760.5
964.493	1838.5
964.719	1833.5
964.945	1825.5
965.171	1716.5
965.398	1765.5
965.624	1752.5
965.85	1745.5
966.076	1715.5
966.302	1753.5
966.528	1724.5
966.754	1743.5
966.98	1726.5
967.206	1724.5
967.431	1669.5
967.657	1743.5
967.883	1716.5
968.109	1702.5
968.334	1642.5
968.56	1638.5
968.785	1663.5
969.011	1626.5
969.236	1709.5
969.462	1607.5
969.687	1666.5
969.912	1681.5
970.138	1708.5
970.363	1647.5
970.588	1665.5
970.813	1633.5
971.038	1636.5
971.263	1635.5
971.488	1649.5
971.713	1666.5
971.938	1630.5
972.163	1573.5
972.388	1587.5
972.613	1572.5
972.838	1595.5
973.062	1561.5
973.287	1561.5
973.512	1532.5
973.736	1585.5
973.961	1546.5
974.185	1496.5
974.41	1567.5
974.634	1469.5
974.858	1473.5
975.083	1539.5
975.307	1570.5
975.531	1485.5
975.755	1445.5
975.98	1479.5
976.204	1408.5
976.428	1406.5
976.652	1433.5
976.876	1399.5
977.1	1430.5
977.324	1401.5
977.547	1487.5
977.771	1444.5
977.995	1430.5
978.219	1349.5
978.442	1481.5
978.666	1452.5
978.89	1428.5
979.113	1406.5
979.337	1393.5
979.56	1378.5
979.783	1473.5
980.007	1376.5
980.23	1420.5
980.453	1351.5
980.677	1391.5
980.9	1373.5
981.123	1315.5
981.346	1390.5
981.569	1367.5
981.792	1412.5
982.015	1369.5
982.238	1343.5
982.461	1354.5
982.684	1351.5
982.907	1313.5
983.129	1301.5
983.352	1368.5
983.575	1339.5
983.797	1361.5
984.02	1305.5
984.242	1298.5
984.465	1334.5
984.687	1327.5
984.91	1354.5
985.132	1304.5
985.354	1349.5
985.577	1300.5
985.799	1289.5
986.021	1251.5
986.243	1270.5
986.465	1269.5
986.687	1327.5
986.909	1356.5
987.131	1284.5
987.353	1284.5
987.575	1303.5
987.797	1279.5
988.019	1229.5
988.241	1282.5
988.462	1227.5
988.684	1289.5
988.906	1321.5
989.127	1342.5
989.349	1224.5
989.57	1240.5
989.792	1289.5
990.013	1289.5
990.234	1305.5
990.456	1332.5
990.677	1291.5
990.898	1267.5
991.119	1277.5
991.341	1288.5
991.562	1224.5
991.783	1273.5
992.004	1209.5
992.225	1189.5
992.446	1245.5
992.667	1162.5
992.887	1252.5
993.108	1124.5
993.329	1291.5
993.55	1229.5
993.77	1169.5
993.991	1173.5
994.212	1209.5
994.432	1208.5
994.653	1203.5
994.873	1193.5
995.093	1111.5
995.314	1164.5
995.534	1204.5
995.754	1227.5
995.975	1257.5
996.195	1134.5
996.415	1210.5
996.635	1189.5
996.855	1207.5
997.075	1198.5
997.295	1191.5
997.515	1164.5
997.735	1205.5
997.955	1181.5
998.174	1170.5
998.394	1154.5
998.614	1204.5
998.834	1157.5
999.053	1211.5
999.273	1188.5
999.492	1234.5
999.712	1149.5
999.931	1176.5
1000.151	1175.5
1000.37	1141.5
1000.589	1238.5
1000.809	1156.5
1001.028	1277.5
1001.247	1205.5
1001.466	1122.5
1001.685	1261.5
1001.904	1201.5
1002.123	1175.5
1002.342	1174.5
1002.561	1137.5
1002.78	1162.5
1002.999	1234.5
1003.218	1176.5
1003.436	1152.5
1003.655	1187.5
1003.874	1166.5
1004.092	1162.5
1004.311	1195.5
1004.53	1196.5
1004.748	1262.5
1004.966	1161.5
1005.185	1223.5
1005.403	1176.5
1005.622	1180.5
1005.84	1268.5
1006.058	1145.5
1006.276	1204.5
1006.494	1701.5
1006.712	1183.5
1006.931	1249.5
1007.149	1171.5
1007.367	1169.5
1007.584	1232.5
1007.802	1251.5
1008.02	1208.5
1008.238	1287.5
1008.456	1260.5
1008.673	1168.5
1008.891	1274.5
1009.109	1228.5
1009.326	1286.5
1009.544	1375.5
1009.761	1258.5
1009.979	1354.5
1010.196	1392.5
1010.413	1483.5
1010.631	1522.5
1010.848	1563.5
1011.065	1555.5
1011.282	1514.5
1011.5	1467.5
1011.717	1570.5
1011.934	1514.5
1012.151	1538.5
1012.368	1550.5
1012.585	1475.5
1012.801	1530.5
1013.018	1476.5
1013.235	1457.5
1013.452	1484.5
1013.669	1490.5
1013.885	1469.5
1014.102	1528.5
1014.318	1489.5
1014.535	1427.5
1014.751	1482.5
1014.968	1486.5
1015.184	1529.5
1015.401	1419.5
1015.617	1448.5
1015.833	1399.5
1016.049	1412.5
1016.266	1381.5
1016.482	1401.5
1016.698	1278.5
1016.914	1362.5
1017.13	1303.5
1017.346	1323.5
1017.562	1365.5
1017.778	1307.5
1017.993	1257.5
1018.209	1318.5
1018.425	1315.5
1018.641	1265.5
1018.856	1270.5
1019.072	1314.5
1019.288	1333.5
1019.503	1302.5
1019.719	1197.5
1019.934	1237.5
1020.149	1275.5
1020.365	1240.5
1020.58	1172.5
1020.795	1248.5
1021.011	1178.5
1021.226	1165.5
1021.441	1180.5
1021.656	1090.5
1021.871	1038.5
1022.086	1046.5
1022.301	1042.5
1022.516	1053.5
1022.731	1080.5
1022.946	1006.5
1023.16	995.5
1023.375	973.5
1023.59	957.5
1023.804	918.5
1024.019	1026.5
1024.234	872.5
1024.448	918.5
1024.663	828.5
1024.877	881.5
1025.092	893.5
1025.306	887.5
1025.52	815.5
1025.734	867.5
1025.949	797.5
1026.163	797.5
1026.377	708.5
1026.591	773.5
1026.805	704.5
1027.019	700.5
1027.233	670.5
1027.447	622.5
1027.661	722.5
1027.875	668.5
1028.088	677.5
1028.302	609.5
1028.516	601.5
1028.73	621.5
1028.943	599.5
1029.157	568.5
1029.37	532.5
1029.584	-1.5
1029.797	-1.5
1030.011	-4.5
1030.224	0.5
