Data from QEP037381__36__11-26-55-594.txt Node

Date: Wed Dec 21 11:26:55 EST 2022
User: dcclab
Spectrometer: QEP03738
Trigger mode: 4
Integration Time (sec): 1.000000E1
Scans to average: 1
Electric dark correction enabled: true
Nonlinearity correction enabled: false
Boxcar width: 0
XAxis mode: Wavelengths
Number of Pixels in Spectrum: 1044
>>>>>Begin Spectral Data<<<<<
784.041	13.88
784.3	0.88
784.558	-1.12
784.817	-4.12
785.075	42213.88
785.334	8562.88
785.592	4462.88
785.851	3200.88
786.109	2438.88
786.368	1944.88
786.626	1569.88
786.884	1354.88
787.143	1153.88
787.401	946.88
787.659	895.88
787.917	767.88
788.175	737.88
788.433	658.88
788.691	602.88
788.949	581.88
789.207	553.88
789.465	491.88
789.723	479.88
789.98	440.88
790.238	483.88
790.496	450.88
790.753	431.88
791.011	490.88
791.268	440.88
791.526	421.88
791.783	447.88
792.041	419.88
792.298	353.88
792.556	436.88
792.813	407.88
793.07	375.88
793.327	380.88
793.584	452.88
793.841	380.88
794.099	406.88
794.356	465.88
794.613	361.88
794.869	407.88
795.126	374.88
795.383	351.88
795.64	368.88
795.897	323.88
796.153	380.88
796.41	370.88
796.667	356.88
796.923	360.88
797.18	364.88
797.436	377.88
797.693	345.88
797.949	401.88
798.206	426.88
798.462	343.88
798.718	399.88
798.974	377.88
799.231	407.88
799.487	382.88
799.743	409.88
799.999	419.88
800.255	409.88
800.511	395.88
800.767	424.88
801.023	412.88
801.279	422.88
801.534	442.88
801.79	468.88
802.046	459.88
802.302	561.88
802.557	576.88
802.813	703.88
803.068	795.88
803.324	1050.88
803.579	1341.88
803.835	1790.88
804.09	2416.88
804.345	3023.88
804.601	3791.88
804.856	4505.88
805.111	5142.88
805.366	5623.88
805.621	5969.88
805.876	6195.88
806.131	6347.88
806.386	6410.88
806.641	6546.88
806.896	6681.88
807.151	6836.88
807.406	6839.88
807.661	6990.88
807.915	7060.88
808.17	7202.88
808.425	7319.88
808.679	7321.88
808.934	7468.88
809.188	7507.88
809.443	7615.88
809.697	7703.88
809.951	7700.88
810.206	7692.88
810.46	7827.88
810.714	7867.88
810.968	8019.88
811.223	7996.88
811.477	8110.88
811.731	8128.88
811.985	8095.88
812.239	8160.88
812.493	8163.88
812.747	8220.88
813	8209.88
813.254	8250.88
813.508	8317.88
813.762	8356.88
814.015	8416.88
814.269	8457.88
814.522	8532.88
814.776	8646.88
815.03	8723.88
815.283	8928.88
815.536	9002.88
815.79	9049.88
816.043	9239.88
816.296	9297.88
816.55	9417.88
816.803	9461.88
817.056	9661.88
817.309	9756.88
817.562	9762.88
817.815	9892.88
818.068	9961.88
818.321	10057.88
818.574	10205.88
818.827	10282.88
819.079	10468.88
819.332	10745.88
819.585	10778.88
819.838	10849.88
820.09	10809.88
820.343	11006.88
820.595	10905.88
820.848	11071.88
821.1	11122.88
821.353	11161.88
821.605	11043.88
821.857	11086.88
822.11	10891.88
822.362	10930.88
822.614	10893.88
822.866	10950.88
823.118	10917.88
823.37	11027.88
823.622	10974.88
823.874	10973.88
824.126	11030.88
824.378	11008.88
824.63	11023.88
824.882	11116.88
825.134	11035.88
825.385	11014.88
825.637	10949.88
825.888	10897.88
826.14	10918.88
826.392	10854.88
826.643	10795.88
826.895	10758.88
827.146	10709.88
827.397	10704.88
827.649	10772.88
827.9	10697.88
828.151	10633.88
828.402	10735.88
828.653	10710.88
828.905	10759.88
829.156	10852.88
829.407	10747.88
829.658	10744.88
829.909	10870.88
830.159	10938.88
830.41	10887.88
830.661	10687.88
830.912	10638.88
831.162	10589.88
831.413	10640.88
831.664	10587.88
831.914	10611.88
832.165	10542.88
832.415	10545.88
832.666	10544.88
832.916	10533.88
833.167	10534.88
833.417	10550.88
833.667	10506.88
833.917	10437.88
834.168	10470.88
834.418	10420.88
834.668	10366.88
834.918	10280.88
835.168	10239.88
835.418	10197.88
835.668	10199.88
835.918	10223.88
836.167	10136.88
836.417	10038.88
836.667	10172.88
836.917	10231.88
837.166	10112.88
837.416	10197.88
837.666	10126.88
837.915	10120.88
838.165	10123.88
838.414	10072.88
838.663	10069.88
838.913	10010.88
839.162	10000.88
839.411	10126.88
839.661	9886.88
839.91	9961.88
840.159	9968.88
840.408	9945.88
840.657	10001.88
840.906	10032.88
841.155	9970.88
841.404	9918.88
841.653	10013.88
841.902	9994.88
842.15	10043.88
842.399	10128.88
842.648	9991.88
842.897	10047.88
843.145	9846.88
843.394	9849.88
843.642	9727.88
843.891	9704.88
844.139	9584.88
844.388	9437.88
844.636	9448.88
844.884	9507.88
845.133	9415.88
845.381	9494.88
845.629	9465.88
845.877	9392.88
846.125	9419.88
846.373	9445.88
846.621	9365.88
846.869	9396.88
847.117	9320.88
847.365	9248.88
847.613	9220.88
847.861	9208.88
848.108	9278.88
848.356	9240.88
848.604	9168.88
848.851	9172.88
849.099	9239.88
849.346	9223.88
849.594	9313.88
849.841	9428.88
850.089	9410.88
850.336	9524.88
850.583	9662.88
850.831	9668.88
851.078	9518.88
851.325	9398.88
851.572	9399.88
851.819	9193.88
852.066	8974.88
852.313	8839.88
852.56	8788.88
852.807	8747.88
853.054	8723.88
853.301	8679.88
853.548	8746.88
853.794	8847.88
854.041	8819.88
854.288	8872.88
854.534	9022.88
854.781	8905.88
855.028	8917.88
855.274	9036.88
855.52	8996.88
855.767	8875.88
856.013	8999.88
856.26	9165.88
856.506	8792.88
856.752	8822.88
856.998	8867.88
857.244	8774.88
857.49	8857.88
857.736	8870.88
857.982	8851.88
858.228	8814.88
858.474	8708.88
858.72	8589.88
858.966	8602.88
859.212	8465.88
859.458	8489.88
859.703	8269.88
859.949	8227.88
860.195	8175.88
860.44	8190.88
860.686	8183.88
860.931	8224.88
861.177	8086.88
861.422	8020.88
861.667	7934.88
861.913	7915.88
862.158	7966.88
862.403	7984.88
862.648	8011.88
862.893	8118.88
863.138	8021.88
863.384	7930.88
863.629	8010.88
863.873	8009.88
864.118	7979.88
864.363	7864.88
864.608	7860.88
864.853	7908.88
865.098	7857.88
865.342	7815.88
865.587	7793.88
865.832	7804.88
866.076	7771.88
866.321	7730.88
866.565	7670.88
866.81	7594.88
867.054	7602.88
867.298	7636.88
867.543	7573.88
867.787	7596.88
868.031	7594.88
868.275	7614.88
868.519	7552.88
868.764	7603.88
869.008	7524.88
869.252	7623.88
869.496	7559.88
869.739	7542.88
869.983	7605.88
870.227	7613.88
870.471	7560.88
870.715	7581.88
870.958	7651.88
871.202	7643.88
871.446	7643.88
871.689	7638.88
871.933	7672.88
872.176	7606.88
872.42	7612.88
872.663	7621.88
872.906	7692.88
873.15	7697.88
873.393	7633.88
873.636	7685.88
873.879	7649.88
874.122	7517.88
874.366	7352.88
874.609	7298.88
874.852	7200.88
875.095	7177.88
875.337	7133.88
875.58	7057.88
875.823	7046.88
876.066	7015.88
876.309	7067.88
876.551	6984.88
876.794	6873.88
877.037	6946.88
877.279	6830.88
877.522	6835.88
877.764	6857.88
878.007	6857.88
878.249	6850.88
878.491	6810.88
878.734	6791.88
878.976	6792.88
879.218	6747.88
879.46	6704.88
879.702	6744.88
879.945	6584.88
880.187	6533.88
880.429	6552.88
880.671	6524.88
880.912	6441.88
881.154	6441.88
881.396	6409.88
881.638	6482.88
881.88	6488.88
882.121	6390.88
882.363	6386.88
882.605	6415.88
882.846	6405.88
883.088	6436.88
883.329	6486.88
883.571	6497.88
883.812	6663.88
884.053	6829.88
884.295	7039.88
884.536	7186.88
884.777	7001.88
885.018	7038.88
885.259	6918.88
885.5	6820.88
885.742	7069.88
885.982	6863.88
886.223	6715.88
886.464	6630.88
886.705	6543.88
886.946	6504.88
887.187	6244.88
887.428	6323.88
887.668	6113.88
887.909	6095.88
888.15	5960.88
888.39	5933.88
888.631	5941.88
888.871	5879.88
889.111	5771.88
889.352	5783.88
889.592	5674.88
889.833	5687.88
890.073	5652.88
890.313	5694.88
890.553	5473.88
890.793	5503.88
891.033	5476.88
891.273	5465.88
891.513	5463.88
891.753	5500.88
891.993	5445.88
892.233	5454.88
892.473	5526.88
892.713	5477.88
892.952	5444.88
893.192	5469.88
893.432	5440.88
893.671	5483.88
893.911	5442.88
894.15	5446.88
894.39	5315.88
894.629	5286.88
894.869	5369.88
895.108	5297.88
895.347	5249.88
895.587	5383.88
895.826	5252.88
896.065	5254.88
896.304	5249.88
896.543	5327.88
896.782	5258.88
897.021	5244.88
897.26	5206.88
897.499	5322.88
897.738	5279.88
897.977	5212.88
898.216	5183.88
898.454	5162.88
898.693	5110.88
898.932	5158.88
899.17	5135.88
899.409	5111.88
899.647	5092.88
899.886	5143.88
900.124	5157.88
900.363	5136.88
900.601	5127.88
900.839	5216.88
901.078	5204.88
901.316	5287.88
901.554	5284.88
901.792	5325.88
902.03	5294.88
902.268	5286.88
902.506	5349.88
902.744	5207.88
902.982	5211.88
903.22	5050.88
903.458	5026.88
903.695	4935.88
903.933	4849.88
904.171	4689.88
904.409	4639.88
904.646	4542.88
904.884	4482.88
905.121	4573.88
905.359	4476.88
905.596	4398.88
905.833	4339.88
906.071	4303.88
906.308	4325.88
906.545	4276.88
906.783	4233.88
907.02	4215.88
907.257	4180.88
907.494	4198.88
907.731	4194.88
907.968	4140.88
908.205	4125.88
908.442	4093.88
908.679	4115.88
908.915	4060.88
909.152	4015.88
909.389	3955.88
909.626	3929.88
909.862	3902.88
910.099	3909.88
910.335	3948.88
910.572	3836.88
910.808	3861.88
911.045	3894.88
911.281	3838.88
911.518	3861.88
911.754	3762.88
911.99	3762.88
912.226	3710.88
912.463	3713.88
912.699	3674.88
912.935	3702.88
913.171	3608.88
913.407	3578.88
913.643	3644.88
913.879	3588.88
914.114	3525.88
914.35	3503.88
914.586	3488.88
914.822	3380.88
915.057	3484.88
915.293	3365.88
915.529	3334.88
915.764	3452.88
916	3382.88
916.235	3364.88
916.471	3379.88
916.706	3315.88
916.941	3313.88
917.177	3307.88
917.412	3356.88
917.647	3340.88
917.882	3327.88
918.117	3377.88
918.352	3304.88
918.588	3369.88
918.823	3211.88
919.057	3268.88
919.292	3164.88
919.527	3232.88
919.762	3143.88
919.997	3231.88
920.232	3102.88
920.466	3146.88
920.701	3021.88
920.935	3052.88
921.17	3008.88
921.405	2996.88
921.639	3026.88
921.873	3021.88
922.108	3051.88
922.342	3022.88
922.576	2978.88
922.811	2944.88
923.045	2952.88
923.279	3016.88
923.513	2854.88
923.747	2973.88
923.981	2916.88
924.215	2887.88
924.449	2881.88
924.683	2806.88
924.917	2841.88
925.151	2817.88
925.385	2872.88
925.618	2839.88
925.852	2796.88
926.086	2802.88
926.319	2789.88
926.553	2767.88
926.786	2823.88
927.02	2789.88
927.253	2804.88
927.486	2834.88
927.72	2756.88
927.953	2790.88
928.186	2728.88
928.42	2809.88
928.653	2741.88
928.886	2685.88
929.119	2735.88
929.352	2707.88
929.585	2674.88
929.818	2626.88
930.051	2685.88
930.284	2657.88
930.516	2569.88
930.749	2576.88
930.982	2659.88
931.215	2596.88
931.447	2550.88
931.68	2568.88
931.912	2516.88
932.145	2512.88
932.377	2601.88
932.61	2638.88
932.842	2498.88
933.074	2566.88
933.307	2502.88
933.539	2562.88
933.771	2587.88
934.003	2509.88
934.236	2659.88
934.468	2569.88
934.7	2533.88
934.932	2558.88
935.164	2514.88
935.395	2498.88
935.627	2517.88
935.859	2541.88
936.091	2438.88
936.323	2493.88
936.554	2541.88
936.786	2492.88
937.017	2429.88
937.249	2487.88
937.481	2381.88
937.712	2468.88
937.943	2444.88
938.175	2403.88
938.406	2397.88
938.637	2510.88
938.869	2396.88
939.1	2442.88
939.331	2390.88
939.562	2428.88
939.793	2397.88
940.024	2413.88
940.255	2447.88
940.486	2399.88
940.717	2383.88
940.948	2340.88
941.179	2327.88
941.409	2340.88
941.64	2361.88
941.871	2326.88
942.102	2319.88
942.332	2343.88
942.563	2365.88
942.793	2323.88
943.024	2274.88
943.254	2326.88
943.484	2353.88
943.715	2368.88
943.945	2347.88
944.175	2241.88
944.405	2241.88
944.636	2267.88
944.866	2312.88
945.096	2288.88
945.326	2259.88
945.556	2281.88
945.786	2318.88
946.016	2261.88
946.245	2178.88
946.475	2208.88
946.705	2204.88
946.935	2199.88
947.164	2227.88
947.394	2188.88
947.624	2204.88
947.853	2220.88
948.083	2183.88
948.312	2154.88
948.542	2085.88
948.771	2088.88
949	2136.88
949.23	2097.88
949.459	2095.88
949.688	2174.88
949.917	2106.88
950.146	2119.88
950.375	2189.88
950.604	2089.88
950.833	2168.88
951.062	2188.88
951.291	2113.88
951.52	2091.88
951.749	2091.88
951.978	2037.88
952.206	2055.88
952.435	2067.88
952.664	2076.88
952.892	2066.88
953.121	2037.88
953.349	2075.88
953.578	2085.88
953.806	2057.88
954.035	1966.88
954.263	2017.88
954.491	1971.88
954.719	2015.88
954.948	1991.88
955.176	1966.88
955.404	1935.88
955.632	1983.88
955.86	1950.88
956.088	1977.88
956.316	1973.88
956.544	1995.88
956.772	1926.88
956.999	1895.88
957.227	1977.88
957.455	1885.88
957.683	1876.88
957.91	1887.88
958.138	1852.88
958.365	1867.88
958.593	1836.88
958.82	1804.88
959.048	1863.88
959.275	1834.88
959.502	1804.88
959.73	1795.88
959.957	1861.88
960.184	1884.88
960.411	1782.88
960.638	1891.88
960.865	1832.88
961.092	1837.88
961.319	1762.88
961.546	1862.88
961.773	1857.88
962	1817.88
962.227	1865.88
962.454	1843.88
962.68	1779.88
962.907	1803.88
963.134	1774.88
963.36	1787.88
963.587	1831.88
963.813	1731.88
964.04	1762.88
964.266	1714.88
964.493	1821.88
964.719	1784.88
964.945	1779.88
965.171	1706.88
965.398	1744.88
965.624	1760.88
965.85	1681.88
966.076	1673.88
966.302	1727.88
966.528	1676.88
966.754	1742.88
966.98	1720.88
967.206	1719.88
967.431	1624.88
967.657	1696.88
967.883	1694.88
968.109	1678.88
968.334	1613.88
968.56	1648.88
968.785	1667.88
969.011	1595.88
969.236	1659.88
969.462	1597.88
969.687	1612.88
969.912	1669.88
970.138	1658.88
970.363	1622.88
970.588	1623.88
970.813	1597.88
971.038	1585.88
971.263	1600.88
971.488	1585.88
971.713	1630.88
971.938	1626.88
972.163	1529.88
972.388	1579.88
972.613	1561.88
972.838	1579.88
973.062	1575.88
973.287	1542.88
973.512	1502.88
973.736	1538.88
973.961	1532.88
974.185	1516.88
974.41	1550.88
974.634	1484.88
974.858	1494.88
975.083	1507.88
975.307	1548.88
975.531	1450.88
975.755	1463.88
975.98	1433.88
976.204	1386.88
976.428	1412.88
976.652	1419.88
976.876	1394.88
977.1	1386.88
977.324	1376.88
977.547	1422.88
977.771	1443.88
977.995	1405.88
978.219	1372.88
978.442	1482.88
978.666	1416.88
978.89	1396.88
979.113	1407.88
979.337	1399.88
979.56	1372.88
979.783	1445.88
980.007	1357.88
980.23	1373.88
980.453	1337.88
980.677	1394.88
980.9	1374.88
981.123	1275.88
981.346	1378.88
981.569	1389.88
981.792	1368.88
982.015	1337.88
982.238	1306.88
982.461	1357.88
982.684	1312.88
982.907	1297.88
983.129	1300.88
983.352	1348.88
983.575	1305.88
983.797	1334.88
984.02	1279.88
984.242	1280.88
984.465	1307.88
984.687	1320.88
984.91	1353.88
985.132	1310.88
985.354	1337.88
985.577	1312.88
985.799	1294.88
986.021	1211.88
986.243	1265.88
986.465	1269.88
986.687	1350.88
986.909	1365.88
987.131	1273.88
987.353	1278.88
987.575	1282.88
987.797	1261.88
988.019	1216.88
988.241	1248.88
988.462	1228.88
988.684	1285.88
988.906	1299.88
989.127	1319.88
989.349	1198.88
989.57	1230.88
989.792	1281.88
990.013	1284.88
990.234	1312.88
990.456	1342.88
990.677	1291.88
990.898	1267.88
991.119	1222.88
991.341	1278.88
991.562	1221.88
991.783	1258.88
992.004	1217.88
992.225	1189.88
992.446	1243.88
992.667	1172.88
992.887	1229.88
993.108	1135.88
993.329	1254.88
993.55	1198.88
993.77	1157.88
993.991	1163.88
994.212	1188.88
994.432	1202.88
994.653	1203.88
994.873	1223.88
995.093	1090.88
995.314	1146.88
995.534	1218.88
995.754	1224.88
995.975	1256.88
996.195	1132.88
996.415	1214.88
996.635	1174.88
996.855	1202.88
997.075	1170.88
997.295	1180.88
997.515	1173.88
997.735	1220.88
997.955	1174.88
998.174	1194.88
998.394	1162.88
998.614	1208.88
998.834	1154.88
999.053	1214.88
999.273	1187.88
999.492	1239.88
999.712	1177.88
999.931	1157.88
1000.151	1189.88
1000.37	1162.88
1000.589	1239.88
1000.809	1152.88
1001.028	1286.88
1001.247	1195.88
1001.466	1091.88
1001.685	1239.88
1001.904	1197.88
1002.123	1171.88
1002.342	1160.88
1002.561	1143.88
1002.78	1192.88
1002.999	1218.88
1003.218	1195.88
1003.436	1141.88
1003.655	1211.88
1003.874	1132.88
1004.092	1167.88
1004.311	1227.88
1004.53	1174.88
1004.748	1239.88
1004.966	1182.88
1005.185	1228.88
1005.403	1217.88
1005.622	1189.88
1005.84	1264.88
1006.058	1176.88
1006.276	1193.88
1006.494	1688.88
1006.712	1202.88
1006.931	1273.88
1007.149	1168.88
1007.367	1183.88
1007.584	1207.88
1007.802	1246.88
1008.02	1209.88
1008.238	1296.88
1008.456	1291.88
1008.673	1175.88
1008.891	1296.88
1009.109	1266.88
1009.326	1288.88
1009.544	1424.88
1009.761	1313.88
1009.979	1400.88
1010.196	1414.88
1010.413	1493.88
1010.631	1588.88
1010.848	1605.88
1011.065	1610.88
1011.282	1550.88
1011.5	1499.88
1011.717	1602.88
1011.934	1555.88
1012.151	1571.88
1012.368	1564.88
1012.585	1515.88
1012.801	1529.88
1013.018	1537.88
1013.235	1502.88
1013.452	1522.88
1013.669	1539.88
1013.885	1526.88
1014.102	1571.88
1014.318	1531.88
1014.535	1498.88
1014.751	1537.88
1014.968	1519.88
1015.184	1545.88
1015.401	1466.88
1015.617	1480.88
1015.833	1436.88
1016.049	1446.88
1016.266	1390.88
1016.482	1423.88
1016.698	1359.88
1016.914	1416.88
1017.13	1362.88
1017.346	1335.88
1017.562	1408.88
1017.778	1326.88
1017.993	1311.88
1018.209	1359.88
1018.425	1353.88
1018.641	1308.88
1018.856	1270.88
1019.072	1318.88
1019.288	1350.88
1019.503	1314.88
1019.719	1205.88
1019.934	1215.88
1020.149	1341.88
1020.365	1260.88
1020.58	1211.88
1020.795	1257.88
1021.011	1161.88
1021.226	1150.88
1021.441	1191.88
1021.656	1119.88
1021.871	1053.88
1022.086	1074.88
1022.301	1060.88
1022.516	1062.88
1022.731	1115.88
1022.946	1017.88
1023.16	1016.88
1023.375	977.88
1023.59	972.88
1023.804	899.88
1024.019	1034.88
1024.234	918.88
1024.448	919.88
1024.663	869.88
1024.877	897.88
1025.092	892.88
1025.306	903.88
1025.52	795.88
1025.734	909.88
1025.949	805.88
1026.163	783.88
1026.377	755.88
1026.591	798.88
1026.805	723.88
1027.019	740.88
1027.233	685.88
1027.447	635.88
1027.661	749.88
1027.875	713.88
1028.088	693.88
1028.302	629.88
1028.516	630.88
1028.73	632.88
1028.943	615.88
1029.157	570.88
1029.37	540.88
1029.584	-5.12
1029.797	-2.12
1030.011	2.88
1030.224	-5.12
