Data from QEP037381__20__11-24-15-593.txt Node

Date: Wed Dec 21 11:24:15 EST 2022
User: dcclab
Spectrometer: QEP03738
Trigger mode: 4
Integration Time (sec): 1.000000E1
Scans to average: 1
Electric dark correction enabled: true
Nonlinearity correction enabled: false
Boxcar width: 0
XAxis mode: Wavelengths
Number of Pixels in Spectrum: 1044
>>>>>Begin Spectral Data<<<<<
784.041	13.62
784.3	1.62
784.558	-2.38
784.817	-4.38
785.075	40858.62
785.334	8209.62
785.592	4211.62
785.851	3054.62
786.109	2317.62
786.368	1829.62
786.626	1511.62
786.884	1331.62
787.143	1106.62
787.401	917.62
787.659	873.62
787.917	748.62
788.175	722.62
788.433	644.62
788.691	597.62
788.949	568.62
789.207	571.62
789.465	478.62
789.723	478.62
789.98	444.62
790.238	490.62
790.496	449.62
790.753	450.62
791.011	502.62
791.268	435.62
791.526	431.62
791.783	455.62
792.041	424.62
792.298	359.62
792.556	427.62
792.813	396.62
793.07	392.62
793.327	375.62
793.584	459.62
793.841	386.62
794.099	395.62
794.356	457.62
794.613	369.62
794.869	411.62
795.126	365.62
795.383	351.62
795.64	381.62
795.897	329.62
796.153	398.62
796.41	377.62
796.667	357.62
796.923	374.62
797.18	366.62
797.436	396.62
797.693	356.62
797.949	413.62
798.206	442.62
798.462	346.62
798.718	419.62
798.974	376.62
799.231	417.62
799.487	414.62
799.743	403.62
799.999	440.62
800.255	429.62
800.511	408.62
800.767	450.62
801.023	426.62
801.279	460.62
801.534	479.62
801.79	497.62
802.046	490.62
802.302	592.62
802.557	682.62
802.813	793.62
803.068	897.62
803.324	1202.62
803.579	1571.62
803.835	2061.62
804.09	2834.62
804.345	3637.62
804.601	4479.62
804.856	5430.62
805.111	6268.62
805.366	6816.62
805.621	7346.62
805.876	7670.62
806.131	7879.62
806.386	7952.62
806.641	8111.62
806.896	8209.62
807.151	8432.62
807.406	8511.62
807.661	8717.62
807.915	8850.62
808.17	9036.62
808.425	9059.62
808.679	9129.62
808.934	9304.62
809.188	9260.62
809.443	9359.62
809.697	9663.62
809.951	9575.62
810.206	9718.62
810.46	9756.62
810.714	9905.62
810.968	9977.62
811.223	10023.62
811.477	10116.62
811.731	10272.62
811.985	10241.62
812.239	10251.62
812.493	10392.62
812.747	10380.62
813	10342.62
813.254	10404.62
813.508	10459.62
813.762	10404.62
814.015	10588.62
814.269	10620.62
814.522	10692.62
814.776	10842.62
815.03	10975.62
815.283	11160.62
815.536	11373.62
815.79	11441.62
816.043	11659.62
816.296	11757.62
816.55	11914.62
816.803	12123.62
817.056	12327.62
817.309	12320.62
817.562	12446.62
817.815	12671.62
818.068	12674.62
818.321	12813.62
818.574	12942.62
818.827	13102.62
819.079	13187.62
819.332	13548.62
819.585	13581.62
819.838	13846.62
820.09	13791.62
820.343	13969.62
820.595	13891.62
820.848	14010.62
821.1	14059.62
821.353	14037.62
821.605	14093.62
821.857	14106.62
822.11	13930.62
822.362	13993.62
822.614	13955.62
822.866	13976.62
823.118	13966.62
823.37	14120.62
823.622	14145.62
823.874	14144.62
824.126	14118.62
824.378	14135.62
824.63	14188.62
824.882	14219.62
825.134	14181.62
825.385	14198.62
825.637	14137.62
825.888	14053.62
826.14	14038.62
826.392	13985.62
826.643	13893.62
826.895	13940.62
827.146	13891.62
827.397	13820.62
827.649	13999.62
827.9	13803.62
828.151	13821.62
828.402	13793.62
828.653	13895.62
828.905	14009.62
829.156	14001.62
829.407	13933.62
829.658	14040.62
829.909	14112.62
830.159	14096.62
830.41	13933.62
830.661	13815.62
830.912	13811.62
831.162	13728.62
831.413	13635.62
831.664	13670.62
831.914	13674.62
832.165	13681.62
832.415	13650.62
832.666	13667.62
832.916	13657.62
833.167	13642.62
833.417	13650.62
833.667	13546.62
833.917	13520.62
834.168	13582.62
834.418	13424.62
834.668	13437.62
834.918	13317.62
835.168	13354.62
835.418	13214.62
835.668	13235.62
835.918	13252.62
836.167	13207.62
836.417	13171.62
836.667	13113.62
836.917	13156.62
837.166	13061.62
837.416	13189.62
837.666	13141.62
837.915	13081.62
838.165	13094.62
838.414	12960.62
838.663	12975.62
838.913	13114.62
839.162	12880.62
839.411	13025.62
839.661	12928.62
839.91	12917.62
840.159	12773.62
840.408	12902.62
840.657	12996.62
840.906	12920.62
841.155	12937.62
841.404	12877.62
841.653	12893.62
841.902	12855.62
842.15	12970.62
842.399	12982.62
842.648	12955.62
842.897	12860.62
843.145	12833.62
843.394	12708.62
843.642	12597.62
843.891	12616.62
844.139	12492.62
844.388	12382.62
844.636	12345.62
844.884	12323.62
845.133	12324.62
845.381	12334.62
845.629	12351.62
845.877	12312.62
846.125	12238.62
846.373	12354.62
846.621	12235.62
846.869	12226.62
847.117	12140.62
847.365	12115.62
847.613	11983.62
847.861	12091.62
848.108	12062.62
848.356	12033.62
848.604	11954.62
848.851	12031.62
849.099	12001.62
849.346	12004.62
849.594	12138.62
849.841	12269.62
850.089	12202.62
850.336	12277.62
850.583	12396.62
850.831	12267.62
851.078	12228.62
851.325	12115.62
851.572	12042.62
851.819	11989.62
852.066	11738.62
852.313	11499.62
852.56	11452.62
852.807	11405.62
853.054	11431.62
853.301	11319.62
853.548	11333.62
853.794	11556.62
854.041	11495.62
854.288	11524.62
854.534	11680.62
854.781	11617.62
855.028	11674.62
855.274	11662.62
855.52	11613.62
855.767	11573.62
856.013	11580.62
856.26	11796.62
856.506	11346.62
856.752	11426.62
856.998	11409.62
857.244	11428.62
857.49	11440.62
857.736	11509.62
857.982	11486.62
858.228	11450.62
858.474	11277.62
858.72	11219.62
858.966	11143.62
859.212	10998.62
859.458	10964.62
859.703	10868.62
859.949	10773.62
860.195	10674.62
860.44	10605.62
860.686	10605.62
860.931	10636.62
861.177	10489.62
861.422	10499.62
861.667	10420.62
861.913	10433.62
862.158	10465.62
862.403	10549.62
862.648	10432.62
862.893	10533.62
863.138	10494.62
863.384	10444.62
863.629	10434.62
863.873	10472.62
864.118	10447.62
864.363	10326.62
864.608	10398.62
864.853	10346.62
865.098	10240.62
865.342	10229.62
865.587	10111.62
865.832	10205.62
866.076	10136.62
866.321	10063.62
866.565	10067.62
866.81	9952.62
867.054	9959.62
867.298	9969.62
867.543	9944.62
867.787	9953.62
868.031	9952.62
868.275	9945.62
868.519	9843.62
868.764	9902.62
869.008	9885.62
869.252	9918.62
869.496	9764.62
869.739	9902.62
869.983	9881.62
870.227	9855.62
870.471	9863.62
870.715	9923.62
870.958	9903.62
871.202	9928.62
871.446	9918.62
871.689	9939.62
871.933	9946.62
872.176	9992.62
872.42	9944.62
872.663	9918.62
872.906	9918.62
873.15	9877.62
873.393	9831.62
873.636	9888.62
873.879	9845.62
874.122	9656.62
874.366	9492.62
874.609	9445.62
874.852	9353.62
875.095	9319.62
875.337	9223.62
875.58	9156.62
875.823	9185.62
876.066	9160.62
876.309	9144.62
876.551	9034.62
876.794	9027.62
877.037	9020.62
877.279	8963.62
877.522	8962.62
877.764	8996.62
878.007	8904.62
878.249	8933.62
878.491	8852.62
878.734	8888.62
878.976	8842.62
879.218	8828.62
879.46	8887.62
879.702	8702.62
879.945	8630.62
880.187	8554.62
880.429	8549.62
880.671	8489.62
880.912	8493.62
881.154	8400.62
881.396	8352.62
881.638	8395.62
881.88	8413.62
882.121	8380.62
882.363	8365.62
882.605	8433.62
882.846	8351.62
883.088	8356.62
883.329	8287.62
883.571	8426.62
883.812	8565.62
884.053	8686.62
884.295	8821.62
884.536	8982.62
884.777	8785.62
885.018	8795.62
885.259	8821.62
885.5	8675.62
885.742	8836.62
885.982	8680.62
886.223	8594.62
886.464	8511.62
886.705	8388.62
886.946	8334.62
887.187	8173.62
887.428	8095.62
887.668	7961.62
887.909	7880.62
888.15	7773.62
888.39	7707.62
888.631	7705.62
888.871	7687.62
889.111	7605.62
889.352	7516.62
889.592	7485.62
889.833	7385.62
890.073	7353.62
890.313	7389.62
890.553	7202.62
890.793	7191.62
891.033	7137.62
891.273	7142.62
891.513	7123.62
891.753	7220.62
891.993	7178.62
892.233	7132.62
892.473	7224.62
892.713	7183.62
892.952	7054.62
893.192	7176.62
893.432	7191.62
893.671	7166.62
893.911	7131.62
894.15	7050.62
894.39	6975.62
894.629	6965.62
894.869	7016.62
895.108	6911.62
895.347	6873.62
895.587	6896.62
895.826	6883.62
896.065	6876.62
896.304	6854.62
896.543	6837.62
896.782	6757.62
897.021	6818.62
897.26	6766.62
897.499	6839.62
897.738	6825.62
897.977	6740.62
898.216	6705.62
898.454	6679.62
898.693	6601.62
898.932	6682.62
899.17	6574.62
899.409	6556.62
899.647	6621.62
899.886	6509.62
900.124	6561.62
900.363	6487.62
900.601	6639.62
900.839	6616.62
901.078	6674.62
901.316	6678.62
901.554	6686.62
901.792	6768.62
902.03	6735.62
902.268	6684.62
902.506	6700.62
902.744	6569.62
902.982	6575.62
903.22	6476.62
903.458	6333.62
903.695	6313.62
903.933	6234.62
904.171	6084.62
904.409	5975.62
904.646	5965.62
904.884	5871.62
905.121	5857.62
905.359	5754.62
905.596	5710.62
905.833	5590.62
906.071	5627.62
906.308	5651.62
906.545	5632.62
906.783	5529.62
907.02	5565.62
907.257	5460.62
907.494	5495.62
907.731	5490.62
907.968	5438.62
908.205	5414.62
908.442	5376.62
908.679	5318.62
908.915	5348.62
909.152	5271.62
909.389	5205.62
909.626	5171.62
909.862	5205.62
910.099	5124.62
910.335	5122.62
910.572	5063.62
910.808	5117.62
911.045	5036.62
911.281	5019.62
911.518	5057.62
911.754	4934.62
911.99	5015.62
912.226	4938.62
912.463	4898.62
912.699	4863.62
912.935	4847.62
913.171	4813.62
913.407	4726.62
913.643	4725.62
913.879	4707.62
914.114	4642.62
914.35	4572.62
914.586	4577.62
914.822	4462.62
915.057	4602.62
915.293	4444.62
915.529	4417.62
915.764	4486.62
916	4526.62
916.235	4429.62
916.471	4445.62
916.706	4388.62
916.941	4364.62
917.177	4405.62
917.412	4404.62
917.647	4353.62
917.882	4332.62
918.117	4382.62
918.352	4337.62
918.588	4424.62
918.823	4288.62
919.057	4287.62
919.292	4153.62
919.527	4243.62
919.762	4144.62
919.997	4181.62
920.232	4067.62
920.466	4103.62
920.701	3981.62
920.935	4008.62
921.17	3976.62
921.405	3972.62
921.639	3978.62
921.873	3907.62
922.108	3954.62
922.342	3914.62
922.576	3869.62
922.811	3828.62
923.045	3882.62
923.279	3926.62
923.513	3769.62
923.747	3813.62
923.981	3779.62
924.215	3766.62
924.449	3724.62
924.683	3708.62
924.917	3711.62
925.151	3700.62
925.385	3781.62
925.618	3673.62
925.852	3679.62
926.086	3587.62
926.319	3633.62
926.553	3634.62
926.786	3665.62
927.02	3614.62
927.253	3647.62
927.486	3646.62
927.72	3585.62
927.953	3648.62
928.186	3589.62
928.42	3615.62
928.653	3551.62
928.886	3477.62
929.119	3558.62
929.352	3533.62
929.585	3503.62
929.818	3458.62
930.051	3479.62
930.284	3444.62
930.516	3327.62
930.749	3325.62
930.982	3389.62
931.215	3383.62
931.447	3289.62
931.68	3345.62
931.912	3323.62
932.145	3291.62
932.377	3303.62
932.61	3388.62
932.842	3219.62
933.074	3273.62
933.307	3244.62
933.539	3381.62
933.771	3322.62
934.003	3308.62
934.236	3378.62
934.468	3394.62
934.7	3265.62
934.932	3282.62
935.164	3269.62
935.395	3227.62
935.627	3232.62
935.859	3232.62
936.091	3173.62
936.323	3254.62
936.554	3259.62
936.786	3191.62
937.017	3131.62
937.249	3197.62
937.481	3117.62
937.712	3194.62
937.943	3146.62
938.175	3134.62
938.406	3131.62
938.637	3148.62
938.869	3094.62
939.1	3134.62
939.331	3045.62
939.562	3113.62
939.793	3065.62
940.024	3108.62
940.255	3105.62
940.486	3056.62
940.717	3054.62
940.948	3010.62
941.179	2966.62
941.409	3015.62
941.64	2989.62
941.871	3000.62
942.102	2984.62
942.332	3009.62
942.563	3008.62
942.793	2969.62
943.024	2954.62
943.254	2958.62
943.484	3043.62
943.715	2997.62
943.945	3018.62
944.175	2950.62
944.405	2899.62
944.636	2904.62
944.866	2933.62
945.096	2966.62
945.326	2900.62
945.556	2950.62
945.786	2946.62
946.016	2912.62
946.245	2820.62
946.475	2811.62
946.705	2851.62
946.935	2813.62
947.164	2819.62
947.394	2799.62
947.624	2787.62
947.853	2805.62
948.083	2796.62
948.312	2714.62
948.542	2690.62
948.771	2677.62
949	2698.62
949.23	2695.62
949.459	2707.62
949.688	2761.62
949.917	2725.62
950.146	2706.62
950.375	2775.62
950.604	2635.62
950.833	2736.62
951.062	2739.62
951.291	2676.62
951.52	2630.62
951.749	2654.62
951.978	2653.62
952.206	2643.62
952.435	2632.62
952.664	2654.62
952.892	2691.62
953.121	2650.62
953.349	2665.62
953.578	2610.62
953.806	2565.62
954.035	2517.62
954.263	2605.62
954.491	2494.62
954.719	2573.62
954.948	2540.62
955.176	2529.62
955.404	2444.62
955.632	2488.62
955.86	2483.62
956.088	2499.62
956.316	2544.62
956.544	2498.62
956.772	2474.62
956.999	2465.62
957.227	2506.62
957.455	2427.62
957.683	2428.62
957.91	2400.62
958.138	2368.62
958.365	2356.62
958.593	2382.62
958.82	2274.62
959.048	2350.62
959.275	2351.62
959.502	2346.62
959.73	2326.62
959.957	2358.62
960.184	2339.62
960.411	2338.62
960.638	2391.62
960.865	2301.62
961.092	2330.62
961.319	2230.62
961.546	2339.62
961.773	2325.62
962	2309.62
962.227	2346.62
962.454	2289.62
962.68	2262.62
962.907	2317.62
963.134	2226.62
963.36	2264.62
963.587	2274.62
963.813	2196.62
964.04	2240.62
964.266	2169.62
964.493	2253.62
964.719	2220.62
964.945	2232.62
965.171	2127.62
965.398	2184.62
965.624	2198.62
965.85	2128.62
966.076	2140.62
966.302	2158.62
966.528	2132.62
966.754	2115.62
966.98	2127.62
967.206	2190.62
967.431	2063.62
967.657	2149.62
967.883	2114.62
968.109	2128.62
968.334	2061.62
968.56	2046.62
968.785	2062.62
969.011	2006.62
969.236	2089.62
969.462	2009.62
969.687	2041.62
969.912	2078.62
970.138	2052.62
970.363	1998.62
970.588	2035.62
970.813	2006.62
971.038	1969.62
971.263	2036.62
971.488	2013.62
971.713	2038.62
971.938	1998.62
972.163	1931.62
972.388	1966.62
972.613	1928.62
972.838	1958.62
973.062	1944.62
973.287	1927.62
973.512	1853.62
973.736	1932.62
973.961	1874.62
974.185	1867.62
974.41	1909.62
974.634	1782.62
974.858	1835.62
975.083	1851.62
975.307	1898.62
975.531	1818.62
975.755	1785.62
975.98	1800.62
976.204	1771.62
976.428	1746.62
976.652	1748.62
976.876	1753.62
977.1	1776.62
977.324	1722.62
977.547	1816.62
977.771	1757.62
977.995	1726.62
978.219	1687.62
978.442	1822.62
978.666	1761.62
978.89	1744.62
979.113	1743.62
979.337	1693.62
979.56	1667.62
979.783	1796.62
980.007	1682.62
980.23	1686.62
980.453	1654.62
980.677	1692.62
980.9	1688.62
981.123	1598.62
981.346	1690.62
981.569	1691.62
981.792	1672.62
982.015	1668.62
982.238	1626.62
982.461	1640.62
982.684	1592.62
982.907	1584.62
983.129	1586.62
983.352	1632.62
983.575	1601.62
983.797	1599.62
984.02	1566.62
984.242	1595.62
984.465	1568.62
984.687	1594.62
984.91	1602.62
985.132	1606.62
985.354	1618.62
985.577	1568.62
985.799	1565.62
986.021	1499.62
986.243	1519.62
986.465	1537.62
986.687	1560.62
986.909	1610.62
987.131	1555.62
987.353	1503.62
987.575	1552.62
987.797	1513.62
988.019	1439.62
988.241	1502.62
988.462	1479.62
988.684	1513.62
988.906	1561.62
989.127	1563.62
989.349	1453.62
989.57	1506.62
989.792	1519.62
990.013	1536.62
990.234	1530.62
990.456	1581.62
990.677	1543.62
990.898	1458.62
991.119	1488.62
991.341	1542.62
991.562	1437.62
991.783	1489.62
992.004	1428.62
992.225	1396.62
992.446	1475.62
992.667	1381.62
992.887	1435.62
993.108	1351.62
993.329	1497.62
993.55	1445.62
993.77	1363.62
993.991	1379.62
994.212	1408.62
994.432	1407.62
994.653	1434.62
994.873	1425.62
995.093	1301.62
995.314	1351.62
995.534	1425.62
995.754	1409.62
995.975	1431.62
996.195	1336.62
996.415	1387.62
996.635	1358.62
996.855	1379.62
997.075	1342.62
997.295	1345.62
997.515	1338.62
997.735	1390.62
997.955	1366.62
998.174	1344.62
998.394	1335.62
998.614	1376.62
998.834	1303.62
999.053	1394.62
999.273	1365.62
999.492	1417.62
999.712	1340.62
999.931	1327.62
1000.151	1359.62
1000.37	1318.62
1000.589	1413.62
1000.809	1304.62
1001.028	1443.62
1001.247	1361.62
1001.466	1269.62
1001.685	1381.62
1001.904	1339.62
1002.123	1317.62
1002.342	1349.62
1002.561	1309.62
1002.78	1317.62
1002.999	1369.62
1003.218	1331.62
1003.436	1308.62
1003.655	1355.62
1003.874	1281.62
1004.092	1304.62
1004.311	1365.62
1004.53	1320.62
1004.748	1392.62
1004.966	1293.62
1005.185	1375.62
1005.403	1345.62
1005.622	1332.62
1005.84	1391.62
1006.058	1311.62
1006.276	1326.62
1006.494	1800.62
1006.712	1278.62
1006.931	1391.62
1007.149	1281.62
1007.367	1295.62
1007.584	1344.62
1007.802	1351.62
1008.02	1318.62
1008.238	1413.62
1008.456	1393.62
1008.673	1263.62
1008.891	1388.62
1009.109	1342.62
1009.326	1383.62
1009.544	1455.62
1009.761	1372.62
1009.979	1459.62
1010.196	1488.62
1010.413	1548.62
1010.631	1611.62
1010.848	1634.62
1011.065	1629.62
1011.282	1586.62
1011.5	1513.62
1011.717	1641.62
1011.934	1565.62
1012.151	1587.62
1012.368	1599.62
1012.585	1512.62
1012.801	1566.62
1013.018	1544.62
1013.235	1529.62
1013.452	1552.62
1013.669	1544.62
1013.885	1536.62
1014.102	1563.62
1014.318	1520.62
1014.535	1487.62
1014.751	1504.62
1014.968	1511.62
1015.184	1528.62
1015.401	1439.62
1015.617	1487.62
1015.833	1420.62
1016.049	1429.62
1016.266	1429.62
1016.482	1419.62
1016.698	1343.62
1016.914	1406.62
1017.13	1340.62
1017.346	1332.62
1017.562	1409.62
1017.778	1334.62
1017.993	1308.62
1018.209	1357.62
1018.425	1364.62
1018.641	1309.62
1018.856	1303.62
1019.072	1316.62
1019.288	1360.62
1019.503	1293.62
1019.719	1237.62
1019.934	1246.62
1020.149	1303.62
1020.365	1262.62
1020.58	1198.62
1020.795	1270.62
1021.011	1200.62
1021.226	1195.62
1021.441	1213.62
1021.656	1127.62
1021.871	1066.62
1022.086	1077.62
1022.301	1091.62
1022.516	1064.62
1022.731	1114.62
1022.946	1043.62
1023.16	1046.62
1023.375	986.62
1023.59	976.62
1023.804	961.62
1024.019	1064.62
1024.234	904.62
1024.448	964.62
1024.663	878.62
1024.877	906.62
1025.092	938.62
1025.306	954.62
1025.52	836.62
1025.734	934.62
1025.949	844.62
1026.163	812.62
1026.377	776.62
1026.591	813.62
1026.805	738.62
1027.019	742.62
1027.233	719.62
1027.447	661.62
1027.661	754.62
1027.875	706.62
1028.088	722.62
1028.302	643.62
1028.516	641.62
1028.73	650.62
1028.943	643.62
1029.157	588.62
1029.37	549.62
1029.584	-0.38
1029.797	-3.38
1030.011	-0.38
1030.224	-4.38
