Data from QEP037381__11__11-22-45-593.txt Node

Date: Wed Dec 21 11:22:45 EST 2022
User: dcclab
Spectrometer: QEP03738
Trigger mode: 4
Integration Time (sec): 1.000000E1
Scans to average: 1
Electric dark correction enabled: true
Nonlinearity correction enabled: false
Boxcar width: 0
XAxis mode: Wavelengths
Number of Pixels in Spectrum: 1044
>>>>>Begin Spectral Data<<<<<
784.041	13.25
784.3	1.25
784.558	-3.75
784.817	-2.75
785.075	40776.25
785.334	8291.25
785.592	4364.25
785.851	3129.25
786.109	2375.25
786.368	1889.25
786.626	1553.25
786.884	1309.25
787.143	1123.25
787.401	923.25
787.659	862.25
787.917	763.25
788.175	735.25
788.433	646.25
788.691	595.25
788.949	565.25
789.207	557.25
789.465	480.25
789.723	485.25
789.98	436.25
790.238	502.25
790.496	463.25
790.753	437.25
791.011	506.25
791.268	442.25
791.526	423.25
791.783	443.25
792.041	445.25
792.298	352.25
792.556	414.25
792.813	421.25
793.07	399.25
793.327	387.25
793.584	452.25
793.841	387.25
794.099	414.25
794.356	476.25
794.613	375.25
794.869	419.25
795.126	390.25
795.383	371.25
795.64	382.25
795.897	331.25
796.153	396.25
796.41	386.25
796.667	363.25
796.923	353.25
797.18	380.25
797.436	406.25
797.693	363.25
797.949	419.25
798.206	450.25
798.462	358.25
798.718	410.25
798.974	391.25
799.231	427.25
799.487	416.25
799.743	430.25
799.999	456.25
800.255	436.25
800.511	422.25
800.767	456.25
801.023	438.25
801.279	463.25
801.534	486.25
801.79	531.25
802.046	539.25
802.302	637.25
802.557	696.25
802.813	839.25
803.068	985.25
803.324	1330.25
803.579	1748.25
803.835	2367.25
804.09	3244.25
804.345	4212.25
804.601	5277.25
804.856	6303.25
805.111	7275.25
805.366	8033.25
805.621	8546.25
805.876	8896.25
806.131	9122.25
806.386	9391.25
806.641	9385.25
806.896	9659.25
807.151	9859.25
807.406	9897.25
807.661	10169.25
807.915	10374.25
808.17	10504.25
808.425	10515.25
808.679	10654.25
808.934	10881.25
809.188	10917.25
809.443	11078.25
809.697	11245.25
809.951	11227.25
810.206	11385.25
810.46	11427.25
810.714	11579.25
810.968	11677.25
811.223	11649.25
811.477	11858.25
811.731	11890.25
811.985	11915.25
812.239	12003.25
812.493	12026.25
812.747	12105.25
813	12161.25
813.254	12169.25
813.508	12259.25
813.762	12352.25
814.015	12285.25
814.269	12465.25
814.522	12601.25
814.776	12779.25
815.03	12861.25
815.283	13057.25
815.536	13283.25
815.79	13440.25
816.043	13766.25
816.296	13850.25
816.55	14047.25
816.803	14181.25
817.056	14456.25
817.309	14503.25
817.562	14642.25
817.815	14826.25
818.068	14961.25
818.321	15016.25
818.574	15192.25
818.827	15472.25
819.079	15632.25
819.332	15908.25
819.585	15961.25
819.838	16332.25
820.09	16359.25
820.343	16434.25
820.595	16476.25
820.848	16623.25
821.1	16656.25
821.353	16720.25
821.605	16631.25
821.857	16723.25
822.11	16561.25
822.362	16533.25
822.614	16466.25
822.866	16543.25
823.118	16516.25
823.37	16697.25
823.622	16645.25
823.874	16692.25
824.126	16742.25
824.378	16651.25
824.63	16817.25
824.882	16761.25
825.134	16786.25
825.385	16697.25
825.637	16755.25
825.888	16764.25
826.14	16673.25
826.392	16625.25
826.643	16492.25
826.895	16534.25
827.146	16374.25
827.397	16445.25
827.649	16383.25
827.9	16348.25
828.151	16436.25
828.402	16356.25
828.653	16494.25
828.905	16479.25
829.156	16672.25
829.407	16558.25
829.658	16585.25
829.909	16672.25
830.159	16606.25
830.41	16557.25
830.661	16453.25
830.912	16255.25
831.162	16236.25
831.413	16208.25
831.664	16226.25
831.914	16185.25
832.165	16103.25
832.415	16158.25
832.666	16237.25
832.916	16233.25
833.167	16305.25
833.417	16374.25
833.667	16183.25
833.917	16100.25
834.168	16176.25
834.418	16074.25
834.668	16009.25
834.918	15815.25
835.168	15806.25
835.418	15712.25
835.668	15749.25
835.918	15752.25
836.167	15725.25
836.417	15596.25
836.667	15639.25
836.917	15666.25
837.166	15542.25
837.416	15681.25
837.666	15629.25
837.915	15708.25
838.165	15579.25
838.414	15486.25
838.663	15491.25
838.913	15551.25
839.162	15465.25
839.411	15474.25
839.661	15372.25
839.91	15397.25
840.159	15331.25
840.408	15385.25
840.657	15396.25
840.906	15299.25
841.155	15379.25
841.404	15440.25
841.653	15494.25
841.902	15447.25
842.15	15447.25
842.399	15531.25
842.648	15390.25
842.897	15330.25
843.145	15246.25
843.394	15119.25
843.642	15047.25
843.891	14932.25
844.139	14906.25
844.388	14764.25
844.636	14718.25
844.884	14790.25
845.133	14738.25
845.381	14769.25
845.629	14798.25
845.877	14625.25
846.125	14672.25
846.373	14648.25
846.621	14566.25
846.869	14562.25
847.117	14524.25
847.365	14458.25
847.613	14403.25
847.861	14382.25
848.108	14375.25
848.356	14275.25
848.604	14302.25
848.851	14312.25
849.099	14331.25
849.346	14485.25
849.594	14460.25
849.841	14546.25
850.089	14590.25
850.336	14823.25
850.583	14817.25
850.831	14746.25
851.078	14541.25
851.325	14462.25
851.572	14530.25
851.819	14256.25
852.066	13959.25
852.313	13878.25
852.56	13640.25
852.807	13655.25
853.054	13656.25
853.301	13627.25
853.548	13634.25
853.794	13803.25
854.041	13784.25
854.288	13730.25
854.534	13935.25
854.781	13821.25
855.028	13808.25
855.274	13958.25
855.52	13875.25
855.767	13781.25
856.013	13755.25
856.26	14034.25
856.506	13589.25
856.752	13610.25
856.998	13638.25
857.244	13738.25
857.49	13836.25
857.736	13788.25
857.982	13781.25
858.228	13758.25
858.474	13585.25
858.72	13508.25
858.966	13372.25
859.212	13360.25
859.458	13180.25
859.703	13079.25
859.949	12792.25
860.195	12851.25
860.44	12766.25
860.686	12641.25
860.931	12768.25
861.177	12621.25
861.422	12652.25
861.667	12517.25
861.913	12482.25
862.158	12523.25
862.403	12564.25
862.648	12637.25
862.893	12628.25
863.138	12580.25
863.384	12589.25
863.629	12543.25
863.873	12583.25
864.118	12544.25
864.363	12416.25
864.608	12382.25
864.853	12433.25
865.098	12295.25
865.342	12198.25
865.587	12218.25
865.832	12230.25
866.076	12262.25
866.321	12138.25
866.565	12160.25
866.81	12031.25
867.054	12005.25
867.298	11964.25
867.543	11973.25
867.787	12044.25
868.031	11948.25
868.275	11881.25
868.519	11851.25
868.764	11858.25
869.008	11802.25
869.252	11855.25
869.496	11820.25
869.739	11812.25
869.983	11882.25
870.227	11829.25
870.471	11751.25
870.715	11889.25
870.958	11942.25
871.202	11861.25
871.446	11934.25
871.689	11879.25
871.933	11997.25
872.176	11879.25
872.42	11857.25
872.663	11850.25
872.906	11877.25
873.15	11891.25
873.393	11761.25
873.636	11749.25
873.879	11705.25
874.122	11552.25
874.366	11327.25
874.609	11366.25
874.852	11192.25
875.095	11175.25
875.337	11123.25
875.58	10965.25
875.823	10996.25
876.066	11027.25
876.309	10977.25
876.551	10833.25
876.794	10811.25
877.037	10855.25
877.279	10741.25
877.522	10750.25
877.764	10845.25
878.007	10786.25
878.249	10837.25
878.491	10737.25
878.734	10675.25
878.976	10737.25
879.218	10663.25
879.46	10624.25
879.702	10465.25
879.945	10539.25
880.187	10330.25
880.429	10347.25
880.671	10214.25
880.912	10230.25
881.154	10170.25
881.396	10170.25
881.638	10213.25
881.88	10120.25
882.121	10157.25
882.363	10159.25
882.605	10143.25
882.846	10121.25
883.088	10130.25
883.329	10045.25
883.571	10107.25
883.812	10260.25
884.053	10407.25
884.295	10567.25
884.536	10776.25
884.777	10566.25
885.018	10528.25
885.259	10526.25
885.5	10349.25
885.742	10594.25
885.982	10367.25
886.223	10266.25
886.464	10170.25
886.705	10122.25
886.946	10043.25
887.187	9874.25
887.428	9781.25
887.668	9677.25
887.909	9485.25
888.15	9339.25
888.39	9442.25
888.631	9362.25
888.871	9295.25
889.111	9199.25
889.352	9144.25
889.592	9058.25
889.833	8980.25
890.073	8909.25
890.313	8889.25
890.553	8818.25
890.793	8770.25
891.033	8711.25
891.273	8662.25
891.513	8720.25
891.753	8709.25
891.993	8670.25
892.233	8710.25
892.473	8779.25
892.713	8699.25
892.952	8653.25
893.192	8725.25
893.432	8676.25
893.671	8726.25
893.911	8568.25
894.15	8579.25
894.39	8476.25
894.629	8480.25
894.869	8465.25
895.108	8389.25
895.347	8377.25
895.587	8362.25
895.826	8275.25
896.065	8315.25
896.304	8309.25
896.543	8419.25
896.782	8242.25
897.021	8313.25
897.26	8269.25
897.499	8339.25
897.738	8255.25
897.977	8158.25
898.216	8115.25
898.454	8043.25
898.693	7978.25
898.932	7998.25
899.17	7953.25
899.409	7926.25
899.647	7915.25
899.886	7944.25
900.124	7934.25
900.363	7958.25
900.601	8010.25
900.839	8020.25
901.078	7971.25
901.316	8030.25
901.554	8002.25
901.792	8093.25
902.03	8089.25
902.268	8046.25
902.506	8100.25
902.744	7921.25
902.982	7935.25
903.22	7777.25
903.458	7694.25
903.695	7601.25
903.933	7486.25
904.171	7355.25
904.409	7240.25
904.646	7266.25
904.884	7098.25
905.121	7051.25
905.359	6964.25
905.596	6914.25
905.833	6841.25
906.071	6812.25
906.308	6789.25
906.545	6828.25
906.783	6682.25
907.02	6780.25
907.257	6666.25
907.494	6671.25
907.731	6649.25
907.968	6573.25
908.205	6578.25
908.442	6526.25
908.679	6536.25
908.915	6466.25
909.152	6389.25
909.389	6323.25
909.626	6281.25
909.862	6283.25
910.099	6223.25
910.335	6239.25
910.572	6096.25
910.808	6222.25
911.045	6124.25
911.281	6098.25
911.518	6119.25
911.754	6091.25
911.99	6083.25
912.226	5966.25
912.463	5910.25
912.699	5848.25
912.935	5873.25
913.171	5816.25
913.407	5750.25
913.643	5809.25
913.879	5700.25
914.114	5663.25
914.35	5611.25
914.586	5556.25
914.822	5553.25
915.057	5575.25
915.293	5392.25
915.529	5388.25
915.764	5426.25
916	5399.25
916.235	5370.25
916.471	5402.25
916.706	5271.25
916.941	5340.25
917.177	5340.25
917.412	5340.25
917.647	5346.25
917.882	5276.25
918.117	5351.25
918.352	5289.25
918.588	5337.25
918.823	5177.25
919.057	5179.25
919.292	5051.25
919.527	5161.25
919.762	5029.25
919.997	5069.25
920.232	4925.25
920.466	4971.25
920.701	4786.25
920.935	4857.25
921.17	4803.25
921.405	4772.25
921.639	4764.25
921.873	4766.25
922.108	4721.25
922.342	4814.25
922.576	4730.25
922.811	4678.25
923.045	4743.25
923.279	4724.25
923.513	4533.25
923.747	4630.25
923.981	4603.25
924.215	4565.25
924.449	4507.25
924.683	4476.25
924.917	4474.25
925.151	4422.25
925.385	4462.25
925.618	4437.25
925.852	4420.25
926.086	4355.25
926.319	4472.25
926.553	4381.25
926.786	4410.25
927.02	4405.25
927.253	4447.25
927.486	4390.25
927.72	4348.25
927.953	4384.25
928.186	4328.25
928.42	4351.25
928.653	4283.25
928.886	4218.25
929.119	4275.25
929.352	4254.25
929.585	4230.25
929.818	4176.25
930.051	4178.25
930.284	4152.25
930.516	4064.25
930.749	4066.25
930.982	4082.25
931.215	4045.25
931.447	3954.25
931.68	3988.25
931.912	3944.25
932.145	3988.25
932.377	4018.25
932.61	4110.25
932.842	3928.25
933.074	4009.25
933.307	3943.25
933.539	4025.25
933.771	4039.25
934.003	3977.25
934.236	4038.25
934.468	4021.25
934.7	3929.25
934.932	3964.25
935.164	3882.25
935.395	3898.25
935.627	3883.25
935.859	3932.25
936.091	3800.25
936.323	3843.25
936.554	3926.25
936.786	3801.25
937.017	3794.25
937.249	3859.25
937.481	3743.25
937.712	3802.25
937.943	3761.25
938.175	3794.25
938.406	3770.25
938.637	3806.25
938.869	3748.25
939.1	3755.25
939.331	3702.25
939.562	3751.25
939.793	3707.25
940.024	3750.25
940.255	3770.25
940.486	3703.25
940.717	3635.25
940.948	3616.25
941.179	3577.25
941.409	3585.25
941.64	3633.25
941.871	3597.25
942.102	3612.25
942.332	3565.25
942.563	3627.25
942.793	3604.25
943.024	3532.25
943.254	3556.25
943.484	3573.25
943.715	3645.25
943.945	3622.25
944.175	3546.25
944.405	3512.25
944.636	3509.25
944.866	3590.25
945.096	3557.25
945.326	3502.25
945.556	3506.25
945.786	3521.25
946.016	3505.25
946.245	3406.25
946.475	3394.25
946.705	3403.25
946.935	3385.25
947.164	3414.25
947.394	3324.25
947.624	3323.25
947.853	3416.25
948.083	3330.25
948.312	3309.25
948.542	3252.25
948.771	3193.25
949	3271.25
949.23	3285.25
949.459	3314.25
949.688	3333.25
949.917	3221.25
950.146	3222.25
950.375	3292.25
950.604	3192.25
950.833	3268.25
951.062	3290.25
951.291	3233.25
951.52	3218.25
951.749	3169.25
951.978	3164.25
952.206	3158.25
952.435	3174.25
952.664	3170.25
952.892	3149.25
953.121	3157.25
953.349	3162.25
953.578	3170.25
953.806	3128.25
954.035	3023.25
954.263	3091.25
954.491	2978.25
954.719	3045.25
954.948	3028.25
955.176	2994.25
955.404	2948.25
955.632	2999.25
955.86	3005.25
956.088	2966.25
956.316	3007.25
956.544	2997.25
956.772	2940.25
956.999	2906.25
957.227	2962.25
957.455	2859.25
957.683	2921.25
957.91	2859.25
958.138	2836.25
958.365	2802.25
958.593	2851.25
958.82	2758.25
959.048	2858.25
959.275	2792.25
959.502	2813.25
959.73	2732.25
959.957	2800.25
960.184	2823.25
960.411	2743.25
960.638	2792.25
960.865	2746.25
961.092	2790.25
961.319	2693.25
961.546	2786.25
961.773	2769.25
962	2742.25
962.227	2760.25
962.454	2751.25
962.68	2674.25
962.907	2715.25
963.134	2694.25
963.36	2679.25
963.587	2702.25
963.813	2621.25
964.04	2655.25
964.266	2592.25
964.493	2673.25
964.719	2663.25
964.945	2647.25
965.171	2534.25
965.398	2593.25
965.624	2624.25
965.85	2535.25
966.076	2495.25
966.302	2525.25
966.528	2484.25
966.754	2517.25
966.98	2519.25
967.206	2499.25
967.431	2435.25
967.657	2523.25
967.883	2489.25
968.109	2472.25
968.334	2432.25
968.56	2409.25
968.785	2446.25
969.011	2384.25
969.236	2433.25
969.462	2372.25
969.687	2389.25
969.912	2440.25
970.138	2459.25
970.363	2385.25
970.588	2385.25
970.813	2387.25
971.038	2355.25
971.263	2363.25
971.488	2406.25
971.713	2394.25
971.938	2381.25
972.163	2277.25
972.388	2326.25
972.613	2272.25
972.838	2270.25
973.062	2315.25
973.287	2285.25
973.512	2208.25
973.736	2256.25
973.961	2228.25
974.185	2191.25
974.41	2222.25
974.634	2137.25
974.858	2173.25
975.083	2172.25
975.307	2219.25
975.531	2163.25
975.755	2076.25
975.98	2118.25
976.204	2057.25
976.428	2072.25
976.652	2043.25
976.876	2040.25
977.1	2097.25
977.324	2028.25
977.547	2043.25
977.771	2083.25
977.995	2037.25
978.219	2013.25
978.442	2135.25
978.666	2026.25
978.89	2040.25
979.113	2029.25
979.337	2013.25
979.56	1985.25
979.783	2056.25
980.007	1955.25
980.23	1982.25
980.453	1941.25
980.677	1952.25
980.9	1976.25
981.123	1840.25
981.346	1976.25
981.569	1953.25
981.792	1982.25
982.015	1911.25
982.238	1886.25
982.461	1914.25
982.684	1908.25
982.907	1854.25
983.129	1859.25
983.352	1898.25
983.575	1869.25
983.797	1863.25
984.02	1814.25
984.242	1819.25
984.465	1810.25
984.687	1865.25
984.91	1868.25
985.132	1836.25
985.354	1860.25
985.577	1805.25
985.799	1817.25
986.021	1737.25
986.243	1791.25
986.465	1793.25
986.687	1809.25
986.909	1858.25
987.131	1814.25
987.353	1736.25
987.575	1797.25
987.797	1763.25
988.019	1706.25
988.241	1750.25
988.462	1717.25
988.684	1790.25
988.906	1810.25
989.127	1810.25
989.349	1699.25
989.57	1719.25
989.792	1764.25
990.013	1776.25
990.234	1760.25
990.456	1807.25
990.677	1772.25
990.898	1703.25
991.119	1711.25
991.341	1744.25
991.562	1661.25
991.783	1696.25
992.004	1636.25
992.225	1584.25
992.446	1686.25
992.667	1604.25
992.887	1677.25
993.108	1571.25
993.329	1728.25
993.55	1616.25
993.77	1592.25
993.991	1564.25
994.212	1614.25
994.432	1619.25
994.653	1602.25
994.873	1603.25
995.093	1501.25
995.314	1514.25
995.534	1595.25
995.754	1586.25
995.975	1624.25
996.195	1512.25
996.415	1600.25
996.635	1543.25
996.855	1565.25
997.075	1547.25
997.295	1530.25
997.515	1515.25
997.735	1592.25
997.955	1564.25
998.174	1542.25
998.394	1501.25
998.614	1551.25
998.834	1496.25
999.053	1573.25
999.273	1527.25
999.492	1565.25
999.712	1532.25
999.931	1491.25
1000.151	1528.25
1000.37	1508.25
1000.589	1568.25
1000.809	1466.25
1001.028	1620.25
1001.247	1536.25
1001.466	1426.25
1001.685	1561.25
1001.904	1504.25
1002.123	1508.25
1002.342	1498.25
1002.561	1453.25
1002.78	1466.25
1002.999	1553.25
1003.218	1492.25
1003.436	1450.25
1003.655	1481.25
1003.874	1423.25
1004.092	1461.25
1004.311	1489.25
1004.53	1474.25
1004.748	1528.25
1004.966	1462.25
1005.185	1516.25
1005.403	1524.25
1005.622	1457.25
1005.84	1525.25
1006.058	1434.25
1006.276	1454.25
1006.494	1942.25
1006.712	1469.25
1006.931	1519.25
1007.149	1445.25
1007.367	1465.25
1007.584	1462.25
1007.802	1520.25
1008.02	1464.25
1008.238	1569.25
1008.456	1521.25
1008.673	1416.25
1008.891	1559.25
1009.109	1496.25
1009.326	1535.25
1009.544	1637.25
1009.761	1531.25
1009.979	1634.25
1010.196	1620.25
1010.413	1729.25
1010.631	1772.25
1010.848	1829.25
1011.065	1815.25
1011.282	1763.25
1011.5	1694.25
1011.717	1786.25
1011.934	1732.25
1012.151	1766.25
1012.368	1748.25
1012.585	1713.25
1012.801	1730.25
1013.018	1703.25
1013.235	1654.25
1013.452	1708.25
1013.669	1732.25
1013.885	1683.25
1014.102	1727.25
1014.318	1681.25
1014.535	1653.25
1014.751	1717.25
1014.968	1700.25
1015.184	1704.25
1015.401	1618.25
1015.617	1620.25
1015.833	1573.25
1016.049	1608.25
1016.266	1569.25
1016.482	1559.25
1016.698	1522.25
1016.914	1544.25
1017.13	1527.25
1017.346	1481.25
1017.562	1553.25
1017.778	1478.25
1017.993	1433.25
1018.209	1509.25
1018.425	1469.25
1018.641	1442.25
1018.856	1450.25
1019.072	1466.25
1019.288	1514.25
1019.503	1462.25
1019.719	1379.25
1019.934	1380.25
1020.149	1454.25
1020.365	1386.25
1020.58	1352.25
1020.795	1390.25
1021.011	1322.25
1021.226	1312.25
1021.441	1336.25
1021.656	1248.25
1021.871	1192.25
1022.086	1217.25
1022.301	1200.25
1022.516	1172.25
1022.731	1218.25
1022.946	1142.25
1023.16	1125.25
1023.375	1095.25
1023.59	1081.25
1023.804	1049.25
1024.019	1139.25
1024.234	1022.25
1024.448	1074.25
1024.663	987.25
1024.877	1004.25
1025.092	1016.25
1025.306	1015.25
1025.52	926.25
1025.734	1001.25
1025.949	911.25
1026.163	923.25
1026.377	839.25
1026.591	909.25
1026.805	843.25
1027.019	810.25
1027.233	802.25
1027.447	746.25
1027.661	840.25
1027.875	781.25
1028.088	782.25
1028.302	720.25
1028.516	708.25
1028.73	710.25
1028.943	696.25
1029.157	651.25
1029.37	597.25
1029.584	-1.75
1029.797	-3.75
1030.011	-2.75
1030.224	0.25
