Data from QEP037381__119__11-40-45-598.txt Node

Date: Wed Dec 21 11:40:45 EST 2022
User: dcclab
Spectrometer: QEP03738
Trigger mode: 4
Integration Time (sec): 1.000000E1
Scans to average: 1
Electric dark correction enabled: true
Nonlinearity correction enabled: false
Boxcar width: 0
XAxis mode: Wavelengths
Number of Pixels in Spectrum: 1044
>>>>>Begin Spectral Data<<<<<
784.041	12
784.3	3
784.558	-3
784.817	-6
785.075	40314
785.334	8150
785.592	4308
785.851	3074
786.109	2379
786.368	1875
786.626	1541
786.884	1332
787.143	1140
787.401	914
787.659	865
787.917	777
788.175	718
788.433	631
788.691	591
788.949	568
789.207	549
789.465	478
789.723	476
789.98	432
790.238	476
790.496	452
790.753	429
791.011	496
791.268	431
791.526	434
791.783	443
792.041	435
792.298	354
792.556	424
792.813	409
793.07	386
793.327	374
793.584	459
793.841	392
794.099	402
794.356	462
794.613	355
794.869	395
795.126	375
795.383	355
795.64	386
795.897	336
796.153	390
796.41	381
796.667	356
796.923	371
797.18	366
797.436	397
797.693	353
797.949	416
798.206	423
798.462	347
798.718	412
798.974	378
799.231	417
799.487	407
799.743	407
799.999	439
800.255	428
800.511	397
800.767	429
801.023	425
801.279	453
801.534	482
801.79	495
802.046	498
802.302	589
802.557	626
802.813	710
803.068	833
803.324	1134
803.579	1461
803.835	1977
804.09	2702
804.345	3528
804.601	4436
804.856	5376
805.111	6211
805.366	6924
805.621	7335
805.876	7662
806.131	7898
806.386	8009
806.641	8124
806.896	8273
807.151	8450
807.406	8564
807.661	8736
807.915	8952
808.17	9084
808.425	9135
808.679	9222
808.934	9446
809.188	9391
809.443	9634
809.697	9689
809.951	9742
810.206	9831
810.46	9972
810.714	9989
810.968	10167
811.223	10129
811.477	10275
811.731	10361
811.985	10449
812.239	10368
812.493	10584
812.747	10551
813	10511
813.254	10639
813.508	10671
813.762	10731
814.015	10843
814.269	10802
814.522	10929
814.776	11077
815.03	11160
815.283	11479
815.536	11535
815.79	11708
816.043	11944
816.296	12010
816.55	12147
816.803	12332
817.056	12560
817.309	12665
817.562	12645
817.815	12926
818.068	13067
818.321	13137
818.574	13341
818.827	13512
819.079	13601
819.332	13894
819.585	14043
819.838	14242
820.09	14318
820.343	14439
820.595	14465
820.848	14573
821.1	14588
821.353	14495
821.605	14584
821.857	14607
822.11	14575
822.362	14453
822.614	14450
822.866	14505
823.118	14447
823.37	14562
823.622	14574
823.874	14601
824.126	14680
824.378	14540
824.63	14692
824.882	14739
825.134	14759
825.385	14742
825.637	14659
825.888	14662
826.14	14655
826.392	14565
826.643	14514
826.895	14484
827.146	14347
827.397	14368
827.649	14376
827.9	14337
828.151	14394
828.402	14398
828.653	14477
828.905	14501
829.156	14566
829.407	14540
829.658	14669
829.909	14536
830.159	14564
830.41	14544
830.661	14305
830.912	14294
831.162	14288
831.413	14232
831.664	14233
831.914	14190
832.165	14200
832.415	14293
832.666	14248
832.916	14259
833.167	14191
833.417	14164
833.667	14095
833.917	14087
834.168	13995
834.418	14087
834.668	14019
834.918	13799
835.168	13803
835.418	13750
835.668	13735
835.918	13854
836.167	13708
836.417	13723
836.667	13707
836.917	13714
837.166	13583
837.416	13701
837.666	13695
837.915	13665
838.165	13572
838.414	13504
838.663	13354
838.913	13525
839.162	13422
839.411	13492
839.661	13423
839.91	13399
840.159	13438
840.408	13387
840.657	13430
840.906	13353
841.155	13421
841.404	13320
841.653	13379
841.902	13400
842.15	13451
842.399	13410
842.648	13478
842.897	13378
843.145	13253
843.394	13173
843.642	13186
843.891	13048
844.139	12995
844.388	12924
844.636	12823
844.884	12897
845.133	12787
845.381	12810
845.629	12858
845.877	12781
846.125	12696
846.373	12735
846.621	12636
846.869	12787
847.117	12598
847.365	12505
847.613	12452
847.861	12586
848.108	12482
848.356	12453
848.604	12387
848.851	12480
849.099	12517
849.346	12544
849.594	12653
849.841	12654
850.089	12725
850.336	12813
850.583	12846
850.831	12865
851.078	12755
851.325	12616
851.572	12566
851.819	12381
852.066	12196
852.313	11966
852.56	11944
852.807	11876
853.054	11847
853.301	11867
853.548	11809
853.794	11994
854.041	11977
854.288	12003
854.534	12147
854.781	12084
855.028	12053
855.274	12103
855.52	11986
855.767	11864
856.013	11920
856.26	12177
856.506	11736
856.752	11896
856.998	11857
857.244	11829
857.49	11952
857.736	11963
857.982	11885
858.228	11841
858.474	11720
858.72	11767
858.966	11601
859.212	11482
859.458	11381
859.703	11256
859.949	11069
860.195	11114
860.44	11070
860.686	11019
860.931	11109
861.177	10950
861.422	10951
861.667	10828
861.913	10848
862.158	10861
862.403	10915
862.648	10931
862.893	10973
863.138	10964
863.384	10899
863.629	10957
863.873	10934
864.118	10859
864.363	10783
864.608	10762
864.853	10802
865.098	10643
865.342	10709
865.587	10606
865.832	10614
866.076	10553
866.321	10605
866.565	10405
866.81	10439
867.054	10470
867.298	10464
867.543	10417
867.787	10395
868.031	10354
868.275	10438
868.519	10338
868.764	10322
869.008	10278
869.252	10363
869.496	10282
869.739	10244
869.983	10195
870.227	10292
870.471	10178
870.715	10258
870.958	10284
871.202	10230
871.446	10273
871.689	10369
871.933	10282
872.176	10340
872.42	10291
872.663	10250
872.906	10255
873.15	10244
873.393	10148
873.636	10230
873.879	10138
874.122	10012
874.366	9776
874.609	9753
874.852	9675
875.095	9660
875.337	9562
875.58	9521
875.823	9538
876.066	9528
876.309	9505
876.551	9404
876.794	9347
877.037	9379
877.279	9274
877.522	9369
877.764	9385
878.007	9366
878.249	9403
878.491	9338
878.734	9409
878.976	9309
879.218	9185
879.46	9264
879.702	9196
879.945	9025
880.187	8997
880.429	8960
880.671	8895
880.912	8861
881.154	8810
881.396	8813
881.638	8873
881.88	8855
882.121	8818
882.363	8780
882.605	8796
882.846	8685
883.088	8745
883.329	8763
883.571	8686
883.812	8790
884.053	8948
884.295	9063
884.536	9191
884.777	9095
885.018	9031
885.259	9045
885.5	8934
885.742	9168
885.982	8893
886.223	8822
886.464	8717
886.705	8712
886.946	8680
887.187	8508
887.428	8470
887.668	8380
887.909	8329
888.15	8124
888.39	8166
888.631	8173
888.871	8066
889.111	7982
889.352	7981
889.592	7942
889.833	7823
890.073	7787
890.313	7816
890.553	7649
890.793	7615
891.033	7607
891.273	7597
891.513	7580
891.753	7600
891.993	7536
892.233	7524
892.473	7601
892.713	7571
892.952	7497
893.192	7575
893.432	7553
893.671	7556
893.911	7522
894.15	7471
894.39	7359
894.629	7448
894.869	7416
895.108	7368
895.347	7290
895.587	7280
895.826	7263
896.065	7223
896.304	7271
896.543	7252
896.782	7189
897.021	7271
897.26	7199
897.499	7267
897.738	7198
897.977	7116
898.216	7098
898.454	7051
898.693	7005
898.932	7017
899.17	6946
899.409	6888
899.647	6935
899.886	6931
900.124	6918
900.363	6876
900.601	6970
900.839	6954
901.078	6941
901.316	6926
901.554	6987
901.792	7090
902.03	7023
902.268	7030
902.506	7014
902.744	6921
902.982	6932
903.22	6814
903.458	6729
903.695	6623
903.933	6623
904.171	6418
904.409	6333
904.646	6314
904.884	6186
905.121	6192
905.359	6100
905.596	6080
905.833	5933
906.071	5973
906.308	5928
906.545	5861
906.783	5842
907.02	5926
907.257	5796
907.494	5856
907.731	5869
907.968	5780
908.205	5730
908.442	5758
908.679	5696
908.915	5669
909.152	5611
909.389	5475
909.626	5521
909.862	5430
910.099	5448
910.335	5526
910.572	5335
910.808	5368
911.045	5387
911.281	5363
911.518	5394
911.754	5243
911.99	5321
912.226	5225
912.463	5213
912.699	5152
912.935	5161
913.171	5066
913.407	5074
913.643	5048
913.879	5029
914.114	4914
914.35	4913
914.586	4900
914.822	4793
915.057	4882
915.293	4709
915.529	4718
915.764	4753
916	4775
916.235	4733
916.471	4726
916.706	4598
916.941	4713
917.177	4682
917.412	4739
917.647	4682
917.882	4580
918.117	4691
918.352	4624
918.588	4673
918.823	4531
919.057	4579
919.292	4432
919.527	4539
919.762	4418
919.997	4443
920.232	4380
920.466	4365
920.701	4182
920.935	4246
921.17	4187
921.405	4144
921.639	4191
921.873	4157
922.108	4195
922.342	4151
922.576	4079
922.811	4082
923.045	4093
923.279	4138
923.513	4007
923.747	4095
923.981	4046
924.215	3935
924.449	3981
924.683	3915
924.917	3970
925.151	3947
925.385	3992
925.618	3903
925.852	3888
926.086	3831
926.319	3876
926.553	3898
926.786	3864
927.02	3836
927.253	3900
927.486	3886
927.72	3864
927.953	3819
928.186	3836
928.42	3884
928.653	3767
928.886	3754
929.119	3775
929.352	3766
929.585	3725
929.818	3701
930.051	3700
930.284	3661
930.516	3601
930.749	3567
930.982	3618
931.215	3580
931.447	3570
931.68	3537
931.912	3492
932.145	3537
932.377	3534
932.61	3671
932.842	3462
933.074	3536
933.307	3497
933.539	3536
933.771	3508
934.003	3467
934.236	3552
934.468	3562
934.7	3502
934.932	3527
935.164	3433
935.395	3437
935.627	3443
935.859	3474
936.091	3391
936.323	3400
936.554	3469
936.786	3438
937.017	3334
937.249	3364
937.481	3332
937.712	3352
937.943	3307
938.175	3352
938.406	3378
938.637	3374
938.869	3283
939.1	3344
939.331	3284
939.562	3326
939.793	3303
940.024	3322
940.255	3306
940.486	3267
940.717	3246
940.948	3250
941.179	3179
941.409	3233
941.64	3177
941.871	3196
942.102	3152
942.332	3182
942.563	3226
942.793	3213
943.024	3139
943.254	3177
943.484	3264
943.715	3204
943.945	3171
944.175	3132
944.405	3129
944.636	3125
944.866	3199
945.096	3174
945.326	3090
945.556	3143
945.786	3134
946.016	3085
946.245	3046
946.475	3049
946.705	3053
946.935	3034
947.164	3005
947.394	3007
947.624	3002
947.853	3010
948.083	2996
948.312	2958
948.542	2873
948.771	2876
949	2889
949.23	2853
949.459	2902
949.688	2954
949.917	2856
950.146	2895
950.375	2952
950.604	2873
950.833	2984
951.062	2963
951.291	2860
951.52	2867
951.749	2866
951.978	2848
952.206	2804
952.435	2794
952.664	2845
952.892	2826
953.121	2796
953.349	2806
953.578	2840
953.806	2753
954.035	2684
954.263	2780
954.491	2727
954.719	2744
954.948	2698
955.176	2689
955.404	2668
955.632	2687
955.86	2687
956.088	2687
956.316	2680
956.544	2687
956.772	2591
956.999	2605
957.227	2681
957.455	2586
957.683	2571
957.91	2541
958.138	2547
958.365	2520
958.593	2505
958.82	2482
959.048	2555
959.275	2476
959.502	2514
959.73	2469
959.957	2507
960.184	2520
960.411	2458
960.638	2532
960.865	2443
961.092	2464
961.319	2376
961.546	2528
961.773	2495
962	2479
962.227	2498
962.454	2424
962.68	2449
962.907	2461
963.134	2414
963.36	2437
963.587	2418
963.813	2336
964.04	2406
964.266	2334
964.493	2414
964.719	2379
964.945	2382
965.171	2283
965.398	2311
965.624	2356
965.85	2251
966.076	2284
966.302	2311
966.528	2245
966.754	2265
966.98	2282
967.206	2245
967.431	2185
967.657	2271
967.883	2243
968.109	2259
968.334	2199
968.56	2195
968.785	2219
969.011	2155
969.236	2238
969.462	2165
969.687	2189
969.912	2203
970.138	2238
970.363	2158
970.588	2163
970.813	2122
971.038	2133
971.263	2159
971.488	2143
971.713	2176
971.938	2152
972.163	2041
972.388	2074
972.613	2058
972.838	2089
973.062	2045
973.287	2075
973.512	1981
973.736	2014
973.961	2038
974.185	2023
974.41	2025
974.634	1924
974.858	1957
975.083	1978
975.307	1996
975.531	1969
975.755	1894
975.98	1905
976.204	1857
976.428	1853
976.652	1875
976.876	1875
977.1	1907
977.324	1838
977.547	1882
977.771	1893
977.995	1842
978.219	1811
978.442	1926
978.666	1865
978.89	1874
979.113	1835
979.337	1842
979.56	1791
979.783	1914
980.007	1810
980.23	1818
980.453	1775
980.677	1825
980.9	1829
981.123	1711
981.346	1819
981.569	1763
981.792	1795
982.015	1752
982.238	1730
982.461	1735
982.684	1702
982.907	1687
983.129	1704
983.352	1752
983.575	1695
983.797	1724
984.02	1637
984.242	1684
984.465	1676
984.687	1706
984.91	1727
985.132	1681
985.354	1686
985.577	1695
985.799	1653
986.021	1590
986.243	1587
986.465	1660
986.687	1665
986.909	1702
987.131	1625
987.353	1601
987.575	1627
987.797	1607
988.019	1548
988.241	1615
988.462	1579
988.684	1630
988.906	1624
989.127	1665
989.349	1552
989.57	1598
989.792	1624
990.013	1650
990.234	1626
990.456	1649
990.677	1638
990.898	1556
991.119	1569
991.341	1608
991.562	1525
991.783	1563
992.004	1503
992.225	1463
992.446	1536
992.667	1444
992.887	1542
993.108	1450
993.329	1573
993.55	1541
993.77	1486
993.991	1438
994.212	1508
994.432	1499
994.653	1483
994.873	1481
995.093	1397
995.314	1426
995.534	1512
995.754	1523
995.975	1503
996.195	1405
996.415	1465
996.635	1415
996.855	1468
997.075	1398
997.295	1395
997.515	1414
997.735	1439
997.955	1433
998.174	1416
998.394	1416
998.614	1442
998.834	1399
999.053	1453
999.273	1441
999.492	1470
999.712	1443
999.931	1394
1000.151	1436
1000.37	1413
1000.589	1468
1000.809	1375
1001.028	1518
1001.247	1433
1001.466	1320
1001.685	1462
1001.904	1403
1002.123	1394
1002.342	1412
1002.561	1354
1002.78	1364
1002.999	1439
1003.218	1386
1003.436	1334
1003.655	1438
1003.874	1355
1004.092	1398
1004.311	1406
1004.53	1381
1004.748	1445
1004.966	1361
1005.185	1433
1005.403	1418
1005.622	1376
1005.84	1461
1006.058	1358
1006.276	1372
1006.494	1882
1006.712	1373
1006.931	1445
1007.149	1348
1007.367	1376
1007.584	1402
1007.802	1441
1008.02	1365
1008.238	1461
1008.456	1430
1008.673	1303
1008.891	1450
1009.109	1375
1009.326	1424
1009.544	1507
1009.761	1416
1009.979	1488
1010.196	1489
1010.413	1588
1010.631	1624
1010.848	1663
1011.065	1637
1011.282	1579
1011.5	1530
1011.717	1636
1011.934	1573
1012.151	1605
1012.368	1553
1012.585	1526
1012.801	1551
1013.018	1549
1013.235	1525
1013.452	1521
1013.669	1548
1013.885	1540
1014.102	1584
1014.318	1529
1014.535	1494
1014.751	1531
1014.968	1486
1015.184	1531
1015.401	1455
1015.617	1489
1015.833	1433
1016.049	1441
1016.266	1436
1016.482	1420
1016.698	1346
1016.914	1425
1017.13	1364
1017.346	1356
1017.562	1409
1017.778	1367
1017.993	1290
1018.209	1373
1018.425	1359
1018.641	1341
1018.856	1291
1019.072	1315
1019.288	1376
1019.503	1324
1019.719	1228
1019.934	1271
1020.149	1347
1020.365	1280
1020.58	1228
1020.795	1270
1021.011	1188
1021.226	1193
1021.441	1238
1021.656	1159
1021.871	1101
1022.086	1102
1022.301	1118
1022.516	1082
1022.731	1132
1022.946	1059
1023.16	1050
1023.375	1028
1023.59	996
1023.804	983
1024.019	1078
1024.234	942
1024.448	991
1024.663	939
1024.877	945
1025.092	978
1025.306	967
1025.52	882
1025.734	976
1025.949	862
1026.163	857
1026.377	804
1026.591	850
1026.805	780
1027.019	783
1027.233	780
1027.447	708
1027.661	799
1027.875	731
1028.088	734
1028.302	673
1028.516	685
1028.73	671
1028.943	658
1029.157	619
1029.37	589
1029.584	1
1029.797	-2
1030.011	-2
1030.224	-3
