Data from QEP037381__54__11-29-55-595.txt Node

Date: Wed Dec 21 11:29:55 EST 2022
User: dcclab
Spectrometer: QEP03738
Trigger mode: 4
Integration Time (sec): 1.000000E1
Scans to average: 1
Electric dark correction enabled: true
Nonlinearity correction enabled: false
Boxcar width: 0
XAxis mode: Wavelengths
Number of Pixels in Spectrum: 1044
>>>>>Begin Spectral Data<<<<<
784.041	14.38
784.3	-1.62
784.558	-0.62
784.817	-2.62
785.075	41540.38
785.334	8750.38
785.592	4689.38
785.851	3327.38
786.109	2548.38
786.368	2044.38
786.626	1680.38
786.884	1429.38
787.143	1210.38
787.401	992.38
787.659	924.38
787.917	808.38
788.175	770.38
788.433	677.38
788.691	615.38
788.949	595.38
789.207	597.38
789.465	501.38
789.723	490.38
789.98	457.38
790.238	509.38
790.496	477.38
790.753	459.38
791.011	498.38
791.268	447.38
791.526	432.38
791.783	465.38
792.041	455.38
792.298	384.38
792.556	435.38
792.813	420.38
793.07	407.38
793.327	390.38
793.584	478.38
793.841	389.38
794.099	418.38
794.356	472.38
794.613	383.38
794.869	422.38
795.126	392.38
795.383	360.38
795.64	389.38
795.897	341.38
796.153	398.38
796.41	397.38
796.667	375.38
796.923	369.38
797.18	392.38
797.436	416.38
797.693	364.38
797.949	431.38
798.206	459.38
798.462	371.38
798.718	439.38
798.974	395.38
799.231	428.38
799.487	437.38
799.743	443.38
799.999	461.38
800.255	451.38
800.511	434.38
800.767	482.38
801.023	466.38
801.279	480.38
801.534	512.38
801.79	556.38
802.046	543.38
802.302	646.38
802.557	728.38
802.813	847.38
803.068	988.38
803.324	1383.38
803.579	1836.38
803.835	2496.38
804.09	3460.38
804.345	4519.38
804.601	5737.38
804.856	6951.38
805.111	8110.38
805.366	8819.38
805.621	9533.38
805.876	10000.38
806.131	10223.38
806.386	10329.38
806.641	10550.38
806.896	10680.38
807.151	10956.38
807.406	11115.38
807.661	11386.38
807.915	11554.38
808.17	11836.38
808.425	11863.38
808.679	12002.38
808.934	12223.38
809.188	12192.38
809.443	12359.38
809.697	12524.38
809.951	12646.38
810.206	12663.38
810.46	12816.38
810.714	12920.38
810.968	13081.38
811.223	13156.38
811.477	13262.38
811.731	13404.38
811.985	13395.38
812.239	13422.38
812.493	13530.38
812.747	13575.38
813	13586.38
813.254	13744.38
813.508	13780.38
813.762	13796.38
814.015	13874.38
814.269	14036.38
814.522	14100.38
814.776	14422.38
815.03	14401.38
815.283	14700.38
815.536	14870.38
815.79	15171.38
816.043	15320.38
816.296	15583.38
816.55	15805.38
816.803	15980.38
817.056	16239.38
817.309	16346.38
817.562	16453.38
817.815	16728.38
818.068	16759.38
818.321	17001.38
818.574	17173.38
818.827	17387.38
819.079	17464.38
819.332	17892.38
819.585	18127.38
819.838	18388.38
820.09	18380.38
820.343	18532.38
820.595	18652.38
820.848	18766.38
821.1	18945.38
821.353	18928.38
821.605	18808.38
821.857	18789.38
822.11	18637.38
822.362	18757.38
822.614	18677.38
822.866	18638.38
823.118	18669.38
823.37	18729.38
823.622	18717.38
823.874	18915.38
824.126	18988.38
824.378	18959.38
824.63	19036.38
824.882	19039.38
825.134	19148.38
825.385	18965.38
825.637	18940.38
825.888	18961.38
826.14	18965.38
826.392	18781.38
826.643	18755.38
826.895	18722.38
827.146	18548.38
827.397	18494.38
827.649	18590.38
827.9	18589.38
828.151	18560.38
828.402	18513.38
828.653	18701.38
828.905	18731.38
829.156	18709.38
829.407	18735.38
829.658	18797.38
829.909	18762.38
830.159	18786.38
830.41	18530.38
830.661	18576.38
830.912	18386.38
831.162	18374.38
831.413	18268.38
831.664	18398.38
831.914	18366.38
832.165	18366.38
832.415	18291.38
832.666	18298.38
832.916	18377.38
833.167	18286.38
833.417	18288.38
833.667	18237.38
833.917	18062.38
834.168	18170.38
834.418	18135.38
834.668	18029.38
834.918	17896.38
835.168	17805.38
835.418	17840.38
835.668	17792.38
835.918	17825.38
836.167	17645.38
836.417	17690.38
836.667	17673.38
836.917	17700.38
837.166	17622.38
837.416	17637.38
837.666	17642.38
837.915	17648.38
838.165	17593.38
838.414	17551.38
838.663	17480.38
838.913	17506.38
839.162	17418.38
839.411	17482.38
839.661	17368.38
839.91	17381.38
840.159	17318.38
840.408	17350.38
840.657	17319.38
840.906	17264.38
841.155	17357.38
841.404	17322.38
841.653	17349.38
841.902	17344.38
842.15	17369.38
842.399	17413.38
842.648	17404.38
842.897	17304.38
843.145	17178.38
843.394	17195.38
843.642	16997.38
843.891	16937.38
844.139	16813.38
844.388	16643.38
844.636	16635.38
844.884	16718.38
845.133	16600.38
845.381	16590.38
845.629	16562.38
845.877	16456.38
846.125	16475.38
846.373	16460.38
846.621	16376.38
846.869	16413.38
847.117	16390.38
847.365	16204.38
847.613	16164.38
847.861	16176.38
848.108	16091.38
848.356	16055.38
848.604	16087.38
848.851	16081.38
849.099	16053.38
849.346	16151.38
849.594	16239.38
849.841	16430.38
850.089	16482.38
850.336	16569.38
850.583	16620.38
850.831	16524.38
851.078	16372.38
851.325	16317.38
851.572	16185.38
851.819	16009.38
852.066	15668.38
852.313	15538.38
852.56	15283.38
852.807	15373.38
853.054	15207.38
853.301	15315.38
853.548	15281.38
853.794	15360.38
854.041	15374.38
854.288	15413.38
854.534	15673.38
854.781	15555.38
855.028	15571.38
855.274	15587.38
855.52	15491.38
855.767	15387.38
856.013	15463.38
856.26	15685.38
856.506	15199.38
856.752	15265.38
856.998	15202.38
857.244	15252.38
857.49	15269.38
857.736	15455.38
857.982	15402.38
858.228	15287.38
858.474	15183.38
858.72	15115.38
858.966	14925.38
859.212	14811.38
859.458	14682.38
859.703	14510.38
859.949	14389.38
860.195	14341.38
860.44	14238.38
860.686	14257.38
860.931	14216.38
861.177	14022.38
861.422	14095.38
861.667	14020.38
861.913	13986.38
862.158	13925.38
862.403	14001.38
862.648	14074.38
862.893	14171.38
863.138	14124.38
863.384	14093.38
863.629	14110.38
863.873	14045.38
864.118	13967.38
864.363	13854.38
864.608	13915.38
864.853	13783.38
865.098	13720.38
865.342	13724.38
865.587	13629.38
865.832	13645.38
866.076	13670.38
866.321	13587.38
866.565	13464.38
866.81	13344.38
867.054	13354.38
867.298	13391.38
867.543	13334.38
867.787	13359.38
868.031	13347.38
868.275	13315.38
868.519	13309.38
868.764	13170.38
869.008	13176.38
869.252	13293.38
869.496	13149.38
869.739	13112.38
869.983	13123.38
870.227	13097.38
870.471	13019.38
870.715	13166.38
870.958	13118.38
871.202	13179.38
871.446	13193.38
871.689	13224.38
871.933	13230.38
872.176	13200.38
872.42	13186.38
872.663	13115.38
872.906	13090.38
873.15	13096.38
873.393	13102.38
873.636	13088.38
873.879	12963.38
874.122	12850.38
874.366	12425.38
874.609	12538.38
874.852	12374.38
875.095	12300.38
875.337	12264.38
875.58	12174.38
875.823	12098.38
876.066	12202.38
876.309	12124.38
876.551	11956.38
876.794	11921.38
877.037	11923.38
877.279	11901.38
877.522	11928.38
877.764	12027.38
878.007	11902.38
878.249	11880.38
878.491	11834.38
878.734	11889.38
878.976	11840.38
879.218	11708.38
879.46	11780.38
879.702	11677.38
879.945	11627.38
880.187	11441.38
880.429	11377.38
880.671	11378.38
880.912	11341.38
881.154	11287.38
881.396	11127.38
881.638	11194.38
881.88	11187.38
882.121	11171.38
882.363	11117.38
882.605	11265.38
882.846	11156.38
883.088	11123.38
883.329	11103.38
883.571	11165.38
883.812	11286.38
884.053	11537.38
884.295	11625.38
884.536	11719.38
884.777	11627.38
885.018	11435.38
885.259	11453.38
885.5	11374.38
885.742	11572.38
885.982	11417.38
886.223	11262.38
886.464	11220.38
886.705	11034.38
886.946	11001.38
887.187	10789.38
887.428	10754.38
887.668	10646.38
887.909	10561.38
888.15	10340.38
888.39	10354.38
888.631	10301.38
888.871	10255.38
889.111	10176.38
889.352	10098.38
889.592	9979.38
889.833	9935.38
890.073	9825.38
890.313	9898.38
890.553	9686.38
890.793	9667.38
891.033	9685.38
891.273	9612.38
891.513	9532.38
891.753	9578.38
891.993	9501.38
892.233	9579.38
892.473	9607.38
892.713	9646.38
892.952	9577.38
893.192	9610.38
893.432	9557.38
893.671	9595.38
893.911	9502.38
894.15	9426.38
894.39	9344.38
894.629	9359.38
894.869	9359.38
895.108	9229.38
895.347	9200.38
895.587	9233.38
895.826	9121.38
896.065	9121.38
896.304	9249.38
896.543	9187.38
896.782	9101.38
897.021	9073.38
897.26	9086.38
897.499	9089.38
897.738	9051.38
897.977	9011.38
898.216	8918.38
898.454	8765.38
898.693	8714.38
898.932	8807.38
899.17	8754.38
899.409	8674.38
899.647	8681.38
899.886	8688.38
900.124	8723.38
900.363	8671.38
900.601	8643.38
900.839	8716.38
901.078	8754.38
901.316	8823.38
901.554	8741.38
901.792	8758.38
902.03	8820.38
902.268	8784.38
902.506	8743.38
902.744	8705.38
902.982	8654.38
903.22	8512.38
903.458	8413.38
903.695	8322.38
903.933	8290.38
904.171	8023.38
904.409	7871.38
904.646	7912.38
904.884	7780.38
905.121	7719.38
905.359	7642.38
905.596	7559.38
905.833	7449.38
906.071	7437.38
906.308	7510.38
906.545	7429.38
906.783	7329.38
907.02	7368.38
907.257	7330.38
907.494	7254.38
907.731	7243.38
907.968	7300.38
908.205	7213.38
908.442	7158.38
908.679	7128.38
908.915	7046.38
909.152	6991.38
909.389	6848.38
909.626	6858.38
909.862	6808.38
910.099	6872.38
910.335	6802.38
910.572	6694.38
910.808	6732.38
911.045	6738.38
911.281	6681.38
911.518	6736.38
911.754	6581.38
911.99	6613.38
912.226	6516.38
912.463	6430.38
912.699	6466.38
912.935	6409.38
913.171	6354.38
913.407	6273.38
913.643	6333.38
913.879	6181.38
914.114	6186.38
914.35	6089.38
914.586	6102.38
914.822	5920.38
915.057	6043.38
915.293	5863.38
915.529	5859.38
915.764	5918.38
916	5928.38
916.235	5893.38
916.471	5881.38
916.706	5842.38
916.941	5815.38
917.177	5800.38
917.412	5807.38
917.647	5781.38
917.882	5798.38
918.117	5812.38
918.352	5727.38
918.588	5749.38
918.823	5711.38
919.057	5628.38
919.292	5488.38
919.527	5530.38
919.762	5486.38
919.997	5450.38
920.232	5358.38
920.466	5411.38
920.701	5253.38
920.935	5348.38
921.17	5243.38
921.405	5179.38
921.639	5215.38
921.873	5163.38
922.108	5178.38
922.342	5170.38
922.576	5105.38
922.811	5098.38
923.045	5102.38
923.279	5116.38
923.513	4940.38
923.747	5039.38
923.981	5001.38
924.215	4954.38
924.449	4944.38
924.683	4802.38
924.917	4863.38
925.151	4758.38
925.385	4880.38
925.618	4823.38
925.852	4827.38
926.086	4717.38
926.319	4800.38
926.553	4788.38
926.786	4741.38
927.02	4752.38
927.253	4799.38
927.486	4790.38
927.72	4703.38
927.953	4765.38
928.186	4665.38
928.42	4699.38
928.653	4624.38
928.886	4599.38
929.119	4655.38
929.352	4655.38
929.585	4585.38
929.818	4501.38
930.051	4451.38
930.284	4504.38
930.516	4392.38
930.749	4399.38
930.982	4428.38
931.215	4301.38
931.447	4262.38
931.68	4351.38
931.912	4322.38
932.145	4330.38
932.377	4365.38
932.61	4434.38
932.842	4251.38
933.074	4301.38
933.307	4270.38
933.539	4359.38
933.771	4341.38
934.003	4271.38
934.236	4364.38
934.468	4370.38
934.7	4246.38
934.932	4309.38
935.164	4229.38
935.395	4245.38
935.627	4250.38
935.859	4226.38
936.091	4157.38
936.323	4219.38
936.554	4195.38
936.786	4154.38
937.017	4104.38
937.249	4176.38
937.481	4096.38
937.712	4132.38
937.943	4075.38
938.175	4061.38
938.406	4052.38
938.637	4167.38
938.869	4014.38
939.1	4041.38
939.331	4013.38
939.562	4047.38
939.793	4045.38
940.024	4030.38
940.255	4016.38
940.486	3934.38
940.717	3938.38
940.948	3915.38
941.179	3869.38
941.409	3901.38
941.64	3844.38
941.871	3931.38
942.102	3867.38
942.332	3875.38
942.563	3894.38
942.793	3912.38
943.024	3813.38
943.254	3887.38
943.484	3914.38
943.715	3890.38
943.945	3853.38
944.175	3787.38
944.405	3764.38
944.636	3780.38
944.866	3814.38
945.096	3836.38
945.326	3778.38
945.556	3853.38
945.786	3806.38
946.016	3738.38
946.245	3683.38
946.475	3694.38
946.705	3662.38
946.935	3676.38
947.164	3694.38
947.394	3627.38
947.624	3578.38
947.853	3624.38
948.083	3577.38
948.312	3540.38
948.542	3518.38
948.771	3441.38
949	3462.38
949.23	3531.38
949.459	3506.38
949.688	3569.38
949.917	3469.38
950.146	3490.38
950.375	3504.38
950.604	3463.38
950.833	3529.38
951.062	3543.38
951.291	3485.38
951.52	3426.38
951.749	3432.38
951.978	3411.38
952.206	3425.38
952.435	3398.38
952.664	3421.38
952.892	3405.38
953.121	3404.38
953.349	3401.38
953.578	3372.38
953.806	3336.38
954.035	3295.38
954.263	3331.38
954.491	3229.38
954.719	3316.38
954.948	3263.38
955.176	3207.38
955.404	3200.38
955.632	3237.38
955.86	3204.38
956.088	3179.38
956.316	3197.38
956.544	3214.38
956.772	3178.38
956.999	3148.38
957.227	3179.38
957.455	3074.38
957.683	3084.38
957.91	3043.38
958.138	3027.38
958.365	3022.38
958.593	3027.38
958.82	2966.38
959.048	3049.38
959.275	2983.38
959.502	3012.38
959.73	2980.38
959.957	2985.38
960.184	3010.38
960.411	2929.38
960.638	3010.38
960.865	2942.38
961.092	2972.38
961.319	2837.38
961.546	2970.38
961.773	2979.38
962	2943.38
962.227	2991.38
962.454	2907.38
962.68	2893.38
962.907	2896.38
963.134	2837.38
963.36	2873.38
963.587	2866.38
963.813	2799.38
964.04	2843.38
964.266	2733.38
964.493	2855.38
964.719	2820.38
964.945	2812.38
965.171	2697.38
965.398	2763.38
965.624	2777.38
965.85	2687.38
966.076	2701.38
966.302	2743.38
966.528	2694.38
966.754	2676.38
966.98	2718.38
967.206	2668.38
967.431	2640.38
967.657	2717.38
967.883	2637.38
968.109	2676.38
968.334	2578.38
968.56	2563.38
968.785	2607.38
969.011	2559.38
969.236	2602.38
969.462	2564.38
969.687	2597.38
969.912	2633.38
970.138	2623.38
970.363	2543.38
970.588	2572.38
970.813	2542.38
971.038	2526.38
971.263	2560.38
971.488	2522.38
971.713	2564.38
971.938	2573.38
972.163	2458.38
972.388	2472.38
972.613	2421.38
972.838	2462.38
973.062	2405.38
973.287	2427.38
973.512	2337.38
973.736	2404.38
973.961	2349.38
974.185	2356.38
974.41	2350.38
974.634	2288.38
974.858	2302.38
975.083	2319.38
975.307	2341.38
975.531	2292.38
975.755	2246.38
975.98	2272.38
976.204	2215.38
976.428	2215.38
976.652	2257.38
976.876	2197.38
977.1	2241.38
977.324	2219.38
977.547	2213.38
977.771	2224.38
977.995	2204.38
978.219	2112.38
978.442	2260.38
978.666	2189.38
978.89	2158.38
979.113	2165.38
979.337	2140.38
979.56	2122.38
979.783	2186.38
980.007	2084.38
980.23	2137.38
980.453	2090.38
980.677	2134.38
980.9	2119.38
981.123	2010.38
981.346	2125.38
981.569	2069.38
981.792	2103.38
982.015	2031.38
982.238	2015.38
982.461	2043.38
982.684	2015.38
982.907	1991.38
983.129	1955.38
983.352	2027.38
983.575	1993.38
983.797	1997.38
984.02	1937.38
984.242	1945.38
984.465	1963.38
984.687	1978.38
984.91	1980.38
985.132	1940.38
985.354	1940.38
985.577	1952.38
985.799	1940.38
986.021	1874.38
986.243	1845.38
986.465	1883.38
986.687	1947.38
986.909	1966.38
987.131	1869.38
987.353	1855.38
987.575	1922.38
987.797	1863.38
988.019	1809.38
988.241	1849.38
988.462	1829.38
988.684	1847.38
988.906	1879.38
989.127	1892.38
989.349	1781.38
989.57	1835.38
989.792	1892.38
990.013	1850.38
990.234	1876.38
990.456	1892.38
990.677	1853.38
990.898	1829.38
991.119	1801.38
991.341	1844.38
991.562	1734.38
991.783	1782.38
992.004	1725.38
992.225	1727.38
992.446	1761.38
992.667	1687.38
992.887	1747.38
993.108	1648.38
993.329	1786.38
993.55	1737.38
993.77	1672.38
993.991	1682.38
994.212	1712.38
994.432	1705.38
994.653	1722.38
994.873	1697.38
995.093	1570.38
995.314	1598.38
995.534	1664.38
995.754	1683.38
995.975	1687.38
996.195	1601.38
996.415	1655.38
996.635	1635.38
996.855	1673.38
997.075	1618.38
997.295	1615.38
997.515	1610.38
997.735	1666.38
997.955	1633.38
998.174	1589.38
998.394	1614.38
998.614	1652.38
998.834	1590.38
999.053	1652.38
999.273	1624.38
999.492	1675.38
999.712	1611.38
999.931	1586.38
1000.151	1617.38
1000.37	1583.38
1000.589	1663.38
1000.809	1567.38
1001.028	1684.38
1001.247	1613.38
1001.466	1505.38
1001.685	1669.38
1001.904	1581.38
1002.123	1543.38
1002.342	1573.38
1002.561	1542.38
1002.78	1535.38
1002.999	1596.38
1003.218	1562.38
1003.436	1509.38
1003.655	1558.38
1003.874	1530.38
1004.092	1519.38
1004.311	1575.38
1004.53	1513.38
1004.748	1581.38
1004.966	1518.38
1005.185	1577.38
1005.403	1576.38
1005.622	1534.38
1005.84	1584.38
1006.058	1501.38
1006.276	1535.38
1006.494	2023.38
1006.712	1549.38
1006.931	1591.38
1007.149	1505.38
1007.367	1505.38
1007.584	1556.38
1007.802	1576.38
1008.02	1534.38
1008.238	1624.38
1008.456	1624.38
1008.673	1470.38
1008.891	1568.38
1009.109	1532.38
1009.326	1600.38
1009.544	1671.38
1009.761	1591.38
1009.979	1690.38
1010.196	1661.38
1010.413	1785.38
1010.631	1817.38
1010.848	1868.38
1011.065	1855.38
1011.282	1795.38
1011.5	1765.38
1011.717	1841.38
1011.934	1792.38
1012.151	1814.38
1012.368	1810.38
1012.585	1774.38
1012.801	1834.38
1013.018	1755.38
1013.235	1740.38
1013.452	1755.38
1013.669	1770.38
1013.885	1765.38
1014.102	1796.38
1014.318	1759.38
1014.535	1723.38
1014.751	1751.38
1014.968	1721.38
1015.184	1790.38
1015.401	1681.38
1015.617	1705.38
1015.833	1630.38
1016.049	1639.38
1016.266	1636.38
1016.482	1605.38
1016.698	1553.38
1016.914	1594.38
1017.13	1534.38
1017.346	1547.38
1017.562	1616.38
1017.778	1529.38
1017.993	1503.38
1018.209	1551.38
1018.425	1533.38
1018.641	1525.38
1018.856	1479.38
1019.072	1516.38
1019.288	1532.38
1019.503	1472.38
1019.719	1402.38
1019.934	1430.38
1020.149	1521.38
1020.365	1436.38
1020.58	1396.38
1020.795	1408.38
1021.011	1371.38
1021.226	1353.38
1021.441	1376.38
1021.656	1286.38
1021.871	1234.38
1022.086	1225.38
1022.301	1224.38
1022.516	1242.38
1022.731	1292.38
1022.946	1186.38
1023.16	1158.38
1023.375	1146.38
1023.59	1128.38
1023.804	1097.38
1024.019	1193.38
1024.234	1061.38
1024.448	1084.38
1024.663	1034.38
1024.877	1061.38
1025.092	1054.38
1025.306	1070.38
1025.52	959.38
1025.734	1031.38
1025.949	958.38
1026.163	954.38
1026.377	889.38
1026.591	937.38
1026.805	858.38
1027.019	859.38
1027.233	835.38
1027.447	786.38
1027.661	889.38
1027.875	805.38
1028.088	819.38
1028.302	747.38
1028.516	735.38
1028.73	737.38
1028.943	726.38
1029.157	683.38
1029.37	625.38
1029.584	-4.62
1029.797	-0.62
1030.011	-4.62
1030.224	0.38
