Data from QEP037381__41__11-27-45-594.txt Node

Date: Wed Dec 21 11:27:45 EST 2022
User: dcclab
Spectrometer: QEP03738
Trigger mode: 4
Integration Time (sec): 1.000000E1
Scans to average: 1
Electric dark correction enabled: true
Nonlinearity correction enabled: false
Boxcar width: 0
XAxis mode: Wavelengths
Number of Pixels in Spectrum: 1044
>>>>>Begin Spectral Data<<<<<
784.041	10.25
784.3	-0.75
784.558	-1.75
784.817	-1.75
785.075	38390.25
785.334	8036.25
785.592	4268.25
785.851	3040.25
786.109	2350.25
786.368	1869.25
786.626	1558.25
786.884	1329.25
787.143	1137.25
787.401	926.25
787.659	878.25
787.917	764.25
788.175	730.25
788.433	654.25
788.691	604.25
788.949	581.25
789.207	575.25
789.465	493.25
789.723	494.25
789.98	450.25
790.238	502.25
790.496	479.25
790.753	448.25
791.011	506.25
791.268	447.25
791.526	448.25
791.783	459.25
792.041	450.25
792.298	368.25
792.556	430.25
792.813	433.25
793.07	409.25
793.327	401.25
793.584	484.25
793.841	404.25
794.099	435.25
794.356	481.25
794.613	398.25
794.869	428.25
795.126	392.25
795.383	376.25
795.64	398.25
795.897	354.25
796.153	421.25
796.41	398.25
796.667	390.25
796.923	385.25
797.18	382.25
797.436	431.25
797.693	379.25
797.949	441.25
798.206	466.25
798.462	384.25
798.718	438.25
798.974	409.25
799.231	465.25
799.487	457.25
799.743	462.25
799.999	492.25
800.255	470.25
800.511	469.25
800.767	515.25
801.023	503.25
801.279	530.25
801.534	578.25
801.79	627.25
802.046	644.25
802.302	787.25
802.557	914.25
802.813	1116.25
803.068	1395.25
803.324	1866.25
803.579	2556.25
803.835	3511.25
804.09	4777.25
804.345	6221.25
804.601	7833.25
804.856	9432.25
805.111	11014.25
805.366	12073.25
805.621	13011.25
805.876	13503.25
806.131	13986.25
806.386	14155.25
806.641	14494.25
806.896	14711.25
807.151	15037.25
807.406	15157.25
807.661	15567.25
807.915	15862.25
808.17	15997.25
808.425	16188.25
808.679	16386.25
808.934	16641.25
809.188	16723.25
809.443	16945.25
809.697	17147.25
809.951	17144.25
810.206	17260.25
810.46	17547.25
810.714	17711.25
810.968	17958.25
811.223	18050.25
811.477	18133.25
811.731	18264.25
811.985	18462.25
812.239	18466.25
812.493	18627.25
812.747	18664.25
813	18676.25
813.254	18845.25
813.508	18994.25
813.762	18998.25
814.015	19047.25
814.269	19153.25
814.522	19406.25
814.776	19672.25
815.03	19849.25
815.283	20274.25
815.536	20418.25
815.79	20830.25
816.043	21114.25
816.296	21354.25
816.55	21743.25
816.803	21855.25
817.056	22403.25
817.309	22364.25
817.562	22590.25
817.815	22789.25
818.068	23040.25
818.321	23258.25
818.574	23523.25
818.827	23805.25
819.079	24111.25
819.332	24555.25
819.585	24780.25
819.838	24964.25
820.09	25271.25
820.343	25481.25
820.595	25565.25
820.848	25721.25
821.1	25891.25
821.353	25919.25
821.605	25836.25
821.857	26030.25
822.11	25904.25
822.362	25618.25
822.614	25798.25
822.866	25854.25
823.118	25766.25
823.37	25799.25
823.622	25703.25
823.874	25985.25
824.126	26138.25
824.378	26228.25
824.63	26272.25
824.882	26323.25
825.134	26291.25
825.385	26287.25
825.637	26216.25
825.888	26197.25
826.14	26156.25
826.392	25900.25
826.643	25837.25
826.895	26027.25
827.146	25716.25
827.397	25818.25
827.649	25715.25
827.9	25648.25
828.151	25801.25
828.402	25890.25
828.653	25946.25
828.905	26006.25
829.156	26017.25
829.407	25906.25
829.658	26023.25
829.909	26107.25
830.159	26157.25
830.41	25834.25
830.661	25720.25
830.912	25596.25
831.162	25522.25
831.413	25480.25
831.664	25553.25
831.914	25435.25
832.165	25468.25
832.415	25421.25
832.666	25486.25
832.916	25560.25
833.167	25435.25
833.417	25401.25
833.667	25381.25
833.917	25355.25
834.168	25272.25
834.418	25166.25
834.668	24985.25
834.918	25060.25
835.168	24990.25
835.418	24832.25
835.668	24905.25
835.918	24748.25
836.167	24727.25
836.417	24652.25
836.667	24732.25
836.917	24707.25
837.166	24614.25
837.416	24700.25
837.666	24673.25
837.915	24687.25
838.165	24607.25
838.414	24432.25
838.663	24402.25
838.913	24419.25
839.162	24277.25
839.411	24492.25
839.661	24245.25
839.91	24271.25
840.159	24339.25
840.408	24228.25
840.657	24229.25
840.906	24131.25
841.155	24261.25
841.404	24317.25
841.653	24348.25
841.902	24314.25
842.15	24356.25
842.399	24380.25
842.648	24396.25
842.897	24341.25
843.145	24085.25
843.394	23922.25
843.642	23733.25
843.891	23890.25
844.139	23596.25
844.388	23544.25
844.636	23476.25
844.884	23448.25
845.133	23397.25
845.381	23385.25
845.629	23440.25
845.877	23362.25
846.125	23262.25
846.373	23337.25
846.621	23257.25
846.869	23113.25
847.117	23068.25
847.365	22893.25
847.613	22767.25
847.861	22755.25
848.108	22752.25
848.356	22753.25
848.604	22719.25
848.851	22716.25
849.099	22747.25
849.346	22725.25
849.594	22879.25
849.841	23104.25
850.089	23201.25
850.336	23175.25
850.583	23287.25
850.831	22956.25
851.078	22867.25
851.325	22867.25
851.572	22703.25
851.819	22504.25
852.066	22193.25
852.313	21996.25
852.56	21841.25
852.807	21787.25
853.054	21714.25
853.301	21732.25
853.548	21731.25
853.794	21771.25
854.041	21789.25
854.288	21773.25
854.534	22196.25
854.781	21919.25
855.028	21991.25
855.274	22110.25
855.52	21785.25
855.767	21667.25
856.013	21667.25
856.26	21830.25
856.506	21407.25
856.752	21569.25
856.998	21604.25
857.244	21616.25
857.49	21758.25
857.736	21769.25
857.982	21730.25
858.228	21741.25
858.474	21540.25
858.72	21414.25
858.966	21214.25
859.212	21008.25
859.458	20713.25
859.703	20632.25
859.949	20417.25
860.195	20271.25
860.44	20245.25
860.686	20095.25
860.931	20162.25
861.177	19984.25
861.422	19961.25
861.667	19971.25
861.913	19922.25
862.158	19966.25
862.403	20141.25
862.648	20069.25
862.893	20174.25
863.138	20089.25
863.384	20102.25
863.629	20038.25
863.873	20036.25
864.118	20021.25
864.363	19915.25
864.608	19835.25
864.853	19703.25
865.098	19547.25
865.342	19563.25
865.587	19518.25
865.832	19486.25
866.076	19499.25
866.321	19356.25
866.565	19291.25
866.81	19196.25
867.054	19163.25
867.298	19114.25
867.543	19174.25
867.787	19030.25
868.031	19046.25
868.275	18946.25
868.519	18984.25
868.764	18846.25
869.008	18755.25
869.252	18759.25
869.496	18733.25
869.739	18748.25
869.983	18555.25
870.227	18772.25
870.471	18593.25
870.715	18684.25
870.958	18810.25
871.202	18750.25
871.446	18737.25
871.689	18811.25
871.933	18820.25
872.176	18715.25
872.42	18808.25
872.663	18742.25
872.906	18777.25
873.15	18517.25
873.393	18496.25
873.636	18404.25
873.879	18277.25
874.122	18142.25
874.366	17862.25
874.609	17744.25
874.852	17683.25
875.095	17631.25
875.337	17422.25
875.58	17358.25
875.823	17428.25
876.066	17311.25
876.309	17348.25
876.551	17156.25
876.794	17174.25
877.037	17052.25
877.279	16988.25
877.522	17117.25
877.764	17049.25
878.007	17078.25
878.249	17088.25
878.491	17074.25
878.734	17001.25
878.976	17033.25
879.218	16927.25
879.46	16904.25
879.702	16661.25
879.945	16588.25
880.187	16467.25
880.429	16429.25
880.671	16277.25
880.912	16276.25
881.154	16176.25
881.396	16141.25
881.638	16234.25
881.88	16110.25
882.121	16134.25
882.363	16040.25
882.605	16128.25
882.846	15975.25
883.088	15938.25
883.329	15898.25
883.571	15893.25
883.812	15858.25
884.053	16128.25
884.295	16164.25
884.536	16376.25
884.777	16320.25
885.018	16267.25
885.259	16149.25
885.5	16057.25
885.742	16215.25
885.982	16122.25
886.223	15962.25
886.464	15909.25
886.705	15706.25
886.946	15515.25
887.187	15452.25
887.428	15398.25
887.668	15093.25
887.909	15000.25
888.15	14822.25
888.39	14860.25
888.631	14863.25
888.871	14657.25
889.111	14530.25
889.352	14526.25
889.592	14347.25
889.833	14302.25
890.073	14207.25
890.313	14222.25
890.553	14092.25
890.793	13968.25
891.033	13913.25
891.273	13765.25
891.513	13663.25
891.753	13776.25
891.993	13642.25
892.233	13620.25
892.473	13811.25
892.713	13724.25
892.952	13652.25
893.192	13757.25
893.432	13678.25
893.671	13716.25
893.911	13547.25
894.15	13534.25
894.39	13423.25
894.629	13436.25
894.869	13298.25
895.108	13299.25
895.347	13170.25
895.587	13213.25
895.826	13093.25
896.065	13099.25
896.304	13200.25
896.543	13123.25
896.782	13039.25
897.021	13062.25
897.26	12813.25
897.499	12945.25
897.738	12920.25
897.977	12792.25
898.216	12734.25
898.454	12627.25
898.693	12594.25
898.932	12563.25
899.17	12387.25
899.409	12430.25
899.647	12380.25
899.886	12376.25
900.124	12476.25
900.363	12381.25
900.601	12467.25
900.839	12508.25
901.078	12425.25
901.316	12499.25
901.554	12521.25
901.792	12490.25
902.03	12418.25
902.268	12406.25
902.506	12413.25
902.744	12235.25
902.982	12203.25
903.22	12057.25
903.458	11904.25
903.695	11852.25
903.933	11699.25
904.171	11504.25
904.409	11272.25
904.646	11237.25
904.884	11112.25
905.121	11051.25
905.359	10823.25
905.596	10796.25
905.833	10701.25
906.071	10670.25
906.308	10714.25
906.545	10590.25
906.783	10630.25
907.02	10559.25
907.257	10543.25
907.494	10473.25
907.731	10488.25
907.968	10375.25
908.205	10333.25
908.442	10249.25
908.679	10214.25
908.915	10083.25
909.152	10068.25
909.389	9874.25
909.626	9938.25
909.862	9898.25
910.099	9793.25
910.335	9879.25
910.572	9683.25
910.808	9766.25
911.045	9682.25
911.281	9596.25
911.518	9728.25
911.754	9548.25
911.99	9540.25
912.226	9430.25
912.463	9358.25
912.699	9300.25
912.935	9307.25
913.171	9219.25
913.407	9132.25
913.643	9184.25
913.879	9018.25
914.114	8949.25
914.35	8819.25
914.586	8750.25
914.822	8585.25
915.057	8653.25
915.293	8504.25
915.529	8534.25
915.764	8552.25
916	8542.25
916.235	8535.25
916.471	8546.25
916.706	8383.25
916.941	8419.25
917.177	8384.25
917.412	8431.25
917.647	8437.25
917.882	8270.25
918.117	8369.25
918.352	8339.25
918.588	8321.25
918.823	8179.25
919.057	8119.25
919.292	7951.25
919.527	8033.25
919.762	7943.25
919.997	7946.25
920.232	7807.25
920.466	7729.25
920.701	7584.25
920.935	7605.25
921.17	7541.25
921.405	7460.25
921.639	7549.25
921.873	7457.25
922.108	7390.25
922.342	7457.25
922.576	7345.25
922.811	7322.25
923.045	7361.25
923.279	7314.25
923.513	7154.25
923.747	7268.25
923.981	7195.25
924.215	7068.25
924.449	7128.25
924.683	7052.25
924.917	6967.25
925.151	6949.25
925.385	7004.25
925.618	6974.25
925.852	6931.25
926.086	6872.25
926.319	6892.25
926.553	6873.25
926.786	6889.25
927.02	6880.25
927.253	6805.25
927.486	6831.25
927.72	6732.25
927.953	6798.25
928.186	6768.25
928.42	6761.25
928.653	6621.25
928.886	6658.25
929.119	6659.25
929.352	6611.25
929.585	6576.25
929.818	6521.25
930.051	6431.25
930.284	6442.25
930.516	6336.25
930.749	6313.25
930.982	6342.25
931.215	6324.25
931.447	6229.25
931.68	6229.25
931.912	6143.25
932.145	6228.25
932.377	6174.25
932.61	6299.25
932.842	6088.25
933.074	6195.25
933.307	6165.25
933.539	6265.25
933.771	6226.25
934.003	6095.25
934.236	6180.25
934.468	6236.25
934.7	6107.25
934.932	6153.25
935.164	6064.25
935.395	6054.25
935.627	6093.25
935.859	6083.25
936.091	6013.25
936.323	6046.25
936.554	6051.25
936.786	5994.25
937.017	5902.25
937.249	5929.25
937.481	5828.25
937.712	5932.25
937.943	5834.25
938.175	5829.25
938.406	5869.25
938.637	5901.25
938.869	5717.25
939.1	5870.25
939.331	5784.25
939.562	5783.25
939.793	5702.25
940.024	5710.25
940.255	5755.25
940.486	5654.25
940.717	5672.25
940.948	5655.25
941.179	5528.25
941.409	5530.25
941.64	5484.25
941.871	5561.25
942.102	5499.25
942.332	5555.25
942.563	5583.25
942.793	5506.25
943.024	5508.25
943.254	5500.25
943.484	5554.25
943.715	5622.25
943.945	5527.25
944.175	5465.25
944.405	5432.25
944.636	5408.25
944.866	5527.25
945.096	5413.25
945.326	5378.25
945.556	5410.25
945.786	5468.25
946.016	5349.25
946.245	5279.25
946.475	5296.25
946.705	5221.25
946.935	5252.25
947.164	5265.25
947.394	5137.25
947.624	5159.25
947.853	5131.25
948.083	5166.25
948.312	5059.25
948.542	5017.25
948.771	4991.25
949	5008.25
949.23	5041.25
949.459	5010.25
949.688	5082.25
949.917	4971.25
950.146	5004.25
950.375	5015.25
950.604	4907.25
950.833	4992.25
951.062	4979.25
951.291	4894.25
951.52	4885.25
951.749	4896.25
951.978	4847.25
952.206	4885.25
952.435	4831.25
952.664	4818.25
952.892	4821.25
953.121	4797.25
953.349	4803.25
953.578	4782.25
953.806	4760.25
954.035	4675.25
954.263	4702.25
954.491	4632.25
954.719	4700.25
954.948	4637.25
955.176	4567.25
955.404	4489.25
955.632	4576.25
955.86	4572.25
956.088	4479.25
956.316	4489.25
956.544	4516.25
956.772	4457.25
956.999	4391.25
957.227	4508.25
957.455	4342.25
957.683	4379.25
957.91	4324.25
958.138	4321.25
958.365	4316.25
958.593	4264.25
958.82	4224.25
959.048	4265.25
959.275	4203.25
959.502	4198.25
959.73	4199.25
959.957	4208.25
960.184	4221.25
960.411	4116.25
960.638	4227.25
960.865	4147.25
961.092	4214.25
961.319	4069.25
961.546	4198.25
961.773	4139.25
962	4103.25
962.227	4127.25
962.454	4093.25
962.68	4077.25
962.907	4093.25
963.134	3998.25
963.36	4042.25
963.587	4060.25
963.813	3929.25
964.04	3931.25
964.266	3860.25
964.493	3969.25
964.719	3973.25
964.945	3914.25
965.171	3779.25
965.398	3834.25
965.624	3877.25
965.85	3786.25
966.076	3710.25
966.302	3742.25
966.528	3768.25
966.754	3745.25
966.98	3728.25
967.206	3735.25
967.431	3674.25
967.657	3704.25
967.883	3694.25
968.109	3708.25
968.334	3674.25
968.56	3617.25
968.785	3623.25
969.011	3572.25
969.236	3645.25
969.462	3549.25
969.687	3511.25
969.912	3572.25
970.138	3552.25
970.363	3512.25
970.588	3537.25
970.813	3501.25
971.038	3445.25
971.263	3484.25
971.488	3464.25
971.713	3518.25
971.938	3445.25
972.163	3333.25
972.388	3372.25
972.613	3364.25
972.838	3394.25
973.062	3329.25
973.287	3342.25
973.512	3269.25
973.736	3310.25
973.961	3293.25
974.185	3239.25
974.41	3282.25
974.634	3167.25
974.858	3215.25
975.083	3190.25
975.307	3216.25
975.531	3130.25
975.755	3068.25
975.98	3056.25
976.204	3000.25
976.428	3023.25
976.652	2998.25
976.876	2975.25
977.1	3000.25
977.324	2966.25
977.547	2975.25
977.771	2980.25
977.995	2981.25
978.219	2896.25
978.442	2996.25
978.666	2935.25
978.89	2965.25
979.113	2942.25
979.337	2890.25
979.56	2874.25
979.783	2945.25
980.007	2817.25
980.23	2859.25
980.453	2822.25
980.677	2888.25
980.9	2859.25
981.123	2720.25
981.346	2816.25
981.569	2794.25
981.792	2807.25
982.015	2750.25
982.238	2746.25
982.461	2745.25
982.684	2705.25
982.907	2652.25
983.129	2607.25
983.352	2673.25
983.575	2682.25
983.797	2646.25
984.02	2633.25
984.242	2601.25
984.465	2581.25
984.687	2634.25
984.91	2625.25
985.132	2589.25
985.354	2619.25
985.577	2559.25
985.799	2571.25
986.021	2508.25
986.243	2454.25
986.465	2483.25
986.687	2539.25
986.909	2598.25
987.131	2513.25
987.353	2455.25
987.575	2501.25
987.797	2428.25
988.019	2390.25
988.241	2414.25
988.462	2403.25
988.684	2468.25
988.906	2438.25
989.127	2517.25
989.349	2355.25
989.57	2394.25
989.792	2441.25
990.013	2422.25
990.234	2394.25
990.456	2419.25
990.677	2411.25
990.898	2331.25
991.119	2327.25
991.341	2387.25
991.562	2321.25
991.783	2310.25
992.004	2240.25
992.225	2239.25
992.446	2267.25
992.667	2192.25
992.887	2258.25
993.108	2145.25
993.329	2268.25
993.55	2209.25
993.77	2160.25
993.991	2169.25
994.212	2154.25
994.432	2154.25
994.653	2165.25
994.873	2138.25
995.093	2026.25
995.314	2077.25
995.534	2121.25
995.754	2182.25
995.975	2141.25
996.195	2030.25
996.415	2146.25
996.635	2077.25
996.855	2104.25
997.075	2064.25
997.295	2037.25
997.515	2027.25
997.735	2076.25
997.955	2056.25
998.174	2029.25
998.394	2026.25
998.614	2049.25
998.834	2018.25
999.053	2064.25
999.273	2054.25
999.492	2081.25
999.712	1975.25
999.931	2011.25
1000.151	1996.25
1000.37	1977.25
1000.589	2004.25
1000.809	1957.25
1001.028	2050.25
1001.247	1987.25
1001.466	1893.25
1001.685	1983.25
1001.904	1913.25
1002.123	1902.25
1002.342	1903.25
1002.561	1875.25
1002.78	1894.25
1002.999	1922.25
1003.218	1862.25
1003.436	1835.25
1003.655	1904.25
1003.874	1843.25
1004.092	1860.25
1004.311	1892.25
1004.53	1866.25
1004.748	1920.25
1004.966	1842.25
1005.185	1889.25
1005.403	1875.25
1005.622	1840.25
1005.84	1913.25
1006.058	1816.25
1006.276	1849.25
1006.494	2323.25
1006.712	1832.25
1006.931	1889.25
1007.149	1803.25
1007.367	1787.25
1007.584	1846.25
1007.802	1868.25
1008.02	1786.25
1008.238	1906.25
1008.456	1881.25
1008.673	1756.25
1008.891	1837.25
1009.109	1803.25
1009.326	1869.25
1009.544	1958.25
1009.761	1836.25
1009.979	1947.25
1010.196	1934.25
1010.413	2027.25
1010.631	2075.25
1010.848	2102.25
1011.065	2110.25
1011.282	2037.25
1011.5	1938.25
1011.717	2090.25
1011.934	2008.25
1012.151	2032.25
1012.368	1986.25
1012.585	1996.25
1012.801	2050.25
1013.018	1996.25
1013.235	1933.25
1013.452	1952.25
1013.669	1980.25
1013.885	1964.25
1014.102	2004.25
1014.318	1953.25
1014.535	1928.25
1014.751	1945.25
1014.968	1955.25
1015.184	1950.25
1015.401	1845.25
1015.617	1915.25
1015.833	1822.25
1016.049	1814.25
1016.266	1831.25
1016.482	1808.25
1016.698	1694.25
1016.914	1790.25
1017.13	1747.25
1017.346	1701.25
1017.562	1771.25
1017.778	1722.25
1017.993	1678.25
1018.209	1727.25
1018.425	1709.25
1018.641	1666.25
1018.856	1666.25
1019.072	1666.25
1019.288	1708.25
1019.503	1659.25
1019.719	1592.25
1019.934	1599.25
1020.149	1669.25
1020.365	1613.25
1020.58	1544.25
1020.795	1595.25
1021.011	1515.25
1021.226	1524.25
1021.441	1524.25
1021.656	1456.25
1021.871	1391.25
1022.086	1382.25
1022.301	1371.25
1022.516	1341.25
1022.731	1418.25
1022.946	1320.25
1023.16	1317.25
1023.375	1271.25
1023.59	1262.25
1023.804	1223.25
1024.019	1326.25
1024.234	1191.25
1024.448	1228.25
1024.663	1154.25
1024.877	1168.25
1025.092	1188.25
1025.306	1199.25
1025.52	1080.25
1025.734	1181.25
1025.949	1078.25
1026.163	1040.25
1026.377	960.25
1026.591	1049.25
1026.805	970.25
1027.019	959.25
1027.233	920.25
1027.447	862.25
1027.661	975.25
1027.875	917.25
1028.088	909.25
1028.302	840.25
1028.516	825.25
1028.73	814.25
1028.943	784.25
1029.157	739.25
1029.37	692.25
1029.584	-1.75
1029.797	-1.75
1030.011	-2.75
1030.224	0.25
