Data from QEP037381__14__11-23-15-593.txt Node

Date: Wed Dec 21 11:23:15 EST 2022
User: dcclab
Spectrometer: QEP03738
Trigger mode: 4
Integration Time (sec): 1.000000E1
Scans to average: 1
Electric dark correction enabled: true
Nonlinearity correction enabled: false
Boxcar width: 0
XAxis mode: Wavelengths
Number of Pixels in Spectrum: 1044
>>>>>Begin Spectral Data<<<<<
784.041	12.5
784.3	-3.5
784.558	-1.5
784.817	-0.5
785.075	41343.5
785.334	8219.5
785.592	4311.5
785.851	3069.5
786.109	2347.5
786.368	1876.5
786.626	1550.5
786.884	1324.5
787.143	1099.5
787.401	921.5
787.659	891.5
787.917	761.5
788.175	735.5
788.433	639.5
788.691	594.5
788.949	580.5
789.207	552.5
789.465	505.5
789.723	475.5
789.98	440.5
790.238	504.5
790.496	456.5
790.753	442.5
791.011	502.5
791.268	453.5
791.526	429.5
791.783	447.5
792.041	429.5
792.298	369.5
792.556	434.5
792.813	413.5
793.07	403.5
793.327	388.5
793.584	479.5
793.841	384.5
794.099	418.5
794.356	479.5
794.613	373.5
794.869	422.5
795.126	373.5
795.383	369.5
795.64	388.5
795.897	343.5
796.153	397.5
796.41	392.5
796.667	367.5
796.923	372.5
797.18	376.5
797.436	417.5
797.693	377.5
797.949	415.5
798.206	452.5
798.462	369.5
798.718	415.5
798.974	388.5
799.231	432.5
799.487	441.5
799.743	441.5
799.999	458.5
800.255	443.5
800.511	435.5
800.767	493.5
801.023	446.5
801.279	486.5
801.534	506.5
801.79	552.5
802.046	561.5
802.302	644.5
802.557	733.5
802.813	898.5
803.068	1063.5
803.324	1437.5
803.579	1904.5
803.835	2653.5
804.09	3585.5
804.345	4649.5
804.601	5801.5
804.856	7030.5
805.111	8093.5
805.366	8927.5
805.621	9569.5
805.876	10078.5
806.131	10348.5
806.386	10538.5
806.641	10714.5
806.896	10927.5
807.151	11115.5
807.406	11328.5
807.661	11473.5
807.915	11771.5
808.17	11938.5
808.425	12091.5
808.679	12093.5
808.934	12273.5
809.188	12412.5
809.443	12553.5
809.697	12719.5
809.951	12777.5
810.206	12812.5
810.46	12979.5
810.714	13115.5
810.968	13244.5
811.223	13339.5
811.477	13362.5
811.731	13583.5
811.985	13608.5
812.239	13621.5
812.493	13628.5
812.747	13870.5
813	13820.5
813.254	13844.5
813.508	13947.5
813.762	13983.5
814.015	14021.5
814.269	14198.5
814.522	14313.5
814.776	14427.5
815.03	14624.5
815.283	14811.5
815.536	15007.5
815.79	15233.5
816.043	15510.5
816.296	15774.5
816.55	15923.5
816.803	16184.5
817.056	16262.5
817.309	16449.5
817.562	16656.5
817.815	16920.5
818.068	16850.5
818.321	17119.5
818.574	17349.5
818.827	17548.5
819.079	17654.5
819.332	18137.5
819.585	18197.5
819.838	18462.5
820.09	18558.5
820.343	18721.5
820.595	18684.5
820.848	18878.5
821.1	18882.5
821.353	18938.5
821.605	18966.5
821.857	18960.5
822.11	18863.5
822.362	18668.5
822.614	18752.5
822.866	18717.5
823.118	18779.5
823.37	18833.5
823.622	18879.5
823.874	18904.5
824.126	18859.5
824.378	18900.5
824.63	18999.5
824.882	19061.5
825.134	18970.5
825.385	19108.5
825.637	18901.5
825.888	18863.5
826.14	18896.5
826.392	18742.5
826.643	18687.5
826.895	18637.5
827.146	18665.5
827.397	18523.5
827.649	18611.5
827.9	18573.5
828.151	18578.5
828.402	18575.5
828.653	18654.5
828.905	18713.5
829.156	18711.5
829.407	18750.5
829.658	18716.5
829.909	18719.5
830.159	18828.5
830.41	18616.5
830.661	18484.5
830.912	18372.5
831.162	18251.5
831.413	18287.5
831.664	18303.5
831.914	18302.5
832.165	18216.5
832.415	18169.5
832.666	18157.5
832.916	18189.5
833.167	18240.5
833.417	18311.5
833.667	18121.5
833.917	18083.5
834.168	18039.5
834.418	18095.5
834.668	17926.5
834.918	17824.5
835.168	17812.5
835.418	17632.5
835.668	17701.5
835.918	17672.5
836.167	17623.5
836.417	17419.5
836.667	17496.5
836.917	17394.5
837.166	17486.5
837.416	17565.5
837.666	17548.5
837.915	17498.5
838.165	17361.5
838.414	17364.5
838.663	17152.5
838.913	17292.5
839.162	17257.5
839.411	17335.5
839.661	17242.5
839.91	17143.5
840.159	16992.5
840.408	17134.5
840.657	17173.5
840.906	17078.5
841.155	17130.5
841.404	17065.5
841.653	17215.5
841.902	17150.5
842.15	17053.5
842.399	17153.5
842.648	17169.5
842.897	17052.5
843.145	17002.5
843.394	16788.5
843.642	16595.5
843.891	16570.5
844.139	16506.5
844.388	16320.5
844.636	16346.5
844.884	16373.5
845.133	16339.5
845.381	16354.5
845.629	16232.5
845.877	16329.5
846.125	16218.5
846.373	16250.5
846.621	16176.5
846.869	16163.5
847.117	16018.5
847.365	15993.5
847.613	15901.5
847.861	15784.5
848.108	15907.5
848.356	15761.5
848.604	15774.5
848.851	15783.5
849.099	15842.5
849.346	15825.5
849.594	15908.5
849.841	15974.5
850.089	16034.5
850.336	16069.5
850.583	16175.5
850.831	16047.5
851.078	16019.5
851.325	15807.5
851.572	15772.5
851.819	15632.5
852.066	15402.5
852.313	15114.5
852.56	15045.5
852.807	14882.5
853.054	14893.5
853.301	14861.5
853.548	14841.5
853.794	14968.5
854.041	15062.5
854.288	15069.5
854.534	15279.5
854.781	15121.5
855.028	15099.5
855.274	15171.5
855.52	15044.5
855.767	14937.5
856.013	15021.5
856.26	15184.5
856.506	14829.5
856.752	14816.5
856.998	14854.5
857.244	14816.5
857.49	14853.5
857.736	14902.5
857.982	14920.5
858.228	14920.5
858.474	14825.5
858.72	14630.5
858.966	14523.5
859.212	14438.5
859.458	14188.5
859.703	14078.5
859.949	13873.5
860.195	13929.5
860.44	13855.5
860.686	13773.5
860.931	13713.5
861.177	13641.5
861.422	13664.5
861.667	13488.5
861.913	13479.5
862.158	13528.5
862.403	13601.5
862.648	13782.5
862.893	13694.5
863.138	13591.5
863.384	13565.5
863.629	13537.5
863.873	13551.5
864.118	13499.5
864.363	13430.5
864.608	13372.5
864.853	13321.5
865.098	13226.5
865.342	13176.5
865.587	13186.5
865.832	13183.5
866.076	13053.5
866.321	13069.5
866.565	13038.5
866.81	12876.5
867.054	12912.5
867.298	12839.5
867.543	12857.5
867.787	12847.5
868.031	12809.5
868.275	12811.5
868.519	12722.5
868.764	12803.5
869.008	12665.5
869.252	12810.5
869.496	12677.5
869.739	12601.5
869.983	12576.5
870.227	12605.5
870.471	12678.5
870.715	12650.5
870.958	12673.5
871.202	12751.5
871.446	12629.5
871.689	12664.5
871.933	12629.5
872.176	12580.5
872.42	12575.5
872.663	12638.5
872.906	12647.5
873.15	12569.5
873.393	12572.5
873.636	12558.5
873.879	12391.5
874.122	12263.5
874.366	12027.5
874.609	12049.5
874.852	11864.5
875.095	11796.5
875.337	11779.5
875.58	11663.5
875.823	11592.5
876.066	11683.5
876.309	11634.5
876.551	11487.5
876.794	11436.5
877.037	11495.5
877.279	11464.5
877.522	11362.5
877.764	11421.5
878.007	11433.5
878.249	11384.5
878.491	11340.5
878.734	11344.5
878.976	11257.5
879.218	11161.5
879.46	11149.5
879.702	11062.5
879.945	11057.5
880.187	10876.5
880.429	10811.5
880.671	10866.5
880.912	10740.5
881.154	10738.5
881.396	10648.5
881.638	10633.5
881.88	10662.5
882.121	10668.5
882.363	10559.5
882.605	10639.5
882.846	10632.5
883.088	10601.5
883.329	10543.5
883.571	10599.5
883.812	10709.5
884.053	10880.5
884.295	11083.5
884.536	11175.5
884.777	11039.5
885.018	10962.5
885.259	10879.5
885.5	10826.5
885.742	11025.5
885.982	10828.5
886.223	10670.5
886.464	10539.5
886.705	10541.5
886.946	10456.5
887.187	10300.5
887.428	10205.5
887.668	10028.5
887.909	9952.5
888.15	9835.5
888.39	9787.5
888.631	9767.5
888.871	9676.5
889.111	9555.5
889.352	9526.5
889.592	9356.5
889.833	9355.5
890.073	9263.5
890.313	9302.5
890.553	9147.5
890.793	9149.5
891.033	9094.5
891.273	8996.5
891.513	9058.5
891.753	8983.5
891.993	9041.5
892.233	9045.5
892.473	9104.5
892.713	9045.5
892.952	9019.5
893.192	9020.5
893.432	8965.5
893.671	8999.5
893.911	8958.5
894.15	8859.5
894.39	8744.5
894.629	8708.5
894.869	8803.5
895.108	8691.5
895.347	8680.5
895.587	8681.5
895.826	8568.5
896.065	8588.5
896.304	8581.5
896.543	8662.5
896.782	8489.5
897.021	8572.5
897.26	8460.5
897.499	8560.5
897.738	8476.5
897.977	8431.5
898.216	8405.5
898.454	8333.5
898.693	8246.5
898.932	8270.5
899.17	8144.5
899.409	8192.5
899.647	8151.5
899.886	8159.5
900.124	8146.5
900.363	8108.5
900.601	8158.5
900.839	8196.5
901.078	8195.5
901.316	8286.5
901.554	8322.5
901.792	8353.5
902.03	8206.5
902.268	8222.5
902.506	8313.5
902.744	8153.5
902.982	8130.5
903.22	7988.5
903.458	7888.5
903.695	7787.5
903.933	7718.5
904.171	7524.5
904.409	7445.5
904.646	7402.5
904.884	7245.5
905.121	7269.5
905.359	7112.5
905.596	7084.5
905.833	6915.5
906.071	6986.5
906.308	6955.5
906.545	6972.5
906.783	6814.5
907.02	6870.5
907.257	6782.5
907.494	6798.5
907.731	6773.5
907.968	6717.5
908.205	6687.5
908.442	6650.5
908.679	6662.5
908.915	6539.5
909.152	6489.5
909.389	6453.5
909.626	6408.5
909.862	6367.5
910.099	6347.5
910.335	6357.5
910.572	6238.5
910.808	6282.5
911.045	6302.5
911.281	6240.5
911.518	6232.5
911.754	6124.5
911.99	6176.5
912.226	6101.5
912.463	6005.5
912.699	5959.5
912.935	5942.5
913.171	5935.5
913.407	5826.5
913.643	5846.5
913.879	5734.5
914.114	5697.5
914.35	5639.5
914.586	5612.5
914.822	5548.5
915.057	5611.5
915.293	5458.5
915.529	5369.5
915.764	5506.5
916	5505.5
916.235	5492.5
916.471	5472.5
916.706	5359.5
916.941	5372.5
917.177	5364.5
917.412	5406.5
917.647	5430.5
917.882	5335.5
918.117	5359.5
918.352	5347.5
918.588	5371.5
918.823	5278.5
919.057	5216.5
919.292	5049.5
919.527	5163.5
919.762	5027.5
919.997	5061.5
920.232	4929.5
920.466	4968.5
920.701	4841.5
920.935	4877.5
921.17	4873.5
921.405	4773.5
921.639	4837.5
921.873	4773.5
922.108	4815.5
922.342	4727.5
922.576	4731.5
922.811	4725.5
923.045	4756.5
923.279	4705.5
923.513	4567.5
923.747	4687.5
923.981	4631.5
924.215	4519.5
924.449	4547.5
924.683	4433.5
924.917	4436.5
925.151	4468.5
925.385	4490.5
925.618	4420.5
925.852	4490.5
926.086	4416.5
926.319	4412.5
926.553	4332.5
926.786	4463.5
927.02	4353.5
927.253	4398.5
927.486	4427.5
927.72	4327.5
927.953	4413.5
928.186	4330.5
928.42	4364.5
928.653	4291.5
928.886	4262.5
929.119	4226.5
929.352	4235.5
929.585	4225.5
929.818	4155.5
930.051	4171.5
930.284	4152.5
930.516	4051.5
930.749	4069.5
930.982	4086.5
931.215	4076.5
931.447	4006.5
931.68	3993.5
931.912	3995.5
932.145	3937.5
932.377	4027.5
932.61	4097.5
932.842	3902.5
933.074	3989.5
933.307	3946.5
933.539	4030.5
933.771	3972.5
934.003	3919.5
934.236	4028.5
934.468	3982.5
934.7	3914.5
934.932	3955.5
935.164	3891.5
935.395	3886.5
935.627	3924.5
935.859	3875.5
936.091	3809.5
936.323	3881.5
936.554	3917.5
936.786	3801.5
937.017	3769.5
937.249	3831.5
937.481	3739.5
937.712	3804.5
937.943	3785.5
938.175	3764.5
938.406	3766.5
938.637	3807.5
938.869	3663.5
939.1	3746.5
939.331	3701.5
939.562	3708.5
939.793	3714.5
940.024	3687.5
940.255	3707.5
940.486	3660.5
940.717	3640.5
940.948	3592.5
941.179	3538.5
941.409	3548.5
941.64	3563.5
941.871	3579.5
942.102	3576.5
942.332	3554.5
942.563	3592.5
942.793	3590.5
943.024	3498.5
943.254	3541.5
943.484	3620.5
943.715	3610.5
943.945	3584.5
944.175	3475.5
944.405	3479.5
944.636	3511.5
944.866	3533.5
945.096	3526.5
945.326	3484.5
945.556	3500.5
945.786	3469.5
946.016	3466.5
946.245	3346.5
946.475	3416.5
946.705	3377.5
946.935	3367.5
947.164	3370.5
947.394	3303.5
947.624	3291.5
947.853	3305.5
948.083	3294.5
948.312	3222.5
948.542	3219.5
948.771	3220.5
949	3195.5
949.23	3256.5
949.459	3211.5
949.688	3252.5
949.917	3238.5
950.146	3219.5
950.375	3268.5
950.604	3174.5
950.833	3263.5
951.062	3244.5
951.291	3168.5
951.52	3119.5
951.749	3155.5
951.978	3105.5
952.206	3125.5
952.435	3117.5
952.664	3129.5
952.892	3130.5
953.121	3125.5
953.349	3122.5
953.578	3117.5
953.806	3114.5
954.035	3012.5
954.263	3065.5
954.491	2959.5
954.719	3058.5
954.948	2981.5
955.176	2992.5
955.404	2908.5
955.632	2942.5
955.86	2972.5
956.088	2935.5
956.316	2946.5
956.544	2960.5
956.772	2902.5
956.999	2827.5
957.227	2959.5
957.455	2829.5
957.683	2844.5
957.91	2795.5
958.138	2785.5
958.365	2813.5
958.593	2768.5
958.82	2746.5
959.048	2772.5
959.275	2754.5
959.502	2727.5
959.73	2703.5
959.957	2741.5
960.184	2739.5
960.411	2682.5
960.638	2757.5
960.865	2697.5
961.092	2738.5
961.319	2650.5
961.546	2736.5
961.773	2758.5
962	2689.5
962.227	2726.5
962.454	2690.5
962.68	2647.5
962.907	2683.5
963.134	2622.5
963.36	2675.5
963.587	2667.5
963.813	2618.5
964.04	2607.5
964.266	2548.5
964.493	2654.5
964.719	2582.5
964.945	2597.5
965.171	2478.5
965.398	2554.5
965.624	2544.5
965.85	2461.5
966.076	2523.5
966.302	2535.5
966.528	2473.5
966.754	2504.5
966.98	2502.5
967.206	2488.5
967.431	2400.5
967.657	2497.5
967.883	2488.5
968.109	2454.5
968.334	2401.5
968.56	2364.5
968.785	2400.5
969.011	2352.5
969.236	2452.5
969.462	2351.5
969.687	2352.5
969.912	2412.5
970.138	2418.5
970.363	2346.5
970.588	2359.5
970.813	2330.5
971.038	2316.5
971.263	2304.5
971.488	2287.5
971.713	2367.5
971.938	2336.5
972.163	2207.5
972.388	2231.5
972.613	2228.5
972.838	2258.5
973.062	2251.5
973.287	2239.5
973.512	2161.5
973.736	2208.5
973.961	2209.5
974.185	2171.5
974.41	2190.5
974.634	2156.5
974.858	2116.5
975.083	2141.5
975.307	2165.5
975.531	2120.5
975.755	2039.5
975.98	2080.5
976.204	2013.5
976.428	2015.5
976.652	2031.5
976.876	1974.5
977.1	2049.5
977.324	1990.5
977.547	2079.5
977.771	2061.5
977.995	2000.5
978.219	1966.5
978.442	2061.5
978.666	1999.5
978.89	2002.5
979.113	1994.5
979.337	2018.5
979.56	1950.5
979.783	2036.5
980.007	1916.5
980.23	1933.5
980.453	1896.5
980.677	1936.5
980.9	1959.5
981.123	1842.5
981.346	1943.5
981.569	1898.5
981.792	1946.5
982.015	1883.5
982.238	1863.5
982.461	1836.5
982.684	1839.5
982.907	1810.5
983.129	1794.5
983.352	1869.5
983.575	1821.5
983.797	1836.5
984.02	1794.5
984.242	1778.5
984.465	1785.5
984.687	1812.5
984.91	1849.5
985.132	1818.5
985.354	1829.5
985.577	1817.5
985.799	1773.5
986.021	1685.5
986.243	1747.5
986.465	1743.5
986.687	1771.5
986.909	1806.5
987.131	1739.5
987.353	1698.5
987.575	1751.5
987.797	1712.5
988.019	1633.5
988.241	1735.5
988.462	1664.5
988.684	1710.5
988.906	1759.5
989.127	1754.5
989.349	1644.5
989.57	1692.5
989.792	1718.5
990.013	1708.5
990.234	1715.5
990.456	1763.5
990.677	1746.5
990.898	1662.5
991.119	1668.5
991.341	1714.5
991.562	1610.5
991.783	1659.5
992.004	1581.5
992.225	1587.5
992.446	1669.5
992.667	1559.5
992.887	1640.5
993.108	1540.5
993.329	1685.5
993.55	1595.5
993.77	1547.5
993.991	1529.5
994.212	1594.5
994.432	1566.5
994.653	1588.5
994.873	1570.5
995.093	1450.5
995.314	1496.5
995.534	1554.5
995.754	1595.5
995.975	1608.5
996.195	1474.5
996.415	1556.5
996.635	1502.5
996.855	1551.5
997.075	1505.5
997.295	1516.5
997.515	1497.5
997.735	1539.5
997.955	1502.5
998.174	1492.5
998.394	1486.5
998.614	1532.5
998.834	1466.5
999.053	1559.5
999.273	1503.5
999.492	1566.5
999.712	1487.5
999.931	1460.5
1000.151	1485.5
1000.37	1484.5
1000.589	1525.5
1000.809	1461.5
1001.028	1555.5
1001.247	1507.5
1001.466	1402.5
1001.685	1533.5
1001.904	1508.5
1002.123	1484.5
1002.342	1474.5
1002.561	1421.5
1002.78	1469.5
1002.999	1505.5
1003.218	1443.5
1003.436	1419.5
1003.655	1491.5
1003.874	1401.5
1004.092	1403.5
1004.311	1471.5
1004.53	1445.5
1004.748	1530.5
1004.966	1438.5
1005.185	1471.5
1005.403	1488.5
1005.622	1423.5
1005.84	1527.5
1006.058	1397.5
1006.276	1442.5
1006.494	1928.5
1006.712	1420.5
1006.931	1458.5
1007.149	1389.5
1007.367	1418.5
1007.584	1443.5
1007.802	1473.5
1008.02	1430.5
1008.238	1511.5
1008.456	1513.5
1008.673	1357.5
1008.891	1496.5
1009.109	1457.5
1009.326	1488.5
1009.544	1600.5
1009.761	1490.5
1009.979	1572.5
1010.196	1597.5
1010.413	1678.5
1010.631	1743.5
1010.848	1756.5
1011.065	1737.5
1011.282	1692.5
1011.5	1648.5
1011.717	1753.5
1011.934	1699.5
1012.151	1716.5
1012.368	1692.5
1012.585	1624.5
1012.801	1690.5
1013.018	1673.5
1013.235	1604.5
1013.452	1610.5
1013.669	1676.5
1013.885	1636.5
1014.102	1717.5
1014.318	1664.5
1014.535	1601.5
1014.751	1606.5
1014.968	1637.5
1015.184	1648.5
1015.401	1564.5
1015.617	1589.5
1015.833	1515.5
1016.049	1550.5
1016.266	1531.5
1016.482	1506.5
1016.698	1463.5
1016.914	1528.5
1017.13	1456.5
1017.346	1474.5
1017.562	1511.5
1017.778	1454.5
1017.993	1416.5
1018.209	1475.5
1018.425	1445.5
1018.641	1414.5
1018.856	1393.5
1019.072	1414.5
1019.288	1447.5
1019.503	1419.5
1019.719	1311.5
1019.934	1340.5
1020.149	1429.5
1020.365	1366.5
1020.58	1316.5
1020.795	1367.5
1021.011	1269.5
1021.226	1283.5
1021.441	1312.5
1021.656	1201.5
1021.871	1160.5
1022.086	1172.5
1022.301	1158.5
1022.516	1160.5
1022.731	1221.5
1022.946	1100.5
1023.16	1088.5
1023.375	1072.5
1023.59	1050.5
1023.804	1018.5
1024.019	1112.5
1024.234	988.5
1024.448	1007.5
1024.663	949.5
1024.877	982.5
1025.092	993.5
1025.306	999.5
1025.52	892.5
1025.734	995.5
1025.949	906.5
1026.163	891.5
1026.377	835.5
1026.591	858.5
1026.805	803.5
1027.019	798.5
1027.233	755.5
1027.447	727.5
1027.661	839.5
1027.875	765.5
1028.088	776.5
1028.302	702.5
1028.516	681.5
1028.73	687.5
1028.943	677.5
1029.157	632.5
1029.37	589.5
1029.584	-3.5
1029.797	2.5
1030.011	-1.5
1030.224	-4.5
