Data from QEP037381__110__11-39-15-598.txt Node

Date: Wed Dec 21 11:39:15 EST 2022
User: dcclab
Spectrometer: QEP03738
Trigger mode: 4
Integration Time (sec): 1.000000E1
Scans to average: 1
Electric dark correction enabled: true
Nonlinearity correction enabled: false
Boxcar width: 0
XAxis mode: Wavelengths
Number of Pixels in Spectrum: 1044
>>>>>Begin Spectral Data<<<<<
784.041	14.12
784.3	0.12
784.558	-5.88
784.817	-3.88
785.075	40116.12
785.334	8132.12
785.592	4315.12
785.851	3041.12
786.109	2369.12
786.368	1886.12
786.626	1560.12
786.884	1328.12
787.143	1108.12
787.401	931.12
787.659	871.12
787.917	758.12
788.175	734.12
788.433	647.12
788.691	601.12
788.949	552.12
789.207	547.12
789.465	457.12
789.723	474.12
789.98	437.12
790.238	493.12
790.496	459.12
790.753	440.12
791.011	494.12
791.268	435.12
791.526	434.12
791.783	444.12
792.041	421.12
792.298	347.12
792.556	426.12
792.813	413.12
793.07	406.12
793.327	385.12
793.584	458.12
793.841	378.12
794.099	408.12
794.356	469.12
794.613	361.12
794.869	403.12
795.126	368.12
795.383	355.12
795.64	376.12
795.897	331.12
796.153	399.12
796.41	362.12
796.667	354.12
796.923	381.12
797.18	360.12
797.436	415.12
797.693	370.12
797.949	407.12
798.206	433.12
798.462	343.12
798.718	411.12
798.974	375.12
799.231	417.12
799.487	400.12
799.743	413.12
799.999	441.12
800.255	423.12
800.511	417.12
800.767	438.12
801.023	420.12
801.279	445.12
801.534	468.12
801.79	488.12
802.046	509.12
802.302	608.12
802.557	636.12
802.813	766.12
803.068	866.12
803.324	1173.12
803.579	1492.12
803.835	2008.12
804.09	2713.12
804.345	3484.12
804.601	4422.12
804.856	5389.12
805.111	6154.12
805.366	6837.12
805.621	7335.12
805.876	7673.12
806.131	7881.12
806.386	8039.12
806.641	8112.12
806.896	8269.12
807.151	8455.12
807.406	8583.12
807.661	8748.12
807.915	8923.12
808.17	9087.12
808.425	9178.12
808.679	9206.12
808.934	9413.12
809.188	9370.12
809.443	9537.12
809.697	9648.12
809.951	9677.12
810.206	9808.12
810.46	9875.12
810.714	9938.12
810.968	10088.12
811.223	10073.12
811.477	10223.12
811.731	10276.12
811.985	10292.12
812.239	10360.12
812.493	10349.12
812.747	10475.12
813	10437.12
813.254	10497.12
813.508	10684.12
813.762	10635.12
814.015	10650.12
814.269	10782.12
814.522	10880.12
814.776	11016.12
815.03	11078.12
815.283	11327.12
815.536	11496.12
815.79	11622.12
816.043	11756.12
816.296	11932.12
816.55	12073.12
816.803	12209.12
817.056	12469.12
817.309	12483.12
817.562	12713.12
817.815	12786.12
818.068	12874.12
818.321	13014.12
818.574	13097.12
818.827	13332.12
819.079	13480.12
819.332	13773.12
819.585	13760.12
819.838	14069.12
820.09	14058.12
820.343	14219.12
820.595	14106.12
820.848	14249.12
821.1	14339.12
821.353	14347.12
821.605	14329.12
821.857	14333.12
822.11	14223.12
822.362	14195.12
822.614	14181.12
822.866	14241.12
823.118	14055.12
823.37	14254.12
823.622	14251.12
823.874	14338.12
824.126	14405.12
824.378	14280.12
824.63	14387.12
824.882	14459.12
825.134	14422.12
825.385	14486.12
825.637	14447.12
825.888	14246.12
826.14	14207.12
826.392	14241.12
826.643	14107.12
826.895	14150.12
827.146	14084.12
827.397	13995.12
827.649	14115.12
827.9	13945.12
828.151	13999.12
828.402	14009.12
828.653	14140.12
828.905	14110.12
829.156	14271.12
829.407	14168.12
829.658	14185.12
829.909	14272.12
830.159	14345.12
830.41	14206.12
830.661	14062.12
830.912	14012.12
831.162	13929.12
831.413	13958.12
831.664	13966.12
831.914	13906.12
832.165	13863.12
832.415	13912.12
832.666	13865.12
832.916	13883.12
833.167	13887.12
833.417	13832.12
833.667	13814.12
833.917	13787.12
834.168	13730.12
834.418	13709.12
834.668	13692.12
834.918	13532.12
835.168	13506.12
835.418	13467.12
835.668	13434.12
835.918	13431.12
836.167	13427.12
836.417	13364.12
836.667	13398.12
836.917	13401.12
837.166	13454.12
837.416	13473.12
837.666	13426.12
837.915	13379.12
838.165	13327.12
838.414	13259.12
838.663	13269.12
838.913	13337.12
839.162	13236.12
839.411	13218.12
839.661	13179.12
839.91	13140.12
840.159	13168.12
840.408	13147.12
840.657	13266.12
840.906	13169.12
841.155	13174.12
841.404	13165.12
841.653	13249.12
841.902	13235.12
842.15	13281.12
842.399	13297.12
842.648	13224.12
842.897	13174.12
843.145	13139.12
843.394	13005.12
843.642	12975.12
843.891	12905.12
844.139	12791.12
844.388	12675.12
844.636	12610.12
844.884	12608.12
845.133	12598.12
845.381	12552.12
845.629	12655.12
845.877	12564.12
846.125	12596.12
846.373	12601.12
846.621	12460.12
846.869	12506.12
847.117	12326.12
847.365	12319.12
847.613	12317.12
847.861	12306.12
848.108	12339.12
848.356	12204.12
848.604	12195.12
848.851	12177.12
849.099	12288.12
849.346	12317.12
849.594	12350.12
849.841	12470.12
850.089	12518.12
850.336	12623.12
850.583	12670.12
850.831	12701.12
851.078	12544.12
851.325	12377.12
851.572	12386.12
851.819	12206.12
852.066	11959.12
852.313	11714.12
852.56	11722.12
852.807	11636.12
853.054	11613.12
853.301	11569.12
853.548	11655.12
853.794	11730.12
854.041	11816.12
854.288	11796.12
854.534	11982.12
854.781	11896.12
855.028	11852.12
855.274	11975.12
855.52	11927.12
855.767	11824.12
856.013	11919.12
856.26	12163.12
856.506	11754.12
856.752	11702.12
856.998	11758.12
857.244	11726.12
857.49	11810.12
857.736	11909.12
857.982	11823.12
858.228	11775.12
858.474	11589.12
858.72	11503.12
858.966	11518.12
859.212	11292.12
859.458	11209.12
859.703	11105.12
859.949	11069.12
860.195	10953.12
860.44	10939.12
860.686	10859.12
860.931	10920.12
861.177	10890.12
861.422	10740.12
861.667	10704.12
861.913	10687.12
862.158	10613.12
862.403	10715.12
862.648	10780.12
862.893	10812.12
863.138	10745.12
863.384	10697.12
863.629	10712.12
863.873	10669.12
864.118	10677.12
864.363	10490.12
864.608	10529.12
864.853	10500.12
865.098	10448.12
865.342	10418.12
865.587	10327.12
865.832	10299.12
866.076	10299.12
866.321	10323.12
866.565	10310.12
866.81	10240.12
867.054	10173.12
867.298	10241.12
867.543	10164.12
867.787	10166.12
868.031	10177.12
868.275	10142.12
868.519	10197.12
868.764	10104.12
869.008	10045.12
869.252	10090.12
869.496	10069.12
869.739	10125.12
869.983	10068.12
870.227	10138.12
870.471	10041.12
870.715	10176.12
870.958	10249.12
871.202	10226.12
871.446	10252.12
871.689	10107.12
871.933	10126.12
872.176	10193.12
872.42	10233.12
872.663	10222.12
872.906	10230.12
873.15	10253.12
873.393	10134.12
873.636	10185.12
873.879	10077.12
874.122	9963.12
874.366	9805.12
874.609	9651.12
874.852	9664.12
875.095	9536.12
875.337	9455.12
875.58	9345.12
875.823	9397.12
876.066	9444.12
876.309	9401.12
876.551	9232.12
876.794	9173.12
877.037	9243.12
877.279	9130.12
877.522	9146.12
877.764	9191.12
878.007	9163.12
878.249	9160.12
878.491	9047.12
878.734	9116.12
878.976	9086.12
879.218	9003.12
879.46	8979.12
879.702	8951.12
879.945	8871.12
880.187	8724.12
880.429	8760.12
880.671	8708.12
880.912	8688.12
881.154	8569.12
881.396	8513.12
881.638	8652.12
881.88	8571.12
882.121	8588.12
882.363	8586.12
882.605	8572.12
882.846	8562.12
883.088	8610.12
883.329	8601.12
883.571	8657.12
883.812	8811.12
884.053	9023.12
884.295	9163.12
884.536	9379.12
884.777	9159.12
885.018	9116.12
885.259	9108.12
885.5	8939.12
885.742	9230.12
885.982	8923.12
886.223	8890.12
886.464	8725.12
886.705	8596.12
886.946	8568.12
887.187	8392.12
887.428	8397.12
887.668	8137.12
887.909	8039.12
888.15	7946.12
888.39	7938.12
888.631	7952.12
888.871	7754.12
889.111	7731.12
889.352	7677.12
889.592	7555.12
889.833	7576.12
890.073	7543.12
890.313	7532.12
890.553	7440.12
890.793	7410.12
891.033	7353.12
891.273	7218.12
891.513	7336.12
891.753	7377.12
891.993	7270.12
892.233	7301.12
892.473	7333.12
892.713	7354.12
892.952	7225.12
893.192	7311.12
893.432	7279.12
893.671	7319.12
893.911	7201.12
894.15	7226.12
894.39	7061.12
894.629	7138.12
894.869	7113.12
895.108	7102.12
895.347	7040.12
895.587	7016.12
895.826	7012.12
896.065	6955.12
896.304	6976.12
896.543	7059.12
896.782	6919.12
897.021	6977.12
897.26	6947.12
897.499	6974.12
897.738	6941.12
897.977	6913.12
898.216	6833.12
898.454	6746.12
898.693	6697.12
898.932	6781.12
899.17	6697.12
899.409	6718.12
899.647	6686.12
899.886	6664.12
900.124	6771.12
900.363	6667.12
900.601	6800.12
900.839	6734.12
901.078	6802.12
901.316	6796.12
901.554	6935.12
901.792	6908.12
902.03	6834.12
902.268	6895.12
902.506	6871.12
902.744	6774.12
902.982	6769.12
903.22	6629.12
903.458	6502.12
903.695	6482.12
903.933	6371.12
904.171	6240.12
904.409	6134.12
904.646	6091.12
904.884	5895.12
905.121	5863.12
905.359	5842.12
905.596	5776.12
905.833	5702.12
906.071	5668.12
906.308	5724.12
906.545	5637.12
906.783	5596.12
907.02	5617.12
907.257	5600.12
907.494	5595.12
907.731	5556.12
907.968	5576.12
908.205	5475.12
908.442	5514.12
908.679	5430.12
908.915	5372.12
909.152	5407.12
909.389	5271.12
909.626	5259.12
909.862	5251.12
910.099	5246.12
910.335	5258.12
910.572	5121.12
910.808	5145.12
911.045	5152.12
911.281	5094.12
911.518	5144.12
911.754	5026.12
911.99	5048.12
912.226	5017.12
912.463	4933.12
912.699	4946.12
912.935	4897.12
913.171	4849.12
913.407	4789.12
913.643	4809.12
913.879	4748.12
914.114	4709.12
914.35	4672.12
914.586	4620.12
914.822	4572.12
915.057	4633.12
915.293	4468.12
915.529	4487.12
915.764	4544.12
916	4492.12
916.235	4498.12
916.471	4497.12
916.706	4383.12
916.941	4423.12
917.177	4472.12
917.412	4498.12
917.647	4470.12
917.882	4403.12
918.117	4434.12
918.352	4396.12
918.588	4417.12
918.823	4322.12
919.057	4350.12
919.292	4199.12
919.527	4281.12
919.762	4190.12
919.997	4256.12
920.232	4120.12
920.466	4148.12
920.701	4031.12
920.935	4047.12
921.17	4010.12
921.405	4003.12
921.639	4055.12
921.873	3985.12
922.108	3973.12
922.342	3942.12
922.576	3903.12
922.811	3851.12
923.045	3915.12
923.279	3960.12
923.513	3824.12
923.747	3875.12
923.981	3856.12
924.215	3787.12
924.449	3798.12
924.683	3727.12
924.917	3714.12
925.151	3711.12
925.385	3791.12
925.618	3709.12
925.852	3707.12
926.086	3653.12
926.319	3651.12
926.553	3684.12
926.786	3650.12
927.02	3667.12
927.253	3690.12
927.486	3707.12
927.72	3614.12
927.953	3672.12
928.186	3632.12
928.42	3672.12
928.653	3592.12
928.886	3549.12
929.119	3574.12
929.352	3568.12
929.585	3531.12
929.818	3464.12
930.051	3471.12
930.284	3480.12
930.516	3379.12
930.749	3360.12
930.982	3448.12
931.215	3406.12
931.447	3345.12
931.68	3351.12
931.912	3297.12
932.145	3305.12
932.377	3371.12
932.61	3474.12
932.842	3292.12
933.074	3345.12
933.307	3313.12
933.539	3360.12
933.771	3393.12
934.003	3312.12
934.236	3422.12
934.468	3343.12
934.7	3319.12
934.932	3315.12
935.164	3256.12
935.395	3247.12
935.627	3263.12
935.859	3268.12
936.091	3196.12
936.323	3253.12
936.554	3288.12
936.786	3228.12
937.017	3203.12
937.249	3242.12
937.481	3171.12
937.712	3205.12
937.943	3196.12
938.175	3187.12
938.406	3167.12
938.637	3207.12
938.869	3104.12
939.1	3175.12
939.331	3158.12
939.562	3134.12
939.793	3156.12
940.024	3169.12
940.255	3135.12
940.486	3046.12
940.717	3069.12
940.948	3048.12
941.179	3031.12
941.409	3037.12
941.64	3006.12
941.871	3041.12
942.102	3014.12
942.332	3003.12
942.563	3046.12
942.793	3035.12
943.024	2959.12
943.254	2996.12
943.484	3019.12
943.715	3022.12
943.945	3006.12
944.175	2918.12
944.405	2915.12
944.636	2917.12
944.866	2983.12
945.096	2982.12
945.326	2917.12
945.556	2935.12
945.786	2954.12
946.016	2925.12
946.245	2865.12
946.475	2858.12
946.705	2870.12
946.935	2867.12
947.164	2848.12
947.394	2819.12
947.624	2828.12
947.853	2854.12
948.083	2811.12
948.312	2756.12
948.542	2729.12
948.771	2696.12
949	2760.12
949.23	2706.12
949.459	2700.12
949.688	2759.12
949.917	2725.12
950.146	2736.12
950.375	2768.12
950.604	2705.12
950.833	2762.12
951.062	2750.12
951.291	2731.12
951.52	2679.12
951.749	2680.12
951.978	2603.12
952.206	2662.12
952.435	2639.12
952.664	2696.12
952.892	2664.12
953.121	2657.12
953.349	2652.12
953.578	2657.12
953.806	2629.12
954.035	2570.12
954.263	2562.12
954.491	2519.12
954.719	2574.12
954.948	2571.12
955.176	2543.12
955.404	2467.12
955.632	2541.12
955.86	2534.12
956.088	2500.12
956.316	2519.12
956.544	2561.12
956.772	2484.12
956.999	2450.12
957.227	2513.12
957.455	2405.12
957.683	2426.12
957.91	2419.12
958.138	2380.12
958.365	2341.12
958.593	2405.12
958.82	2323.12
959.048	2402.12
959.275	2363.12
959.502	2352.12
959.73	2337.12
959.957	2367.12
960.184	2365.12
960.411	2308.12
960.638	2396.12
960.865	2294.12
961.092	2355.12
961.319	2263.12
961.546	2365.12
961.773	2344.12
962	2298.12
962.227	2344.12
962.454	2288.12
962.68	2294.12
962.907	2294.12
963.134	2247.12
963.36	2294.12
963.587	2278.12
963.813	2210.12
964.04	2250.12
964.266	2154.12
964.493	2267.12
964.719	2254.12
964.945	2220.12
965.171	2117.12
965.398	2179.12
965.624	2189.12
965.85	2148.12
966.076	2136.12
966.302	2204.12
966.528	2127.12
966.754	2146.12
966.98	2139.12
967.206	2135.12
967.431	2059.12
967.657	2174.12
967.883	2109.12
968.109	2129.12
968.334	2072.12
968.56	2037.12
968.785	2095.12
969.011	2052.12
969.236	2113.12
969.462	2024.12
969.687	2040.12
969.912	2077.12
970.138	2091.12
970.363	2001.12
970.588	2050.12
970.813	2025.12
971.038	1960.12
971.263	2011.12
971.488	2007.12
971.713	2033.12
971.938	2033.12
972.163	1905.12
972.388	1949.12
972.613	1929.12
972.838	1941.12
973.062	1933.12
973.287	1924.12
973.512	1871.12
973.736	1900.12
973.961	1876.12
974.185	1869.12
974.41	1929.12
974.634	1809.12
974.858	1831.12
975.083	1881.12
975.307	1912.12
975.531	1833.12
975.755	1783.12
975.98	1803.12
976.204	1733.12
976.428	1718.12
976.652	1765.12
976.876	1769.12
977.1	1765.12
977.324	1737.12
977.547	1796.12
977.771	1778.12
977.995	1773.12
978.219	1667.12
978.442	1801.12
978.666	1766.12
978.89	1742.12
979.113	1748.12
979.337	1719.12
979.56	1724.12
979.783	1761.12
980.007	1671.12
980.23	1686.12
980.453	1675.12
980.677	1710.12
980.9	1672.12
981.123	1608.12
981.346	1709.12
981.569	1658.12
981.792	1714.12
982.015	1669.12
982.238	1615.12
982.461	1632.12
982.684	1615.12
982.907	1586.12
983.129	1581.12
983.352	1621.12
983.575	1631.12
983.797	1604.12
984.02	1570.12
984.242	1549.12
984.465	1591.12
984.687	1588.12
984.91	1621.12
985.132	1608.12
985.354	1619.12
985.577	1592.12
985.799	1587.12
986.021	1487.12
986.243	1525.12
986.465	1531.12
986.687	1577.12
986.909	1620.12
987.131	1550.12
987.353	1521.12
987.575	1563.12
987.797	1514.12
988.019	1468.12
988.241	1500.12
988.462	1477.12
988.684	1547.12
988.906	1545.12
989.127	1605.12
989.349	1456.12
989.57	1494.12
989.792	1544.12
990.013	1531.12
990.234	1539.12
990.456	1542.12
990.677	1531.12
990.898	1472.12
991.119	1483.12
991.341	1524.12
991.562	1448.12
991.783	1504.12
992.004	1423.12
992.225	1409.12
992.446	1490.12
992.667	1374.12
992.887	1465.12
993.108	1340.12
993.329	1481.12
993.55	1438.12
993.77	1383.12
993.991	1375.12
994.212	1415.12
994.432	1412.12
994.653	1422.12
994.873	1417.12
995.093	1291.12
995.314	1361.12
995.534	1419.12
995.754	1418.12
995.975	1449.12
996.195	1339.12
996.415	1410.12
996.635	1385.12
996.855	1389.12
997.075	1395.12
997.295	1349.12
997.515	1331.12
997.735	1389.12
997.955	1373.12
998.174	1367.12
998.394	1364.12
998.614	1367.12
998.834	1310.12
999.053	1403.12
999.273	1362.12
999.492	1413.12
999.712	1358.12
999.931	1335.12
1000.151	1376.12
1000.37	1345.12
1000.589	1413.12
1000.809	1331.12
1001.028	1450.12
1001.247	1376.12
1001.466	1269.12
1001.685	1431.12
1001.904	1357.12
1002.123	1307.12
1002.342	1373.12
1002.561	1299.12
1002.78	1330.12
1002.999	1385.12
1003.218	1343.12
1003.436	1306.12
1003.655	1377.12
1003.874	1312.12
1004.092	1327.12
1004.311	1356.12
1004.53	1293.12
1004.748	1396.12
1004.966	1324.12
1005.185	1373.12
1005.403	1372.12
1005.622	1351.12
1005.84	1391.12
1006.058	1337.12
1006.276	1351.12
1006.494	1802.12
1006.712	1348.12
1006.931	1388.12
1007.149	1326.12
1007.367	1298.12
1007.584	1369.12
1007.802	1391.12
1008.02	1329.12
1008.238	1443.12
1008.456	1399.12
1008.673	1312.12
1008.891	1427.12
1009.109	1389.12
1009.326	1421.12
1009.544	1527.12
1009.761	1448.12
1009.979	1551.12
1010.196	1526.12
1010.413	1681.12
1010.631	1738.12
1010.848	1759.12
1011.065	1746.12
1011.282	1704.12
1011.5	1650.12
1011.717	1719.12
1011.934	1667.12
1012.151	1717.12
1012.368	1695.12
1012.585	1612.12
1012.801	1695.12
1013.018	1672.12
1013.235	1604.12
1013.452	1671.12
1013.669	1655.12
1013.885	1682.12
1014.102	1698.12
1014.318	1661.12
1014.535	1617.12
1014.751	1650.12
1014.968	1632.12
1015.184	1672.12
1015.401	1563.12
1015.617	1633.12
1015.833	1517.12
1016.049	1567.12
1016.266	1515.12
1016.482	1529.12
1016.698	1444.12
1016.914	1501.12
1017.13	1445.12
1017.346	1465.12
1017.562	1528.12
1017.778	1433.12
1017.993	1390.12
1018.209	1466.12
1018.425	1442.12
1018.641	1382.12
1018.856	1389.12
1019.072	1397.12
1019.288	1460.12
1019.503	1391.12
1019.719	1319.12
1019.934	1342.12
1020.149	1432.12
1020.365	1331.12
1020.58	1288.12
1020.795	1330.12
1021.011	1259.12
1021.226	1246.12
1021.441	1257.12
1021.656	1202.12
1021.871	1154.12
1022.086	1138.12
1022.301	1136.12
1022.516	1112.12
1022.731	1186.12
1022.946	1097.12
1023.16	1088.12
1023.375	1051.12
1023.59	1027.12
1023.804	992.12
1024.019	1085.12
1024.234	981.12
1024.448	1004.12
1024.663	919.12
1024.877	965.12
1025.092	969.12
1025.306	966.12
1025.52	881.12
1025.734	944.12
1025.949	869.12
1026.163	839.12
1026.377	783.12
1026.591	845.12
1026.805	784.12
1027.019	777.12
1027.233	737.12
1027.447	687.12
1027.661	803.12
1027.875	734.12
1028.088	729.12
1028.302	655.12
1028.516	654.12
1028.73	637.12
1028.943	676.12
1029.157	609.12
1029.37	564.12
1029.584	1.12
1029.797	-4.88
1030.011	1.12
1030.224	-1.88
