Data from QEP037381__44__11-28-15-594.txt Node

Date: Wed Dec 21 11:28:15 EST 2022
User: dcclab
Spectrometer: QEP03738
Trigger mode: 4
Integration Time (sec): 1.000000E1
Scans to average: 1
Electric dark correction enabled: true
Nonlinearity correction enabled: false
Boxcar width: 0
XAxis mode: Wavelengths
Number of Pixels in Spectrum: 1044
>>>>>Begin Spectral Data<<<<<
784.041	15.5
784.3	0.5
784.558	-4.5
784.817	-4.5
785.075	38141.5
785.334	7860.5
785.592	4184.5
785.851	2950.5
786.109	2279.5
786.368	1807.5
786.626	1516.5
786.884	1300.5
787.143	1100.5
787.401	922.5
787.659	870.5
787.917	764.5
788.175	719.5
788.433	644.5
788.691	589.5
788.949	548.5
789.207	545.5
789.465	478.5
789.723	473.5
789.98	433.5
790.238	479.5
790.496	466.5
790.753	451.5
791.011	495.5
791.268	447.5
791.526	443.5
791.783	463.5
792.041	437.5
792.298	354.5
792.556	423.5
792.813	419.5
793.07	393.5
793.327	387.5
793.584	469.5
793.841	379.5
794.099	417.5
794.356	468.5
794.613	376.5
794.869	418.5
795.126	381.5
795.383	372.5
795.64	377.5
795.897	346.5
796.153	404.5
796.41	403.5
796.667	381.5
796.923	383.5
797.18	395.5
797.436	403.5
797.693	367.5
797.949	416.5
798.206	447.5
798.462	367.5
798.718	410.5
798.974	400.5
799.231	435.5
799.487	441.5
799.743	448.5
799.999	463.5
800.255	447.5
800.511	436.5
800.767	469.5
801.023	486.5
801.279	487.5
801.534	526.5
801.79	562.5
802.046	557.5
802.302	676.5
802.557	781.5
802.813	929.5
803.068	1113.5
803.324	1527.5
803.579	2043.5
803.835	2761.5
804.09	3735.5
804.345	4852.5
804.601	6082.5
804.856	7301.5
805.111	8437.5
805.366	9283.5
805.621	9884.5
805.876	10406.5
806.131	10612.5
806.386	10899.5
806.641	11012.5
806.896	11296.5
807.151	11518.5
807.406	11648.5
807.661	11901.5
807.915	12051.5
808.17	12259.5
808.425	12333.5
808.679	12488.5
808.934	12699.5
809.188	12839.5
809.443	12989.5
809.697	13097.5
809.951	13111.5
810.206	13244.5
810.46	13381.5
810.714	13516.5
810.968	13627.5
811.223	13699.5
811.477	13840.5
811.731	14027.5
811.985	13951.5
812.239	13989.5
812.493	14125.5
812.747	14235.5
813	14147.5
813.254	14238.5
813.508	14435.5
813.762	14475.5
814.015	14608.5
814.269	14699.5
814.522	14812.5
814.776	14885.5
815.03	15192.5
815.283	15314.5
815.536	15607.5
815.79	15788.5
816.043	16018.5
816.296	16337.5
816.55	16491.5
816.803	16764.5
817.056	16973.5
817.309	17081.5
817.562	17198.5
817.815	17400.5
818.068	17556.5
818.321	17644.5
818.574	17820.5
818.827	18166.5
819.079	18415.5
819.332	18739.5
819.585	18916.5
819.838	19123.5
820.09	19191.5
820.343	19432.5
820.595	19459.5
820.848	19529.5
821.1	19757.5
821.353	19620.5
821.605	19607.5
821.857	19584.5
822.11	19459.5
822.362	19504.5
822.614	19448.5
822.866	19515.5
823.118	19455.5
823.37	19522.5
823.622	19560.5
823.874	19550.5
824.126	19710.5
824.378	19691.5
824.63	19759.5
824.882	19874.5
825.134	19711.5
825.385	19733.5
825.637	19760.5
825.888	19667.5
826.14	19717.5
826.392	19569.5
826.643	19432.5
826.895	19467.5
827.146	19366.5
827.397	19330.5
827.649	19422.5
827.9	19366.5
828.151	19286.5
828.402	19319.5
828.653	19371.5
828.905	19391.5
829.156	19545.5
829.407	19538.5
829.658	19550.5
829.909	19479.5
830.159	19552.5
830.41	19450.5
830.661	19271.5
830.912	19108.5
831.162	19040.5
831.413	19094.5
831.664	19057.5
831.914	19041.5
832.165	19117.5
832.415	19003.5
832.666	19027.5
832.916	19103.5
833.167	18955.5
833.417	19087.5
833.667	18932.5
833.917	18958.5
834.168	18968.5
834.418	18863.5
834.668	18724.5
834.918	18572.5
835.168	18629.5
835.418	18538.5
835.668	18467.5
835.918	18533.5
836.167	18369.5
836.417	18322.5
836.667	18325.5
836.917	18342.5
837.166	18265.5
837.416	18394.5
837.666	18334.5
837.915	18230.5
838.165	18235.5
838.414	18189.5
838.663	17963.5
838.913	18070.5
839.162	18053.5
839.411	18071.5
839.661	17969.5
839.91	18048.5
840.159	17874.5
840.408	17915.5
840.657	17962.5
840.906	17981.5
841.155	17948.5
841.404	17894.5
841.653	17895.5
841.902	18026.5
842.15	18046.5
842.399	18030.5
842.648	17966.5
842.897	17901.5
843.145	17736.5
843.394	17639.5
843.642	17526.5
843.891	17495.5
844.139	17410.5
844.388	17252.5
844.636	17212.5
844.884	17357.5
845.133	17206.5
845.381	17177.5
845.629	17265.5
845.877	17102.5
846.125	17110.5
846.373	17083.5
846.621	17046.5
846.869	17031.5
847.117	16898.5
847.365	16756.5
847.613	16688.5
847.861	16664.5
848.108	16665.5
848.356	16658.5
848.604	16633.5
848.851	16608.5
849.099	16706.5
849.346	16732.5
849.594	16815.5
849.841	16917.5
850.089	16932.5
850.336	16995.5
850.583	17001.5
850.831	17060.5
851.078	16880.5
851.325	16712.5
851.572	16703.5
851.819	16532.5
852.066	16192.5
852.313	15942.5
852.56	15892.5
852.807	15771.5
853.054	15779.5
853.301	15762.5
853.548	15867.5
853.794	15968.5
854.041	15906.5
854.288	15982.5
854.534	16080.5
854.781	16067.5
855.028	16036.5
855.274	16105.5
855.52	15986.5
855.767	15928.5
856.013	15850.5
856.26	16116.5
856.506	15670.5
856.752	15790.5
856.998	15631.5
857.244	15778.5
857.49	15830.5
857.736	15844.5
857.982	15751.5
858.228	15808.5
858.474	15633.5
858.72	15568.5
858.966	15449.5
859.212	15291.5
859.458	15095.5
859.703	15007.5
859.949	14855.5
860.195	14771.5
860.44	14575.5
860.686	14644.5
860.931	14658.5
861.177	14440.5
861.422	14378.5
861.667	14448.5
861.913	14425.5
862.158	14468.5
862.403	14526.5
862.648	14484.5
862.893	14498.5
863.138	14566.5
863.384	14453.5
863.629	14497.5
863.873	14365.5
864.118	14403.5
864.363	14205.5
864.608	14319.5
864.853	14299.5
865.098	14138.5
865.342	14065.5
865.587	13964.5
865.832	13978.5
866.076	13940.5
866.321	13934.5
866.565	13871.5
866.81	13800.5
867.054	13784.5
867.298	13785.5
867.543	13719.5
867.787	13683.5
868.031	13632.5
868.275	13614.5
868.519	13607.5
868.764	13606.5
869.008	13533.5
869.252	13575.5
869.496	13530.5
869.739	13492.5
869.983	13486.5
870.227	13491.5
870.471	13455.5
870.715	13400.5
870.958	13492.5
871.202	13506.5
871.446	13551.5
871.689	13527.5
871.933	13448.5
872.176	13483.5
872.42	13422.5
872.663	13445.5
872.906	13490.5
873.15	13405.5
873.393	13351.5
873.636	13333.5
873.879	13196.5
874.122	13123.5
874.366	12860.5
874.609	12717.5
874.852	12692.5
875.095	12618.5
875.337	12525.5
875.58	12425.5
875.823	12510.5
876.066	12509.5
876.309	12394.5
876.551	12386.5
876.794	12236.5
877.037	12267.5
877.279	12116.5
877.522	12243.5
877.764	12277.5
878.007	12132.5
878.249	12153.5
878.491	12065.5
878.734	12244.5
878.976	12075.5
879.218	12006.5
879.46	12016.5
879.702	11868.5
879.945	11775.5
880.187	11668.5
880.429	11588.5
880.671	11582.5
880.912	11510.5
881.154	11537.5
881.396	11383.5
881.638	11397.5
881.88	11411.5
882.121	11407.5
882.363	11457.5
882.605	11421.5
882.846	11420.5
883.088	11401.5
883.329	11375.5
883.571	11318.5
883.812	11457.5
884.053	11608.5
884.295	11822.5
884.536	11890.5
884.777	11738.5
885.018	11716.5
885.259	11609.5
885.5	11585.5
885.742	11751.5
885.982	11523.5
886.223	11478.5
886.464	11395.5
886.705	11188.5
886.946	11172.5
887.187	11006.5
887.428	10940.5
887.668	10777.5
887.909	10675.5
888.15	10449.5
888.39	10414.5
888.631	10421.5
888.871	10374.5
889.111	10308.5
889.352	10198.5
889.592	10052.5
889.833	10017.5
890.073	9993.5
890.313	10017.5
890.553	9806.5
890.793	9813.5
891.033	9761.5
891.273	9732.5
891.513	9684.5
891.753	9715.5
891.993	9599.5
892.233	9727.5
892.473	9727.5
892.713	9686.5
892.952	9604.5
893.192	9686.5
893.432	9661.5
893.671	9670.5
893.911	9547.5
894.15	9612.5
894.39	9345.5
894.629	9449.5
894.869	9410.5
895.108	9357.5
895.347	9254.5
895.587	9242.5
895.826	9219.5
896.065	9108.5
896.304	9179.5
896.543	9221.5
896.782	9064.5
897.021	9086.5
897.26	9071.5
897.499	9146.5
897.738	9077.5
897.977	9031.5
898.216	8938.5
898.454	8836.5
898.693	8760.5
898.932	8811.5
899.17	8707.5
899.409	8702.5
899.647	8720.5
899.886	8618.5
900.124	8757.5
900.363	8659.5
900.601	8734.5
900.839	8737.5
901.078	8764.5
901.316	8764.5
901.554	8835.5
901.792	8829.5
902.03	8785.5
902.268	8728.5
902.506	8789.5
902.744	8672.5
902.982	8683.5
903.22	8467.5
903.458	8454.5
903.695	8268.5
903.933	8280.5
904.171	8007.5
904.409	7890.5
904.646	7869.5
904.884	7736.5
905.121	7732.5
905.359	7603.5
905.596	7620.5
905.833	7533.5
906.071	7440.5
906.308	7459.5
906.545	7425.5
906.783	7368.5
907.02	7352.5
907.257	7254.5
907.494	7321.5
907.731	7326.5
907.968	7236.5
908.205	7228.5
908.442	7124.5
908.679	7103.5
908.915	7070.5
909.152	7029.5
909.389	6930.5
909.626	6935.5
909.862	6830.5
910.099	6834.5
910.335	6859.5
910.572	6649.5
910.808	6767.5
911.045	6716.5
911.281	6648.5
911.518	6684.5
911.754	6633.5
911.99	6565.5
912.226	6520.5
912.463	6486.5
912.699	6450.5
912.935	6404.5
913.171	6327.5
913.407	6348.5
913.643	6239.5
913.879	6239.5
914.114	6149.5
914.35	6062.5
914.586	6087.5
914.822	5967.5
915.057	6018.5
915.293	5880.5
915.529	5854.5
915.764	5953.5
916	5919.5
916.235	5885.5
916.471	5863.5
916.706	5735.5
916.941	5767.5
917.177	5741.5
917.412	5830.5
917.647	5821.5
917.882	5713.5
918.117	5778.5
918.352	5721.5
918.588	5803.5
918.823	5662.5
919.057	5580.5
919.292	5476.5
919.527	5559.5
919.762	5427.5
919.997	5431.5
920.232	5355.5
920.466	5326.5
920.701	5223.5
920.935	5207.5
921.17	5194.5
921.405	5175.5
921.639	5206.5
921.873	5167.5
922.108	5147.5
922.342	5126.5
922.576	5042.5
922.811	4990.5
923.045	5127.5
923.279	5074.5
923.513	4953.5
923.747	5007.5
923.981	4988.5
924.215	4845.5
924.449	4890.5
924.683	4760.5
924.917	4785.5
925.151	4807.5
925.385	4808.5
925.618	4741.5
925.852	4759.5
926.086	4686.5
926.319	4704.5
926.553	4750.5
926.786	4737.5
927.02	4727.5
927.253	4777.5
927.486	4743.5
927.72	4677.5
927.953	4696.5
928.186	4684.5
928.42	4696.5
928.653	4617.5
928.886	4589.5
929.119	4618.5
929.352	4550.5
929.585	4531.5
929.818	4445.5
930.051	4489.5
930.284	4452.5
930.516	4343.5
930.749	4331.5
930.982	4371.5
931.215	4369.5
931.447	4258.5
931.68	4288.5
931.912	4215.5
932.145	4275.5
932.377	4250.5
932.61	4411.5
932.842	4188.5
933.074	4247.5
933.307	4176.5
933.539	4264.5
933.771	4286.5
934.003	4227.5
934.236	4279.5
934.468	4262.5
934.7	4180.5
934.932	4275.5
935.164	4199.5
935.395	4131.5
935.627	4171.5
935.859	4176.5
936.091	4091.5
936.323	4130.5
936.554	4128.5
936.786	4130.5
937.017	4003.5
937.249	4040.5
937.481	3985.5
937.712	4055.5
937.943	4040.5
938.175	3991.5
938.406	3941.5
938.637	4072.5
938.869	3926.5
939.1	3966.5
939.331	3928.5
939.562	3958.5
939.793	3926.5
940.024	3952.5
940.255	3968.5
940.486	3933.5
940.717	3904.5
940.948	3858.5
941.179	3787.5
941.409	3777.5
941.64	3750.5
941.871	3823.5
942.102	3777.5
942.332	3804.5
942.563	3850.5
942.793	3783.5
943.024	3783.5
943.254	3787.5
943.484	3798.5
943.715	3844.5
943.945	3754.5
944.175	3712.5
944.405	3695.5
944.636	3709.5
944.866	3738.5
945.096	3754.5
945.326	3683.5
945.556	3716.5
945.786	3701.5
946.016	3649.5
946.245	3607.5
946.475	3613.5
946.705	3608.5
946.935	3600.5
947.164	3544.5
947.394	3529.5
947.624	3494.5
947.853	3545.5
948.083	3525.5
948.312	3453.5
948.542	3464.5
948.771	3406.5
949	3393.5
949.23	3421.5
949.459	3443.5
949.688	3462.5
949.917	3425.5
950.146	3416.5
950.375	3493.5
950.604	3403.5
950.833	3444.5
951.062	3441.5
951.291	3413.5
951.52	3334.5
951.749	3354.5
951.978	3302.5
952.206	3333.5
952.435	3297.5
952.664	3369.5
952.892	3323.5
953.121	3310.5
953.349	3341.5
953.578	3272.5
953.806	3276.5
954.035	3205.5
954.263	3247.5
954.491	3176.5
954.719	3219.5
954.948	3145.5
955.176	3181.5
955.404	3081.5
955.632	3132.5
955.86	3154.5
956.088	3127.5
956.316	3142.5
956.544	3132.5
956.772	3037.5
956.999	3063.5
957.227	3131.5
957.455	2993.5
957.683	3034.5
957.91	2988.5
958.138	2972.5
958.365	2991.5
958.593	2932.5
958.82	2886.5
959.048	2954.5
959.275	2908.5
959.502	2901.5
959.73	2907.5
959.957	2925.5
960.184	2923.5
960.411	2839.5
960.638	2946.5
960.865	2851.5
961.092	2931.5
961.319	2789.5
961.546	2914.5
961.773	2895.5
962	2856.5
962.227	2912.5
962.454	2844.5
962.68	2811.5
962.907	2857.5
963.134	2785.5
963.36	2798.5
963.587	2810.5
963.813	2718.5
964.04	2796.5
964.266	2727.5
964.493	2773.5
964.719	2732.5
964.945	2750.5
965.171	2652.5
965.398	2712.5
965.624	2715.5
965.85	2610.5
966.076	2603.5
966.302	2676.5
966.528	2585.5
966.754	2638.5
966.98	2626.5
967.206	2603.5
967.431	2539.5
967.657	2650.5
967.883	2635.5
968.109	2574.5
968.334	2517.5
968.56	2513.5
968.785	2566.5
969.011	2470.5
969.236	2539.5
969.462	2467.5
969.687	2510.5
969.912	2524.5
970.138	2561.5
970.363	2460.5
970.588	2484.5
970.813	2469.5
971.038	2446.5
971.263	2449.5
971.488	2477.5
971.713	2474.5
971.938	2484.5
972.163	2397.5
972.388	2409.5
972.613	2345.5
972.838	2409.5
973.062	2388.5
973.287	2360.5
973.512	2281.5
973.736	2361.5
973.961	2322.5
974.185	2303.5
974.41	2333.5
974.634	2212.5
974.858	2224.5
975.083	2267.5
975.307	2301.5
975.531	2215.5
975.755	2157.5
975.98	2187.5
976.204	2140.5
976.428	2106.5
976.652	2126.5
976.876	2128.5
977.1	2161.5
977.324	2105.5
977.547	2125.5
977.771	2139.5
977.995	2113.5
978.219	2078.5
978.442	2178.5
978.666	2111.5
978.89	2095.5
979.113	2080.5
979.337	2065.5
979.56	2061.5
979.783	2138.5
980.007	2036.5
980.23	2075.5
980.453	2008.5
980.677	2057.5
980.9	2026.5
981.123	1967.5
981.346	2041.5
981.569	2014.5
981.792	2042.5
982.015	1993.5
982.238	1945.5
982.461	1975.5
982.684	1940.5
982.907	1887.5
983.129	1899.5
983.352	1930.5
983.575	1936.5
983.797	1911.5
984.02	1879.5
984.242	1881.5
984.465	1866.5
984.687	1927.5
984.91	1927.5
985.132	1889.5
985.354	1904.5
985.577	1879.5
985.799	1850.5
986.021	1806.5
986.243	1823.5
986.465	1806.5
986.687	1885.5
986.909	1872.5
987.131	1854.5
987.353	1804.5
987.575	1834.5
987.797	1775.5
988.019	1717.5
988.241	1786.5
988.462	1760.5
988.684	1808.5
988.906	1822.5
989.127	1844.5
989.349	1724.5
989.57	1766.5
989.792	1778.5
990.013	1782.5
990.234	1800.5
990.456	1817.5
990.677	1814.5
990.898	1736.5
991.119	1751.5
991.341	1759.5
991.562	1717.5
991.783	1734.5
992.004	1666.5
992.225	1628.5
992.446	1722.5
992.667	1633.5
992.887	1706.5
993.108	1579.5
993.329	1743.5
993.55	1645.5
993.77	1591.5
993.991	1598.5
994.212	1658.5
994.432	1621.5
994.653	1653.5
994.873	1630.5
995.093	1525.5
995.314	1593.5
995.534	1635.5
995.754	1640.5
995.975	1655.5
996.195	1562.5
996.415	1617.5
996.635	1576.5
996.855	1605.5
997.075	1557.5
997.295	1559.5
997.515	1562.5
997.735	1600.5
997.955	1559.5
998.174	1536.5
998.394	1512.5
998.614	1561.5
998.834	1513.5
999.053	1580.5
999.273	1552.5
999.492	1608.5
999.712	1523.5
999.931	1477.5
1000.151	1549.5
1000.37	1517.5
1000.589	1600.5
1000.809	1508.5
1001.028	1631.5
1001.247	1545.5
1001.466	1419.5
1001.685	1573.5
1001.904	1542.5
1002.123	1492.5
1002.342	1517.5
1002.561	1439.5
1002.78	1497.5
1002.999	1575.5
1003.218	1489.5
1003.436	1453.5
1003.655	1507.5
1003.874	1433.5
1004.092	1466.5
1004.311	1513.5
1004.53	1450.5
1004.748	1523.5
1004.966	1472.5
1005.185	1513.5
1005.403	1528.5
1005.622	1480.5
1005.84	1563.5
1006.058	1453.5
1006.276	1473.5
1006.494	1939.5
1006.712	1457.5
1006.931	1538.5
1007.149	1424.5
1007.367	1438.5
1007.584	1464.5
1007.802	1498.5
1008.02	1448.5
1008.238	1533.5
1008.456	1553.5
1008.673	1413.5
1008.891	1521.5
1009.109	1475.5
1009.326	1521.5
1009.544	1577.5
1009.761	1488.5
1009.979	1620.5
1010.196	1576.5
1010.413	1697.5
1010.631	1718.5
1010.848	1761.5
1011.065	1735.5
1011.282	1681.5
1011.5	1587.5
1011.717	1719.5
1011.934	1682.5
1012.151	1723.5
1012.368	1688.5
1012.585	1606.5
1012.801	1685.5
1013.018	1636.5
1013.235	1609.5
1013.452	1624.5
1013.669	1654.5
1013.885	1604.5
1014.102	1657.5
1014.318	1636.5
1014.535	1562.5
1014.751	1603.5
1014.968	1603.5
1015.184	1631.5
1015.401	1535.5
1015.617	1563.5
1015.833	1531.5
1016.049	1530.5
1016.266	1492.5
1016.482	1506.5
1016.698	1434.5
1016.914	1477.5
1017.13	1428.5
1017.346	1438.5
1017.562	1492.5
1017.778	1425.5
1017.993	1391.5
1018.209	1426.5
1018.425	1407.5
1018.641	1405.5
1018.856	1392.5
1019.072	1388.5
1019.288	1441.5
1019.503	1390.5
1019.719	1310.5
1019.934	1324.5
1020.149	1416.5
1020.365	1341.5
1020.58	1281.5
1020.795	1347.5
1021.011	1261.5
1021.226	1257.5
1021.441	1293.5
1021.656	1212.5
1021.871	1150.5
1022.086	1158.5
1022.301	1147.5
1022.516	1134.5
1022.731	1216.5
1022.946	1108.5
1023.16	1097.5
1023.375	1071.5
1023.59	1051.5
1023.804	1017.5
1024.019	1124.5
1024.234	999.5
1024.448	1022.5
1024.663	948.5
1024.877	948.5
1025.092	1000.5
1025.306	988.5
1025.52	879.5
1025.734	978.5
1025.949	918.5
1026.163	866.5
1026.377	824.5
1026.591	881.5
1026.805	801.5
1027.019	818.5
1027.233	755.5
1027.447	723.5
1027.661	820.5
1027.875	776.5
1028.088	772.5
1028.302	699.5
1028.516	691.5
1028.73	690.5
1028.943	667.5
1029.157	630.5
1029.37	584.5
1029.584	-2.5
1029.797	-0.5
1030.011	-2.5
1030.224	-1.5
