Data from QEP037381__2__11-21-15-593.txt Node

Date: Wed Dec 21 11:21:15 EST 2022
User: dcclab
Spectrometer: QEP03738
Trigger mode: 4
Integration Time (sec): 1.000000E1
Scans to average: 1
Electric dark correction enabled: true
Nonlinearity correction enabled: false
Boxcar width: 0
XAxis mode: Wavelengths
Number of Pixels in Spectrum: 1044
>>>>>Begin Spectral Data<<<<<
784.041	13.62
784.3	1.62
784.558	-1.38
784.817	-5.38
785.075	40142.62
785.334	8087.62
785.592	4247.62
785.851	3037.62
786.109	2316.62
786.368	1869.62
786.626	1546.62
786.884	1312.62
787.143	1145.62
787.401	931.62
787.659	891.62
787.917	780.62
788.175	755.62
788.433	639.62
788.691	608.62
788.949	577.62
789.207	572.62
789.465	504.62
789.723	483.62
789.98	440.62
790.238	502.62
790.496	466.62
790.753	468.62
791.011	525.62
791.268	448.62
791.526	438.62
791.783	474.62
792.041	442.62
792.298	361.62
792.556	426.62
792.813	418.62
793.07	406.62
793.327	394.62
793.584	475.62
793.841	398.62
794.099	425.62
794.356	480.62
794.613	385.62
794.869	418.62
795.126	383.62
795.383	382.62
795.64	392.62
795.897	354.62
796.153	422.62
796.41	403.62
796.667	392.62
796.923	402.62
797.18	407.62
797.436	413.62
797.693	382.62
797.949	459.62
798.206	468.62
798.462	383.62
798.718	439.62
798.974	416.62
799.231	473.62
799.487	440.62
799.743	458.62
799.999	483.62
800.255	478.62
800.511	466.62
800.767	515.62
801.023	515.62
801.279	540.62
801.534	568.62
801.79	625.62
802.046	662.62
802.302	815.62
802.557	877.62
802.813	1141.62
803.068	1389.62
803.324	1941.62
803.579	2623.62
803.835	3617.62
804.09	4965.62
804.345	6442.62
804.601	8155.62
804.856	9835.62
805.111	11328.62
805.366	12603.62
805.621	13429.62
805.876	14109.62
806.131	14469.62
806.386	14836.62
806.641	15075.62
806.896	15361.62
807.151	15660.62
807.406	15904.62
807.661	16188.62
807.915	16445.62
808.17	16759.62
808.425	16845.62
808.679	16891.62
808.934	17188.62
809.188	17292.62
809.443	17596.62
809.697	17744.62
809.951	17806.62
810.206	17920.62
810.46	18211.62
810.714	18228.62
810.968	18393.62
811.223	18506.62
811.477	18737.62
811.731	18795.62
811.985	18929.62
812.239	19116.62
812.493	19177.62
812.747	19325.62
813	19255.62
813.254	19390.62
813.508	19451.62
813.762	19454.62
814.015	19615.62
814.269	19806.62
814.522	19913.62
814.776	20153.62
815.03	20482.62
815.283	20755.62
815.536	21002.62
815.79	21366.62
816.043	21613.62
816.296	21965.62
816.55	22224.62
816.803	22469.62
817.056	22813.62
817.309	22894.62
817.562	23238.62
817.815	23386.62
818.068	23568.62
818.321	23744.62
818.574	24082.62
818.827	24337.62
819.079	24629.62
819.332	25049.62
819.585	25266.62
819.838	25597.62
820.09	25648.62
820.343	25911.62
820.595	25993.62
820.848	26217.62
821.1	26323.62
821.353	26361.62
821.605	26245.62
821.857	26354.62
822.11	26207.62
822.362	26055.62
822.614	25994.62
822.866	26106.62
823.118	26040.62
823.37	26276.62
823.622	26131.62
823.874	26244.62
824.126	26344.62
824.378	26339.62
824.63	26431.62
824.882	26418.62
825.134	26449.62
825.385	26455.62
825.637	26376.62
825.888	26380.62
826.14	26344.62
826.392	26267.62
826.643	26002.62
826.895	25949.62
827.146	25967.62
827.397	25879.62
827.649	25936.62
827.9	25879.62
828.151	25795.62
828.402	25860.62
828.653	26131.62
828.905	26079.62
829.156	26039.62
829.407	26107.62
829.658	26012.62
829.909	26212.62
830.159	26195.62
830.41	26003.62
830.661	25804.62
830.912	25673.62
831.162	25507.62
831.413	25504.62
831.664	25520.62
831.914	25395.62
832.165	25405.62
832.415	25580.62
832.666	25411.62
832.916	25477.62
833.167	25542.62
833.417	25405.62
833.667	25277.62
833.917	25357.62
834.168	25189.62
834.418	25145.62
834.668	25035.62
834.918	24900.62
835.168	24758.62
835.418	24608.62
835.668	24801.62
835.918	24631.62
836.167	24537.62
836.417	24506.62
836.667	24529.62
836.917	24517.62
837.166	24487.62
837.416	24430.62
837.666	24320.62
837.915	24414.62
838.165	24317.62
838.414	24170.62
838.663	24197.62
838.913	24123.62
839.162	24162.62
839.411	24134.62
839.661	24006.62
839.91	24003.62
840.159	23951.62
840.408	23896.62
840.657	23891.62
840.906	23968.62
841.155	24003.62
841.404	23842.62
841.653	23943.62
841.902	23997.62
842.15	24012.62
842.399	23998.62
842.648	23992.62
842.897	23869.62
843.145	23651.62
843.394	23588.62
843.642	23338.62
843.891	23455.62
844.139	23204.62
844.388	22988.62
844.636	22867.62
844.884	23004.62
845.133	22903.62
845.381	22844.62
845.629	22822.62
845.877	22824.62
846.125	22878.62
846.373	22652.62
846.621	22721.62
846.869	22597.62
847.117	22484.62
847.365	22470.62
847.613	22305.62
847.861	22252.62
848.108	22255.62
848.356	22162.62
848.604	22193.62
848.851	22203.62
849.099	22259.62
849.346	22277.62
849.594	22450.62
849.841	22404.62
850.089	22550.62
850.336	22691.62
850.583	22594.62
850.831	22522.62
851.078	22357.62
851.325	22253.62
851.572	22222.62
851.819	21915.62
852.066	21493.62
852.313	21362.62
852.56	21208.62
852.807	20987.62
853.054	20990.62
853.301	20862.62
853.548	20848.62
853.794	21082.62
854.041	21104.62
854.288	21135.62
854.534	21419.62
854.781	21421.62
855.028	21257.62
855.274	21316.62
855.52	21217.62
855.767	21086.62
856.013	21097.62
856.26	21233.62
856.506	20851.62
856.752	20786.62
856.998	20884.62
857.244	20971.62
857.49	21107.62
857.736	21007.62
857.982	20988.62
858.228	20951.62
858.474	20773.62
858.72	20542.62
858.966	20408.62
859.212	20200.62
859.458	20065.62
859.703	19815.62
859.949	19678.62
860.195	19567.62
860.44	19479.62
860.686	19345.62
860.931	19380.62
861.177	19179.62
861.422	19272.62
861.667	19124.62
861.913	19160.62
862.158	19236.62
862.403	19166.62
862.648	19248.62
862.893	19207.62
863.138	19257.62
863.384	19203.62
863.629	19231.62
863.873	19139.62
864.118	19063.62
864.363	19002.62
864.608	18916.62
864.853	18903.62
865.098	18774.62
865.342	18761.62
865.587	18528.62
865.832	18585.62
866.076	18485.62
866.321	18536.62
866.565	18425.62
866.81	18292.62
867.054	18295.62
867.298	18243.62
867.543	18058.62
867.787	18155.62
868.031	18097.62
868.275	17974.62
868.519	18021.62
868.764	18023.62
869.008	17989.62
869.252	17861.62
869.496	17793.62
869.739	17779.62
869.983	17831.62
870.227	17715.62
870.471	17743.62
870.715	17802.62
870.958	17743.62
871.202	17797.62
871.446	17827.62
871.689	17864.62
871.933	17962.62
872.176	17831.62
872.42	17766.62
872.663	17719.62
872.906	17671.62
873.15	17650.62
873.393	17592.62
873.636	17552.62
873.879	17360.62
874.122	17158.62
874.366	17005.62
874.609	16766.62
874.852	16708.62
875.095	16614.62
875.337	16561.62
875.58	16421.62
875.823	16392.62
876.066	16359.62
876.309	16281.62
876.551	16150.62
876.794	16140.62
877.037	16184.62
877.279	16035.62
877.522	16132.62
877.764	16135.62
878.007	16041.62
878.249	15978.62
878.491	15904.62
878.734	15996.62
878.976	16017.62
879.218	15753.62
879.46	15754.62
879.702	15714.62
879.945	15516.62
880.187	15451.62
880.429	15335.62
880.671	15241.62
880.912	15299.62
881.154	15150.62
881.396	15048.62
881.638	15106.62
881.88	15127.62
882.121	15014.62
882.363	14998.62
882.605	14997.62
882.846	15017.62
883.088	14978.62
883.329	14932.62
883.571	14855.62
883.812	14981.62
884.053	15146.62
884.295	15363.62
884.536	15531.62
884.777	15248.62
885.018	15212.62
885.259	15078.62
885.5	15074.62
885.742	15219.62
885.982	15013.62
886.223	14917.62
886.464	14845.62
886.705	14707.62
886.946	14587.62
887.187	14436.62
887.428	14359.62
887.668	14122.62
887.909	13973.62
888.15	13784.62
888.39	13739.62
888.631	13774.62
888.871	13650.62
889.111	13549.62
889.352	13422.62
889.592	13242.62
889.833	13161.62
890.073	13132.62
890.313	13089.62
890.553	12922.62
890.793	12875.62
891.033	12779.62
891.273	12715.62
891.513	12726.62
891.753	12723.62
891.993	12667.62
892.233	12688.62
892.473	12719.62
892.713	12799.62
892.952	12615.62
893.192	12643.62
893.432	12644.62
893.671	12634.62
893.911	12599.62
894.15	12518.62
894.39	12421.62
894.629	12316.62
894.869	12200.62
895.108	12178.62
895.347	12171.62
895.587	12128.62
895.826	12088.62
896.065	11985.62
896.304	12029.62
896.543	11959.62
896.782	11888.62
897.021	11923.62
897.26	11823.62
897.499	11808.62
897.738	11826.62
897.977	11795.62
898.216	11586.62
898.454	11501.62
898.693	11323.62
898.932	11398.62
899.17	11279.62
899.409	11277.62
899.647	11301.62
899.886	11235.62
900.124	11343.62
900.363	11274.62
900.601	11182.62
900.839	11251.62
901.078	11339.62
901.316	11335.62
901.554	11355.62
901.792	11343.62
902.03	11214.62
902.268	11179.62
902.506	11310.62
902.744	11183.62
902.982	11156.62
903.22	10979.62
903.458	10798.62
903.695	10722.62
903.933	10604.62
904.171	10391.62
904.409	10257.62
904.646	10180.62
904.884	10076.62
905.121	9958.62
905.359	9830.62
905.596	9742.62
905.833	9700.62
906.071	9694.62
906.308	9711.62
906.545	9671.62
906.783	9557.62
907.02	9497.62
907.257	9433.62
907.494	9546.62
907.731	9483.62
907.968	9437.62
908.205	9351.62
908.442	9301.62
908.679	9279.62
908.915	9106.62
909.152	9105.62
909.389	8905.62
909.626	8984.62
909.862	8828.62
910.099	8865.62
910.335	8794.62
910.572	8730.62
910.808	8792.62
911.045	8711.62
911.281	8591.62
911.518	8665.62
911.754	8584.62
911.99	8501.62
912.226	8494.62
912.463	8416.62
912.699	8289.62
912.935	8273.62
913.171	8214.62
913.407	8133.62
913.643	8116.62
913.879	8032.62
914.114	7973.62
914.35	7884.62
914.586	7835.62
914.822	7674.62
915.057	7765.62
915.293	7626.62
915.529	7603.62
915.764	7622.62
916	7622.62
916.235	7566.62
916.471	7533.62
916.706	7425.62
916.941	7430.62
917.177	7424.62
917.412	7451.62
917.647	7461.62
917.882	7346.62
918.117	7442.62
918.352	7435.62
918.588	7312.62
918.823	7288.62
919.057	7217.62
919.292	7065.62
919.527	7089.62
919.762	6977.62
919.997	6981.62
920.232	6880.62
920.466	6846.62
920.701	6734.62
920.935	6720.62
921.17	6678.62
921.405	6602.62
921.639	6631.62
921.873	6543.62
922.108	6577.62
922.342	6608.62
922.576	6465.62
922.811	6427.62
923.045	6474.62
923.279	6452.62
923.513	6348.62
923.747	6392.62
923.981	6317.62
924.215	6196.62
924.449	6215.62
924.683	6176.62
924.917	6106.62
925.151	6127.62
925.385	6147.62
925.618	6115.62
925.852	6042.62
926.086	5979.62
926.319	6041.62
926.553	6007.62
926.786	6002.62
927.02	6015.62
927.253	6028.62
927.486	5972.62
927.72	5921.62
927.953	5970.62
928.186	5886.62
928.42	5977.62
928.653	5809.62
928.886	5861.62
929.119	5875.62
929.352	5773.62
929.585	5773.62
929.818	5700.62
930.051	5665.62
930.284	5631.62
930.516	5553.62
930.749	5504.62
930.982	5506.62
931.215	5530.62
931.447	5381.62
931.68	5425.62
931.912	5396.62
932.145	5413.62
932.377	5392.62
932.61	5536.62
932.842	5311.62
933.074	5400.62
933.307	5324.62
933.539	5417.62
933.771	5430.62
934.003	5322.62
934.236	5464.62
934.468	5387.62
934.7	5308.62
934.932	5311.62
935.164	5231.62
935.395	5260.62
935.627	5236.62
935.859	5232.62
936.091	5182.62
936.323	5191.62
936.554	5218.62
936.786	5096.62
937.017	5088.62
937.249	5146.62
937.481	5036.62
937.712	5063.62
937.943	5062.62
938.175	5080.62
938.406	5004.62
938.637	5069.62
938.869	4932.62
939.1	5018.62
939.331	4948.62
939.562	4998.62
939.793	4958.62
940.024	4943.62
940.255	4937.62
940.486	4841.62
940.717	4863.62
940.948	4815.62
941.179	4818.62
941.409	4806.62
941.64	4736.62
941.871	4803.62
942.102	4754.62
942.332	4791.62
942.563	4822.62
942.793	4779.62
943.024	4658.62
943.254	4720.62
943.484	4757.62
943.715	4790.62
943.945	4775.62
944.175	4663.62
944.405	4676.62
944.636	4653.62
944.866	4681.62
945.096	4730.62
945.326	4614.62
945.556	4651.62
945.786	4685.62
946.016	4584.62
946.245	4515.62
946.475	4481.62
946.705	4494.62
946.935	4438.62
947.164	4458.62
947.394	4360.62
947.624	4413.62
947.853	4388.62
948.083	4354.62
948.312	4325.62
948.542	4282.62
948.771	4256.62
949	4298.62
949.23	4249.62
949.459	4244.62
949.688	4304.62
949.917	4290.62
950.146	4298.62
950.375	4316.62
950.604	4191.62
950.833	4326.62
951.062	4270.62
951.291	4252.62
951.52	4216.62
951.749	4179.62
951.978	4160.62
952.206	4216.62
952.435	4101.62
952.664	4137.62
952.892	4122.62
953.121	4123.62
953.349	4109.62
953.578	4087.62
953.806	4038.62
954.035	3991.62
954.263	3991.62
954.491	3981.62
954.719	4053.62
954.948	3944.62
955.176	3931.62
955.404	3868.62
955.632	3864.62
955.86	3871.62
956.088	3878.62
956.316	3872.62
956.544	3826.62
956.772	3821.62
956.999	3789.62
957.227	3846.62
957.455	3721.62
957.683	3717.62
957.91	3671.62
958.138	3663.62
958.365	3708.62
958.593	3619.62
958.82	3573.62
959.048	3651.62
959.275	3620.62
959.502	3606.62
959.73	3565.62
959.957	3592.62
960.184	3661.62
960.411	3544.62
960.638	3605.62
960.865	3547.62
961.092	3568.62
961.319	3455.62
961.546	3541.62
961.773	3595.62
962	3542.62
962.227	3552.62
962.454	3481.62
962.68	3464.62
962.907	3486.62
963.134	3403.62
963.36	3443.62
963.587	3422.62
963.813	3394.62
964.04	3404.62
964.266	3333.62
964.493	3383.62
964.719	3357.62
964.945	3368.62
965.171	3238.62
965.398	3252.62
965.624	3299.62
965.85	3228.62
966.076	3235.62
966.302	3240.62
966.528	3184.62
966.754	3186.62
966.98	3210.62
967.206	3182.62
967.431	3145.62
967.657	3189.62
967.883	3169.62
968.109	3117.62
968.334	3060.62
968.56	3070.62
968.785	3081.62
969.011	3037.62
969.236	3109.62
969.462	3004.62
969.687	3014.62
969.912	3058.62
970.138	3109.62
970.363	2997.62
970.588	3050.62
970.813	3003.62
971.038	2968.62
971.263	3021.62
971.488	2956.62
971.713	3016.62
971.938	2958.62
972.163	2850.62
972.388	2905.62
972.613	2868.62
972.838	2896.62
973.062	2856.62
973.287	2863.62
973.512	2806.62
973.736	2849.62
973.961	2804.62
974.185	2782.62
974.41	2817.62
974.634	2670.62
974.858	2696.62
975.083	2739.62
975.307	2750.62
975.531	2703.62
975.755	2639.62
975.98	2647.62
976.204	2540.62
976.428	2572.62
976.652	2560.62
976.876	2542.62
977.1	2601.62
977.324	2508.62
977.547	2596.62
977.771	2595.62
977.995	2544.62
978.219	2455.62
978.442	2645.62
978.666	2540.62
978.89	2522.62
979.113	2510.62
979.337	2490.62
979.56	2496.62
979.783	2550.62
980.007	2441.62
980.23	2453.62
980.453	2410.62
980.677	2469.62
980.9	2429.62
981.123	2349.62
981.346	2460.62
981.569	2367.62
981.792	2405.62
982.015	2350.62
982.238	2331.62
982.461	2372.62
982.684	2308.62
982.907	2310.62
983.129	2287.62
983.352	2314.62
983.575	2299.62
983.797	2284.62
984.02	2254.62
984.242	2252.62
984.465	2254.62
984.687	2261.62
984.91	2305.62
985.132	2267.62
985.354	2257.62
985.577	2232.62
985.799	2238.62
986.021	2130.62
986.243	2131.62
986.465	2157.62
986.687	2220.62
986.909	2256.62
987.131	2154.62
987.353	2127.62
987.575	2182.62
987.797	2157.62
988.019	2087.62
988.241	2101.62
988.462	2114.62
988.684	2102.62
988.906	2179.62
989.127	2170.62
989.349	2029.62
989.57	2080.62
989.792	2117.62
990.013	2123.62
990.234	2116.62
990.456	2169.62
990.677	2100.62
990.898	2033.62
991.119	2088.62
991.341	2035.62
991.562	1989.62
991.783	2002.62
992.004	1987.62
992.225	1906.62
992.446	2004.62
992.667	1902.62
992.887	1978.62
993.108	1832.62
993.329	2005.62
993.55	1948.62
993.77	1863.62
993.991	1867.62
994.212	1928.62
994.432	1874.62
994.653	1904.62
994.873	1893.62
995.093	1784.62
995.314	1816.62
995.534	1896.62
995.754	1911.62
995.975	1901.62
996.195	1780.62
996.415	1853.62
996.635	1825.62
996.855	1877.62
997.075	1815.62
997.295	1806.62
997.515	1790.62
997.735	1826.62
997.955	1802.62
998.174	1796.62
998.394	1777.62
998.614	1794.62
998.834	1739.62
999.053	1814.62
999.273	1804.62
999.492	1819.62
999.712	1743.62
999.931	1727.62
1000.151	1805.62
1000.37	1757.62
1000.589	1794.62
1000.809	1706.62
1001.028	1838.62
1001.247	1768.62
1001.466	1642.62
1001.685	1795.62
1001.904	1725.62
1002.123	1708.62
1002.342	1725.62
1002.561	1658.62
1002.78	1683.62
1002.999	1762.62
1003.218	1668.62
1003.436	1659.62
1003.655	1690.62
1003.874	1640.62
1004.092	1661.62
1004.311	1702.62
1004.53	1633.62
1004.748	1731.62
1004.966	1653.62
1005.185	1703.62
1005.403	1694.62
1005.622	1661.62
1005.84	1732.62
1006.058	1626.62
1006.276	1641.62
1006.494	2146.62
1006.712	1679.62
1006.931	1716.62
1007.149	1613.62
1007.367	1588.62
1007.584	1656.62
1007.802	1709.62
1008.02	1644.62
1008.238	1704.62
1008.456	1744.62
1008.673	1579.62
1008.891	1652.62
1009.109	1669.62
1009.326	1705.62
1009.544	1785.62
1009.761	1683.62
1009.979	1760.62
1010.196	1779.62
1010.413	1885.62
1010.631	1893.62
1010.848	1982.62
1011.065	1955.62
1011.282	1896.62
1011.5	1821.62
1011.717	1934.62
1011.934	1848.62
1012.151	1917.62
1012.368	1876.62
1012.585	1846.62
1012.801	1854.62
1013.018	1820.62
1013.235	1800.62
1013.452	1819.62
1013.669	1825.62
1013.885	1841.62
1014.102	1838.62
1014.318	1828.62
1014.535	1766.62
1014.751	1750.62
1014.968	1774.62
1015.184	1818.62
1015.401	1719.62
1015.617	1721.62
1015.833	1696.62
1016.049	1694.62
1016.266	1657.62
1016.482	1695.62
1016.698	1606.62
1016.914	1641.62
1017.13	1587.62
1017.346	1559.62
1017.562	1635.62
1017.778	1561.62
1017.993	1554.62
1018.209	1580.62
1018.425	1574.62
1018.641	1536.62
1018.856	1511.62
1019.072	1530.62
1019.288	1550.62
1019.503	1512.62
1019.719	1444.62
1019.934	1488.62
1020.149	1534.62
1020.365	1460.62
1020.58	1412.62
1020.795	1460.62
1021.011	1417.62
1021.226	1387.62
1021.441	1403.62
1021.656	1334.62
1021.871	1250.62
1022.086	1242.62
1022.301	1249.62
1022.516	1234.62
1022.731	1296.62
1022.946	1210.62
1023.16	1201.62
1023.375	1181.62
1023.59	1153.62
1023.804	1107.62
1024.019	1207.62
1024.234	1078.62
1024.448	1106.62
1024.663	1027.62
1024.877	1052.62
1025.092	1064.62
1025.306	1079.62
1025.52	977.62
1025.734	1070.62
1025.949	992.62
1026.163	929.62
1026.377	890.62
1026.591	949.62
1026.805	852.62
1027.019	873.62
1027.233	811.62
1027.447	774.62
1027.661	884.62
1027.875	820.62
1028.088	838.62
1028.302	761.62
1028.516	747.62
1028.73	732.62
1028.943	747.62
1029.157	691.62
1029.37	646.62
1029.584	-0.38
1029.797	-5.38
1030.011	-1.38
1030.224	-1.38
