Data from QEP037381__39__10-34-10-507.txt Node

Date: Fri Apr 28 10:34:10 EDT 2023
User: dcclab
Spectrometer: QEP03738
Trigger mode: 4
Integration Time (sec): 1.000000E1
Scans to average: 1
Electric dark correction enabled: true
Nonlinearity correction enabled: false
Boxcar width: 0
XAxis mode: Wavelengths
Number of Pixels in Spectrum: 1044
>>>>>Begin Spectral Data<<<<<
784.041	11.88
784.3	-1.12
784.558	-3.12
784.817	-3.12
785.075	77361.88
785.334	15273.88
785.592	7971.88
785.851	5584.88
786.109	4265.88
786.368	3320.88
786.626	2687.88
786.884	2248.88
787.143	1893.88
787.401	1555.88
787.659	1416.88
787.917	1196.88
788.175	1124.88
788.433	985.88
788.691	902.88
788.949	850.88
789.207	811.88
789.465	711.88
789.723	684.88
789.98	640.88
790.238	676.88
790.496	621.88
790.753	605.88
791.011	659.88
791.268	582.88
791.526	571.88
791.783	582.88
792.041	587.88
792.298	491.88
792.556	559.88
792.813	525.88
793.07	508.88
793.327	506.88
793.584	591.88
793.841	513.88
794.099	534.88
794.356	585.88
794.613	486.88
794.869	553.88
795.126	510.88
795.383	481.88
795.64	495.88
795.897	464.88
796.153	526.88
796.41	510.88
796.667	502.88
796.923	498.88
797.18	502.88
797.436	535.88
797.693	510.88
797.949	544.88
798.206	605.88
798.462	521.88
798.718	567.88
798.974	560.88
799.231	621.88
799.487	604.88
799.743	619.88
799.999	665.88
800.255	667.88
800.511	666.88
800.767	720.88
801.023	725.88
801.279	797.88
801.534	858.88
801.79	972.88
802.046	1082.88
802.302	1332.88
802.557	1628.88
802.813	2135.88
803.068	2864.88
803.324	4129.88
803.579	6039.88
803.835	8718.88
804.09	12185.88
804.345	16166.88
804.601	20106.88
804.856	23857.88
805.111	26696.88
805.366	28535.88
805.621	29857.88
805.876	30736.88
806.131	31340.88
806.386	31966.88
806.641	32420.88
806.896	32987.88
807.151	33504.88
807.406	34027.88
807.661	34788.88
807.915	35361.88
808.17	36043.88
808.425	36589.88
808.679	37158.88
808.934	37672.88
809.188	38057.88
809.443	38656.88
809.697	39196.88
809.951	39504.88
810.206	40034.88
810.46	40383.88
810.714	40733.88
810.968	41205.88
811.223	41495.88
811.477	41753.88
811.731	42200.88
811.985	42551.88
812.239	42828.88
812.493	43245.88
812.747	43286.88
813	43472.88
813.254	43788.88
813.508	44189.88
813.762	44535.88
814.015	44830.88
814.269	45054.88
814.522	45501.88
814.776	46186.88
815.03	46762.88
815.283	47385.88
815.536	48126.88
815.79	49126.88
816.043	49743.88
816.296	50406.88
816.55	51229.88
816.803	51780.88
817.056	52653.88
817.309	53326.88
817.562	53976.88
817.815	54576.88
818.068	55334.88
818.321	56080.88
818.574	56976.88
818.827	57820.88
819.079	58769.88
819.332	59878.88
819.585	60664.88
819.838	61346.88
820.09	62131.88
820.343	62834.88
820.595	63280.88
820.848	63917.88
821.1	63790.88
821.353	64109.88
821.605	64129.88
821.857	64079.88
822.11	64130.88
822.362	64129.88
822.614	63887.88
822.866	64019.88
823.118	64207.88
823.37	64461.88
823.622	64390.88
823.874	64904.88
824.126	65169.88
824.378	65637.88
824.63	65671.88
824.882	66016.88
825.134	66023.88
825.385	65944.88
825.637	65874.88
825.888	66053.88
826.14	65678.88
826.392	65613.88
826.643	65349.88
826.895	65356.88
827.146	65073.88
827.397	65071.88
827.649	65140.88
827.9	65128.88
828.151	65215.88
828.402	65284.88
828.653	65852.88
828.905	65981.88
829.156	65922.88
829.407	66064.88
829.658	66176.88
829.909	66097.88
830.159	65979.88
830.41	65796.88
830.661	65484.88
830.912	65140.88
831.162	65074.88
831.413	65064.88
831.664	65162.88
831.914	64985.88
832.165	65093.88
832.415	65203.88
832.666	65273.88
832.916	65436.88
833.167	65010.88
833.417	65125.88
833.667	65019.88
833.917	64908.88
834.168	64651.88
834.418	64598.88
834.668	64447.88
834.918	64381.88
835.168	63985.88
835.418	63887.88
835.668	63627.88
835.918	63665.88
836.167	63573.88
836.417	63494.88
836.667	63497.88
836.917	63494.88
837.166	63314.88
837.416	63398.88
837.666	63371.88
837.915	63362.88
838.165	63019.88
838.414	63108.88
838.663	62962.88
838.913	62999.88
839.162	62713.88
839.411	62913.88
839.661	62746.88
839.91	62660.88
840.159	62398.88
840.408	62725.88
840.657	62763.88
840.906	62779.88
841.155	62962.88
841.404	62968.88
841.653	62950.88
841.902	63177.88
842.15	63011.88
842.399	63058.88
842.648	63008.88
842.897	62785.88
843.145	62467.88
843.394	62310.88
843.642	61901.88
843.891	61748.88
844.139	61592.88
844.388	61502.88
844.636	61140.88
844.884	61096.88
845.133	61201.88
845.381	61142.88
845.629	61241.88
845.877	61169.88
846.125	60959.88
846.373	61118.88
846.621	60925.88
846.869	60729.88
847.117	60346.88
847.365	60193.88
847.613	60067.88
847.861	60270.88
848.108	59937.88
848.356	59824.88
848.604	59824.88
848.851	59858.88
849.099	60189.88
849.346	60184.88
849.594	60402.88
849.841	60493.88
850.089	60972.88
850.336	60967.88
850.583	60860.88
850.831	60523.88
851.078	60246.88
851.325	60030.88
851.572	59741.88
851.819	59417.88
852.066	58478.88
852.313	57876.88
852.56	57598.88
852.807	57508.88
853.054	57258.88
853.301	57211.88
853.548	57189.88
853.794	57425.88
854.041	57733.88
854.288	58128.88
854.534	58645.88
854.781	58691.88
855.028	58503.88
855.274	58357.88
855.52	57847.88
855.767	57531.88
856.013	57539.88
856.26	57842.88
856.506	57095.88
856.752	57181.88
856.998	57280.88
857.244	57308.88
857.49	57795.88
857.736	57714.88
857.982	57938.88
858.228	57909.88
858.474	57628.88
858.72	57288.88
858.966	56791.88
859.212	56369.88
859.458	55827.88
859.703	55304.88
859.949	54952.88
860.195	54444.88
860.44	54148.88
860.686	53926.88
860.931	53890.88
861.177	53706.88
861.422	53604.88
861.667	53699.88
861.913	53724.88
862.158	53848.88
862.403	54353.88
862.648	54435.88
862.893	54358.88
863.138	54496.88
863.384	54350.88
863.629	54366.88
863.873	54100.88
864.118	53884.88
864.363	53791.88
864.608	53475.88
864.853	53271.88
865.098	53231.88
865.342	52992.88
865.587	52747.88
865.832	52761.88
866.076	52610.88
866.321	52514.88
866.565	52504.88
866.81	52183.88
867.054	52177.88
867.298	51924.88
867.543	52004.88
867.787	51981.88
868.031	51859.88
868.275	51920.88
868.519	51859.88
868.764	51818.88
869.008	51837.88
869.252	51943.88
869.496	51581.88
869.739	51556.88
869.983	51632.88
870.227	51573.88
870.471	51463.88
870.715	51463.88
870.958	51617.88
871.202	51538.88
871.446	51832.88
871.689	51637.88
871.933	51811.88
872.176	51709.88
872.42	51683.88
872.663	51540.88
872.906	51483.88
873.15	51074.88
873.393	50871.88
873.636	50564.88
873.879	50224.88
874.122	49787.88
874.366	49291.88
874.609	49136.88
874.852	48906.88
875.095	48649.88
875.337	48627.88
875.58	48512.88
875.823	48313.88
876.066	48227.88
876.309	48089.88
876.551	47821.88
876.794	47854.88
877.037	47742.88
877.279	47719.88
877.522	47866.88
877.764	48089.88
878.007	47909.88
878.249	47856.88
878.491	47855.88
878.734	47910.88
878.976	47718.88
879.218	47484.88
879.46	47247.88
879.702	46904.88
879.945	46485.88
880.187	46254.88
880.429	46006.88
880.671	45839.88
880.912	45816.88
881.154	45621.88
881.396	45548.88
881.638	45606.88
881.88	45564.88
882.121	45462.88
882.363	45325.88
882.605	45382.88
882.846	45209.88
883.088	44971.88
883.329	45001.88
883.571	44899.88
883.812	44985.88
884.053	45148.88
884.295	45198.88
884.536	45472.88
884.777	45438.88
885.018	45344.88
885.259	45348.88
885.5	45129.88
885.742	45439.88
885.982	45153.88
886.223	45007.88
886.464	44865.88
886.705	44610.88
886.946	44390.88
887.187	43872.88
887.428	43707.88
887.668	43163.88
887.909	42889.88
888.15	42481.88
888.39	42395.88
888.631	42016.88
888.871	41707.88
889.111	41629.88
889.352	41229.88
889.592	40965.88
889.833	40562.88
890.073	40473.88
890.313	40358.88
890.553	39943.88
890.793	40065.88
891.033	39999.88
891.273	39709.88
891.513	39428.88
891.753	39495.88
891.993	39579.88
892.233	39451.88
892.473	39745.88
892.713	39638.88
892.952	39708.88
893.192	39828.88
893.432	39581.88
893.671	39760.88
893.911	39358.88
894.15	39238.88
894.39	38892.88
894.629	38701.88
894.869	38343.88
895.108	38218.88
895.347	38133.88
895.587	37912.88
895.826	37771.88
896.065	37750.88
896.304	37675.88
896.543	37624.88
896.782	37483.88
897.021	37512.88
897.26	37364.88
897.499	37273.88
897.738	37237.88
897.977	36988.88
898.216	36751.88
898.454	36521.88
898.693	36239.88
898.932	36144.88
899.17	36050.88
899.409	35971.88
899.647	36039.88
899.886	35898.88
900.124	36018.88
900.363	35859.88
900.601	36027.88
900.839	35998.88
901.078	35989.88
901.316	36153.88
901.554	36215.88
901.792	36403.88
902.03	36388.88
902.268	36309.88
902.506	36157.88
902.744	36012.88
902.982	35642.88
903.22	35408.88
903.458	35060.88
903.695	34748.88
903.933	34233.88
904.171	33804.88
904.409	33440.88
904.646	33214.88
904.884	32685.88
905.121	32599.88
905.359	32307.88
905.596	31794.88
905.833	31694.88
906.071	31610.88
906.308	31582.88
906.545	31536.88
906.783	31490.88
907.02	31348.88
907.257	31364.88
907.494	31267.88
907.731	31253.88
907.968	31060.88
908.205	30772.88
908.442	30854.88
908.679	30639.88
908.915	30388.88
909.152	30203.88
909.389	29953.88
909.626	29767.88
909.862	29505.88
910.099	29531.88
910.335	29374.88
910.572	29248.88
910.808	29233.88
911.045	29120.88
911.281	29123.88
911.518	28947.88
911.754	28697.88
911.99	28630.88
912.226	28524.88
912.463	28246.88
912.699	27975.88
912.935	27778.88
913.171	27614.88
913.407	27397.88
913.643	27384.88
913.879	27175.88
914.114	26920.88
914.35	26584.88
914.586	26301.88
914.822	26097.88
915.057	26091.88
915.293	25801.88
915.529	25695.88
915.764	25851.88
916	25747.88
916.235	25710.88
916.471	25610.88
916.706	25541.88
916.941	25588.88
917.177	25481.88
917.412	25588.88
917.647	25450.88
917.882	25421.88
918.117	25482.88
918.352	25302.88
918.588	25301.88
918.823	25099.88
919.057	24908.88
919.292	24495.88
919.527	24404.88
919.762	24122.88
919.997	23894.88
920.232	23551.88
920.466	23428.88
920.701	23224.88
920.935	23111.88
921.17	23084.88
921.405	22873.88
921.639	22878.88
921.873	22728.88
922.108	22667.88
922.342	22723.88
922.576	22575.88
922.811	22511.88
923.045	22569.88
923.279	22362.88
923.513	22211.88
923.747	22140.88
923.981	22060.88
924.215	21840.88
924.449	21688.88
924.683	21607.88
924.917	21574.88
925.151	21405.88
925.385	21416.88
925.618	21212.88
925.852	21316.88
926.086	21248.88
926.319	21281.88
926.553	21256.88
926.786	21158.88
927.02	21228.88
927.253	21157.88
927.486	21134.88
927.72	21082.88
927.953	21052.88
928.186	20978.88
928.42	20919.88
928.653	20771.88
928.886	20825.88
929.119	20681.88
929.352	20554.88
929.585	20352.88
929.818	20241.88
930.051	20117.88
930.284	19972.88
930.516	19607.88
930.749	19604.88
930.982	19525.88
931.215	19426.88
931.447	19306.88
931.68	19260.88
931.912	19300.88
932.145	19248.88
932.377	19289.88
932.61	19413.88
932.842	19319.88
933.074	19281.88
933.307	19170.88
933.539	19384.88
933.771	19309.88
934.003	19247.88
934.236	19324.88
934.468	19232.88
934.7	19115.88
934.932	19148.88
935.164	19046.88
935.395	19024.88
935.627	19095.88
935.859	18852.88
936.091	18674.88
936.323	18689.88
936.554	18656.88
936.786	18531.88
937.017	18597.88
937.249	18524.88
937.481	18369.88
937.712	18468.88
937.943	18422.88
938.175	18453.88
938.406	18373.88
938.637	18477.88
938.869	18266.88
939.1	18327.88
939.331	18159.88
939.562	18154.88
939.793	18146.88
940.024	18134.88
940.255	18089.88
940.486	17851.88
940.717	17793.88
940.948	17723.88
941.179	17639.88
941.409	17604.88
941.64	17649.88
941.871	17622.88
942.102	17627.88
942.332	17635.88
942.563	17692.88
942.793	17694.88
943.024	17599.88
943.254	17650.88
943.484	17663.88
943.715	17621.88
943.945	17555.88
944.175	17622.88
944.405	17539.88
944.636	17479.88
944.866	17506.88
945.096	17499.88
945.326	17365.88
945.556	17317.88
945.786	17279.88
946.016	17176.88
946.245	16996.88
946.475	16883.88
946.705	16863.88
946.935	16831.88
947.164	16637.88
947.394	16638.88
947.624	16490.88
947.853	16503.88
948.083	16333.88
948.312	16348.88
948.542	16222.88
948.771	16152.88
949	16212.88
949.23	16136.88
949.459	16220.88
949.688	16299.88
949.917	16155.88
950.146	16109.88
950.375	16219.88
950.604	15987.88
950.833	16201.88
951.062	16105.88
951.291	16087.88
951.52	15935.88
951.749	15957.88
951.978	15927.88
952.206	15808.88
952.435	15804.88
952.664	15836.88
952.892	15846.88
953.121	15651.88
953.349	15634.88
953.578	15613.88
953.806	15503.88
954.035	15454.88
954.263	15435.88
954.491	15249.88
954.719	15221.88
954.948	15080.88
955.176	15123.88
955.404	14968.88
955.632	14960.88
955.86	14860.88
956.088	14881.88
956.316	14795.88
956.544	14760.88
956.772	14603.88
956.999	14633.88
957.227	14523.88
957.455	14393.88
957.683	14428.88
957.91	14265.88
958.138	14342.88
958.365	14224.88
958.593	14191.88
958.82	14090.88
959.048	14067.88
959.275	13993.88
959.502	14008.88
959.73	13950.88
959.957	13973.88
960.184	13968.88
960.411	13873.88
960.638	13979.88
960.865	13845.88
961.092	13886.88
961.319	13680.88
961.546	13841.88
961.773	13765.88
962	13798.88
962.227	13695.88
962.454	13600.88
962.68	13599.88
962.907	13540.88
963.134	13384.88
963.36	13341.88
963.587	13203.88
963.813	13193.88
964.04	13107.88
964.266	13008.88
964.493	13012.88
964.719	12929.88
964.945	12946.88
965.171	12747.88
965.398	12719.88
965.624	12632.88
965.85	12622.88
966.076	12493.88
966.302	12562.88
966.528	12354.88
966.754	12326.88
966.98	12408.88
967.206	12395.88
967.431	12252.88
967.657	12351.88
967.883	12302.88
968.109	12282.88
968.334	12154.88
968.56	12105.88
968.785	12093.88
969.011	11948.88
969.236	12055.88
969.462	11892.88
969.687	11973.88
969.912	11965.88
970.138	11885.88
970.363	11800.88
970.588	11797.88
970.813	11797.88
971.038	11684.88
971.263	11596.88
971.488	11674.88
971.713	11589.88
971.938	11550.88
972.163	11332.88
972.388	11446.88
972.613	11267.88
972.838	11288.88
973.062	11226.88
973.287	11230.88
973.512	11041.88
973.736	11068.88
973.961	11030.88
974.185	10935.88
974.41	10913.88
974.634	10704.88
974.858	10746.88
975.083	10715.88
975.307	10663.88
975.531	10551.88
975.755	10511.88
975.98	10411.88
976.204	10292.88
976.428	10294.88
976.652	10292.88
976.876	10180.88
977.1	10219.88
977.324	10095.88
977.547	10162.88
977.771	10164.88
977.995	10062.88
978.219	10000.88
978.442	10037.88
978.666	9950.88
978.89	9926.88
979.113	9846.88
979.337	9886.88
979.56	9779.88
979.783	9802.88
980.007	9652.88
980.23	9703.88
980.453	9574.88
980.677	9636.88
980.9	9578.88
981.123	9439.88
981.346	9525.88
981.569	9447.88
981.792	9349.88
982.015	9334.88
982.238	9197.88
982.461	9193.88
982.684	9071.88
982.907	9093.88
983.129	9034.88
983.352	8961.88
983.575	8957.88
983.797	8902.88
984.02	8818.88
984.242	8747.88
984.465	8727.88
984.687	8746.88
984.91	8697.88
985.132	8588.88
985.354	8618.88
985.577	8541.88
985.799	8545.88
986.021	8418.88
986.243	8345.88
986.465	8404.88
986.687	8388.88
986.909	8380.88
987.131	8320.88
987.353	8230.88
987.575	8201.88
987.797	8197.88
988.019	8178.88
988.241	8138.88
988.462	8092.88
988.684	8045.88
988.906	8125.88
989.127	8089.88
989.349	8002.88
989.57	7966.88
989.792	7918.88
990.013	7946.88
990.234	7908.88
990.456	7828.88
990.677	7837.88
990.898	7736.88
991.119	7772.88
991.341	7672.88
991.562	7644.88
991.783	7640.88
992.004	7497.88
992.225	7425.88
992.446	7424.88
992.667	7304.88
992.887	7405.88
993.108	7160.88
993.329	7364.88
993.55	7251.88
993.77	7100.88
993.991	7126.88
994.212	6999.88
994.432	7040.88
994.653	7005.88
994.873	6930.88
995.093	6768.88
995.314	6812.88
995.534	6866.88
995.754	6811.88
995.975	6835.88
996.195	6763.88
996.415	6769.88
996.635	6674.88
996.855	6689.88
997.075	6687.88
997.295	6601.88
997.515	6602.88
997.735	6617.88
997.955	6599.88
998.174	6590.88
998.394	6549.88
998.614	6566.88
998.834	6479.88
999.053	6528.88
999.273	6443.88
999.492	6414.88
999.712	6379.88
999.931	6347.88
1000.151	6296.88
1000.37	6232.88
1000.589	6260.88
1000.809	6102.88
1001.028	6177.88
1001.247	6112.88
1001.466	5955.88
1001.685	6063.88
1001.904	5971.88
1002.123	5921.88
1002.342	5909.88
1002.561	5784.88
1002.78	5780.88
1002.999	5807.88
1003.218	5690.88
1003.436	5736.88
1003.655	5742.88
1003.874	5582.88
1004.092	5597.88
1004.311	5565.88
1004.53	5590.88
1004.748	5585.88
1004.966	5485.88
1005.185	5576.88
1005.403	5540.88
1005.622	5450.88
1005.84	5504.88
1006.058	5379.88
1006.276	5405.88
1006.494	5710.88
1006.712	5369.88
1006.931	5406.88
1007.149	5282.88
1007.367	5300.88
1007.584	5341.88
1007.802	5378.88
1008.02	5263.88
1008.238	5393.88
1008.456	5396.88
1008.673	5222.88
1008.891	5413.88
1009.109	5328.88
1009.326	5391.88
1009.544	5494.88
1009.761	5485.88
1009.979	5578.88
1010.196	5653.88
1010.413	5827.88
1010.631	5966.88
1010.848	6038.88
1011.065	6055.88
1011.282	5969.88
1011.5	5891.88
1011.717	6017.88
1011.934	5922.88
1012.151	5926.88
1012.368	5838.88
1012.585	5845.88
1012.801	5904.88
1013.018	5879.88
1013.235	5851.88
1013.452	5825.88
1013.669	5897.88
1013.885	5920.88
1014.102	5910.88
1014.318	5885.88
1014.535	5826.88
1014.751	5761.88
1014.968	5742.88
1015.184	5691.88
1015.401	5655.88
1015.617	5621.88
1015.833	5458.88
1016.049	5548.88
1016.266	5466.88
1016.482	5453.88
1016.698	5379.88
1016.914	5395.88
1017.13	5316.88
1017.346	5310.88
1017.562	5347.88
1017.778	5273.88
1017.993	5193.88
1018.209	5236.88
1018.425	5208.88
1018.641	5266.88
1018.856	5218.88
1019.072	5230.88
1019.288	5245.88
1019.503	5178.88
1019.719	5085.88
1019.934	5081.88
1020.149	5152.88
1020.365	5065.88
1020.58	4907.88
1020.795	4919.88
1021.011	4771.88
1021.226	4638.88
1021.441	4623.88
1021.656	4455.88
1021.871	4323.88
1022.086	4308.88
1022.301	4264.88
1022.516	4110.88
1022.731	4158.88
1022.946	4018.88
1023.16	3979.88
1023.375	3912.88
1023.59	3767.88
1023.804	3705.88
1024.019	3807.88
1024.234	3589.88
1024.448	3580.88
1024.663	3467.88
1024.877	3448.88
1025.092	3406.88
1025.306	3333.88
1025.52	3175.88
1025.734	3200.88
1025.949	3091.88
1026.163	2992.88
1026.377	2889.88
1026.591	2866.88
1026.805	2770.88
1027.019	2775.88
1027.233	2670.88
1027.447	2594.88
1027.661	2651.88
1027.875	2514.88
1028.088	2534.88
1028.302	2402.88
1028.516	2303.88
1028.73	2261.88
1028.943	2176.88
1029.157	2032.88
1029.37	1920.88
1029.584	0.88
1029.797	-0.12
1030.011	-2.12
1030.224	-3.12
