Data from QEP037381__47__10-35-30-507.txt Node

Date: Fri Apr 28 10:35:30 EDT 2023
User: dcclab
Spectrometer: QEP03738
Trigger mode: 4
Integration Time (sec): 1.000000E1
Scans to average: 1
Electric dark correction enabled: true
Nonlinearity correction enabled: false
Boxcar width: 0
XAxis mode: Wavelengths
Number of Pixels in Spectrum: 1044
>>>>>Begin Spectral Data<<<<<
784.041	11.12
784.3	-0.88
784.558	-1.88
784.817	-1.88
785.075	75234.12
785.334	15162.12
785.592	7944.12
785.851	5583.12
786.109	4238.12
786.368	3343.12
786.626	2689.12
786.884	2243.12
787.143	1925.12
787.401	1557.12
787.659	1447.12
787.917	1229.12
788.175	1140.12
788.433	1027.12
788.691	899.12
788.949	868.12
789.207	805.12
789.465	705.12
789.723	685.12
789.98	622.12
790.238	656.12
790.496	619.12
790.753	609.12
791.011	661.12
791.268	603.12
791.526	586.12
791.783	587.12
792.041	593.12
792.298	499.12
792.556	557.12
792.813	551.12
793.07	522.12
793.327	520.12
793.584	591.12
793.841	497.12
794.099	538.12
794.356	597.12
794.613	509.12
794.869	539.12
795.126	504.12
795.383	504.12
795.64	504.12
795.897	471.12
796.153	516.12
796.41	497.12
796.667	504.12
796.923	509.12
797.18	521.12
797.436	540.12
797.693	515.12
797.949	561.12
798.206	599.12
798.462	506.12
798.718	583.12
798.974	566.12
799.231	615.12
799.487	604.12
799.743	626.12
799.999	659.12
800.255	669.12
800.511	677.12
800.767	757.12
801.023	745.12
801.279	826.12
801.534	909.12
801.79	998.12
802.046	1137.12
802.302	1424.12
802.557	1741.12
802.813	2301.12
803.068	3150.12
803.324	4574.12
803.579	6593.12
803.835	9454.12
804.09	13106.12
804.345	16954.12
804.601	20905.12
804.856	24414.12
805.111	27145.12
805.366	29097.12
805.621	30439.12
805.876	31217.12
806.131	31889.12
806.386	32474.12
806.641	33000.12
806.896	33479.12
807.151	34161.12
807.406	34729.12
807.661	35449.12
807.915	36045.12
808.17	36680.12
808.425	37126.12
808.679	37719.12
808.934	38348.12
809.188	38713.12
809.443	39404.12
809.697	39907.12
809.951	40148.12
810.206	40663.12
810.46	41182.12
810.714	41456.12
810.968	41921.12
811.223	42326.12
811.477	42488.12
811.731	43049.12
811.985	43434.12
812.239	43742.12
812.493	44043.12
812.747	44170.12
813	44489.12
813.254	44726.12
813.508	45030.12
813.762	45445.12
814.015	45472.12
814.269	46157.12
814.522	46334.12
814.776	47046.12
815.03	47806.12
815.283	48451.12
815.536	49281.12
815.79	49854.12
816.043	50849.12
816.296	51640.12
816.55	52141.12
816.803	52947.12
817.056	53787.12
817.309	54390.12
817.562	55074.12
817.815	55840.12
818.068	56468.12
818.321	57240.12
818.574	58257.12
818.827	59127.12
819.079	59893.12
819.332	61142.12
819.585	61862.12
819.838	62811.12
820.09	63592.12
820.343	64145.12
820.595	64651.12
820.848	65120.12
821.1	65492.12
821.353	65423.12
821.605	65623.12
821.857	65796.12
822.11	65465.12
822.362	65586.12
822.614	65456.12
822.866	65586.12
823.118	65383.12
823.37	65867.12
823.622	66091.12
823.874	66311.12
824.126	66825.12
824.378	66984.12
824.63	67291.12
824.882	67544.12
825.134	67564.12
825.385	67498.12
825.637	67640.12
825.888	67476.12
826.14	67252.12
826.392	67339.12
826.643	67085.12
826.895	66988.12
827.146	66824.12
827.397	66695.12
827.649	66920.12
827.9	66765.12
828.151	67011.12
828.402	67113.12
828.653	67407.12
828.905	67572.12
829.156	67693.12
829.407	67685.12
829.658	67618.12
829.909	67943.12
830.159	67861.12
830.41	67446.12
830.661	67215.12
830.912	67063.12
831.162	67073.12
831.413	66936.12
831.664	67028.12
831.914	66873.12
832.165	66978.12
832.415	67169.12
832.666	67155.12
832.916	67101.12
833.167	66838.12
833.417	67050.12
833.667	67010.12
833.917	66830.12
834.168	66559.12
834.418	66399.12
834.668	66277.12
834.918	65982.12
835.168	65927.12
835.418	65487.12
835.668	65647.12
835.918	65487.12
836.167	65532.12
836.417	65452.12
836.667	65550.12
836.917	65318.12
837.166	65232.12
837.416	65287.12
837.666	65415.12
837.915	65439.12
838.165	65287.12
838.414	65038.12
838.663	65014.12
838.913	65067.12
839.162	64983.12
839.411	64556.12
839.661	64460.12
839.91	64624.12
840.159	64548.12
840.408	64702.12
840.657	64969.12
840.906	64796.12
841.155	64829.12
841.404	65074.12
841.653	65016.12
841.902	65046.12
842.15	65231.12
842.399	65315.12
842.648	64953.12
842.897	64681.12
843.145	64579.12
843.394	64237.12
843.642	64092.12
843.891	63703.12
844.139	63880.12
844.388	63479.12
844.636	63158.12
844.884	63329.12
845.133	63150.12
845.381	63405.12
845.629	63053.12
845.877	63149.12
846.125	63260.12
846.373	63012.12
846.621	63014.12
846.869	62913.12
847.117	62635.12
847.365	62199.12
847.613	62084.12
847.861	62289.12
848.108	62217.12
848.356	61848.12
848.604	61828.12
848.851	61912.12
849.099	62164.12
849.346	62316.12
849.594	62637.12
849.841	62755.12
850.089	62994.12
850.336	63041.12
850.583	63124.12
850.831	62807.12
851.078	62140.12
851.325	62172.12
851.572	61883.12
851.819	61316.12
852.066	60605.12
852.313	59969.12
852.56	59707.12
852.807	59486.12
853.054	59428.12
853.301	59363.12
853.548	59422.12
853.794	59686.12
854.041	60050.12
854.288	60555.12
854.534	60878.12
854.781	60811.12
855.028	60539.12
855.274	60416.12
855.52	59973.12
855.767	59912.12
856.013	59858.12
856.26	60106.12
856.506	59589.12
856.752	59462.12
856.998	59724.12
857.244	59785.12
857.49	60159.12
857.736	60257.12
857.982	60302.12
858.228	60295.12
858.474	59849.12
858.72	59500.12
858.966	58994.12
859.212	58400.12
859.458	57885.12
859.703	57498.12
859.949	57239.12
860.195	56790.12
860.44	56252.12
860.686	56191.12
860.931	56125.12
861.177	55818.12
861.422	55998.12
861.667	55841.12
861.913	55934.12
862.158	56249.12
862.403	56215.12
862.648	56554.12
862.893	56625.12
863.138	56468.12
863.384	56333.12
863.629	56332.12
863.873	56422.12
864.118	56236.12
864.363	55854.12
864.608	55367.12
864.853	55430.12
865.098	54965.12
865.342	55016.12
865.587	54770.12
865.832	54780.12
866.076	54768.12
866.321	54631.12
866.565	54587.12
866.81	54434.12
867.054	54391.12
867.298	54268.12
867.543	54031.12
867.787	54071.12
868.031	54095.12
868.275	53964.12
868.519	54097.12
868.764	53989.12
869.008	54050.12
869.252	53771.12
869.496	53684.12
869.739	53646.12
869.983	53502.12
870.227	53580.12
870.471	53562.12
870.715	53938.12
870.958	54022.12
871.202	54159.12
871.446	54297.12
871.689	54178.12
871.933	54032.12
872.176	53977.12
872.42	53858.12
872.663	53927.12
872.906	53733.12
873.15	53256.12
873.393	53035.12
873.636	52706.12
873.879	52318.12
874.122	51751.12
874.366	51405.12
874.609	51186.12
874.852	51022.12
875.095	50865.12
875.337	50589.12
875.58	50570.12
875.823	50331.12
876.066	50188.12
876.309	50313.12
876.551	50210.12
876.794	49875.12
877.037	49998.12
877.279	49736.12
877.522	49835.12
877.764	49884.12
878.007	49709.12
878.249	49847.12
878.491	49741.12
878.734	49711.12
878.976	49544.12
879.218	49203.12
879.46	49053.12
879.702	48769.12
879.945	48516.12
880.187	48065.12
880.429	47861.12
880.671	47619.12
880.912	47709.12
881.154	47522.12
881.396	47585.12
881.638	47532.12
881.88	47613.12
882.121	47361.12
882.363	47179.12
882.605	47134.12
882.846	47074.12
883.088	46846.12
883.329	46815.12
883.571	46867.12
883.812	47071.12
884.053	47317.12
884.295	47645.12
884.536	47914.12
884.777	47713.12
885.018	47774.12
885.259	47505.12
885.5	47567.12
885.742	47697.12
885.982	47523.12
886.223	47086.12
886.464	47094.12
886.705	46818.12
886.946	46416.12
887.187	45982.12
887.428	45605.12
887.668	44982.12
887.909	44689.12
888.15	44470.12
888.39	44109.12
888.631	44065.12
888.871	43430.12
889.111	43257.12
889.352	43088.12
889.592	42743.12
889.833	42425.12
890.073	42214.12
890.313	42100.12
890.553	41621.12
890.793	41437.12
891.033	41533.12
891.273	41229.12
891.513	41204.12
891.753	41112.12
891.993	41016.12
892.233	41183.12
892.473	41278.12
892.713	41301.12
892.952	41156.12
893.192	41127.12
893.432	41128.12
893.671	41061.12
893.911	40983.12
894.15	40593.12
894.39	40349.12
894.629	40218.12
894.869	39916.12
895.108	39619.12
895.347	39556.12
895.587	39427.12
895.826	39299.12
896.065	39391.12
896.304	39180.12
896.543	39225.12
896.782	39051.12
897.021	38955.12
897.26	38899.12
897.499	38873.12
897.738	38680.12
897.977	38520.12
898.216	38155.12
898.454	38053.12
898.693	37644.12
898.932	37708.12
899.17	37551.12
899.409	37451.12
899.647	37410.12
899.886	37449.12
900.124	37549.12
900.363	37452.12
900.601	37488.12
900.839	37477.12
901.078	37635.12
901.316	37811.12
901.554	37982.12
901.792	38052.12
902.03	37968.12
902.268	37876.12
902.506	37794.12
902.744	37551.12
902.982	37408.12
903.22	36736.12
903.458	36394.12
903.695	36235.12
903.933	35688.12
904.171	35238.12
904.409	34742.12
904.646	34318.12
904.884	33927.12
905.121	33810.12
905.359	33433.12
905.596	33323.12
905.833	33035.12
906.071	32870.12
906.308	32845.12
906.545	32687.12
906.783	32620.12
907.02	32536.12
907.257	32622.12
907.494	32588.12
907.731	32461.12
907.968	32380.12
908.205	32182.12
908.442	32038.12
908.679	31918.12
908.915	31696.12
909.152	31487.12
909.389	31169.12
909.626	31081.12
909.862	30891.12
910.099	30646.12
910.335	30741.12
910.572	30424.12
910.808	30453.12
911.045	30267.12
911.281	30249.12
911.518	30161.12
911.754	29876.12
911.99	29784.12
912.226	29585.12
912.463	29295.12
912.699	29365.12
912.935	28939.12
913.171	28847.12
913.407	28605.12
913.643	28461.12
913.879	28212.12
914.114	27992.12
914.35	27758.12
914.586	27549.12
914.822	27263.12
915.057	27249.12
915.293	26897.12
915.529	26836.12
915.764	26896.12
916	26809.12
916.235	26972.12
916.471	26835.12
916.706	26686.12
916.941	26711.12
917.177	26499.12
917.412	26537.12
917.647	26516.12
917.882	26350.12
918.117	26448.12
918.352	26423.12
918.588	26268.12
918.823	26080.12
919.057	25811.12
919.292	25515.12
919.527	25361.12
919.762	25126.12
919.997	24853.12
920.232	24732.12
920.466	24488.12
920.701	24276.12
920.935	24103.12
921.17	24004.12
921.405	23950.12
921.639	23893.12
921.873	23797.12
922.108	23623.12
922.342	23593.12
922.576	23561.12
922.811	23363.12
923.045	23396.12
923.279	23366.12
923.513	23053.12
923.747	23009.12
923.981	22990.12
924.215	22723.12
924.449	22679.12
924.683	22424.12
924.917	22424.12
925.151	22251.12
925.385	22355.12
925.618	22271.12
925.852	22158.12
926.086	22157.12
926.319	22149.12
926.553	22097.12
926.786	22008.12
927.02	21985.12
927.253	21999.12
927.486	21961.12
927.72	21915.12
927.953	21894.12
928.186	21745.12
928.42	21701.12
928.653	21644.12
928.886	21530.12
929.119	21410.12
929.352	21377.12
929.585	21206.12
929.818	21185.12
930.051	21014.12
930.284	20708.12
930.516	20510.12
930.749	20411.12
930.982	20416.12
931.215	20305.12
931.447	20219.12
931.68	20097.12
931.912	20016.12
932.145	20170.12
932.377	20081.12
932.61	20286.12
932.842	20106.12
933.074	20113.12
933.307	20056.12
933.539	20023.12
933.771	20044.12
934.003	20011.12
934.236	20030.12
934.468	20040.12
934.7	19947.12
934.932	19932.12
935.164	19816.12
935.395	19765.12
935.627	19716.12
935.859	19661.12
936.091	19416.12
936.323	19444.12
936.554	19365.12
936.786	19464.12
937.017	19244.12
937.249	19197.12
937.481	19159.12
937.712	19253.12
937.943	19036.12
938.175	19103.12
938.406	19041.12
938.637	19112.12
938.869	19026.12
939.1	18968.12
939.331	18963.12
939.562	18930.12
939.793	18827.12
940.024	18703.12
940.255	18684.12
940.486	18597.12
940.717	18529.12
940.948	18442.12
941.179	18368.12
941.409	18360.12
941.64	18315.12
941.871	18293.12
942.102	18285.12
942.332	18266.12
942.563	18347.12
942.793	18381.12
943.024	18190.12
943.254	18321.12
943.484	18341.12
943.715	18303.12
943.945	18229.12
944.175	18208.12
944.405	18105.12
944.636	18179.12
944.866	18123.12
945.096	18115.12
945.326	17916.12
945.556	18008.12
945.786	17872.12
946.016	17775.12
946.245	17574.12
946.475	17464.12
946.705	17392.12
946.935	17327.12
947.164	17307.12
947.394	17107.12
947.624	17159.12
947.853	17065.12
948.083	16953.12
948.312	16986.12
948.542	16867.12
948.771	16771.12
949	16698.12
949.23	16678.12
949.459	16771.12
949.688	16740.12
949.917	16612.12
950.146	16776.12
950.375	16759.12
950.604	16613.12
950.833	16657.12
951.062	16617.12
951.291	16581.12
951.52	16581.12
951.749	16490.12
951.978	16394.12
952.206	16474.12
952.435	16318.12
952.664	16371.12
952.892	16352.12
953.121	16216.12
953.349	16087.12
953.578	16134.12
953.806	16015.12
954.035	15943.12
954.263	15885.12
954.491	15765.12
954.719	15712.12
954.948	15600.12
955.176	15631.12
955.404	15478.12
955.632	15374.12
955.86	15396.12
956.088	15255.12
956.316	15225.12
956.544	15238.12
956.772	15138.12
956.999	15052.12
957.227	15039.12
957.455	14784.12
957.683	14836.12
957.91	14702.12
958.138	14708.12
958.365	14669.12
958.593	14499.12
958.82	14451.12
959.048	14544.12
959.275	14410.12
959.502	14401.12
959.73	14345.12
959.957	14404.12
960.184	14314.12
960.411	14235.12
960.638	14307.12
960.865	14300.12
961.092	14234.12
961.319	14100.12
961.546	14192.12
961.773	14196.12
962	14145.12
962.227	14180.12
962.454	14003.12
962.68	13949.12
962.907	13894.12
963.134	13780.12
963.36	13683.12
963.587	13664.12
963.813	13551.12
964.04	13562.12
964.266	13354.12
964.493	13402.12
964.719	13299.12
964.945	13202.12
965.171	13120.12
965.398	13095.12
965.624	13059.12
965.85	12959.12
966.076	12844.12
966.302	12791.12
966.528	12797.12
966.754	12736.12
966.98	12737.12
967.206	12707.12
967.431	12607.12
967.657	12557.12
967.883	12603.12
968.109	12534.12
968.334	12462.12
968.56	12366.12
968.785	12328.12
969.011	12251.12
969.236	12316.12
969.462	12385.12
969.687	12269.12
969.912	12184.12
970.138	12160.12
970.363	12170.12
970.588	12137.12
970.813	12070.12
971.038	11891.12
971.263	11894.12
971.488	11939.12
971.713	11851.12
971.938	11788.12
972.163	11677.12
972.388	11627.12
972.613	11573.12
972.838	11547.12
973.062	11544.12
973.287	11499.12
973.512	11307.12
973.736	11312.12
973.961	11274.12
974.185	11147.12
974.41	11199.12
974.634	11064.12
974.858	10901.12
975.083	10945.12
975.307	10850.12
975.531	10808.12
975.755	10709.12
975.98	10713.12
976.204	10566.12
976.428	10560.12
976.652	10520.12
976.876	10484.12
977.1	10348.12
977.324	10366.12
977.547	10286.12
977.771	10317.12
977.995	10270.12
978.219	10214.12
978.442	10290.12
978.666	10194.12
978.89	10110.12
979.113	10190.12
979.337	10083.12
979.56	10063.12
979.783	10061.12
980.007	9936.12
980.23	9949.12
980.453	9852.12
980.677	9856.12
980.9	9739.12
981.123	9643.12
981.346	9665.12
981.569	9574.12
981.792	9601.12
982.015	9485.12
982.238	9413.12
982.461	9397.12
982.684	9226.12
982.907	9290.12
983.129	9158.12
983.352	9191.12
983.575	9105.12
983.797	9034.12
984.02	8947.12
984.242	8958.12
984.465	8900.12
984.687	8882.12
984.91	8993.12
985.132	8792.12
985.354	8830.12
985.577	8706.12
985.799	8715.12
986.021	8535.12
986.243	8517.12
986.465	8583.12
986.687	8520.12
986.909	8549.12
987.131	8459.12
987.353	8392.12
987.575	8422.12
987.797	8365.12
988.019	8306.12
988.241	8305.12
988.462	8202.12
988.684	8239.12
988.906	8264.12
989.127	8246.12
989.349	8161.12
989.57	8068.12
989.792	8153.12
990.013	8068.12
990.234	8072.12
990.456	7999.12
990.677	8016.12
990.898	7886.12
991.119	7888.12
991.341	7842.12
991.562	7739.12
991.783	7746.12
992.004	7662.12
992.225	7538.12
992.446	7577.12
992.667	7457.12
992.887	7503.12
993.108	7320.12
993.329	7470.12
993.55	7310.12
993.77	7203.12
993.991	7234.12
994.212	7123.12
994.432	7086.12
994.653	7106.12
994.873	7080.12
995.093	6929.12
995.314	6960.12
995.534	7009.12
995.754	6979.12
995.975	6872.12
996.195	6775.12
996.415	6825.12
996.635	6828.12
996.855	6770.12
997.075	6792.12
997.295	6736.12
997.515	6698.12
997.735	6709.12
997.955	6681.12
998.174	6640.12
998.394	6626.12
998.614	6665.12
998.834	6566.12
999.053	6591.12
999.273	6551.12
999.492	6549.12
999.712	6438.12
999.931	6401.12
1000.151	6406.12
1000.37	6332.12
1000.589	6349.12
1000.809	6181.12
1001.028	6269.12
1001.247	6172.12
1001.466	6043.12
1001.685	6132.12
1001.904	6005.12
1002.123	5949.12
1002.342	5951.12
1002.561	5865.12
1002.78	5829.12
1002.999	5861.12
1003.218	5840.12
1003.436	5770.12
1003.655	5804.12
1003.874	5588.12
1004.092	5670.12
1004.311	5659.12
1004.53	5616.12
1004.748	5641.12
1004.966	5528.12
1005.185	5535.12
1005.403	5526.12
1005.622	5502.12
1005.84	5542.12
1006.058	5405.12
1006.276	5440.12
1006.494	5822.12
1006.712	5452.12
1006.931	5486.12
1007.149	5381.12
1007.367	5342.12
1007.584	5384.12
1007.802	5440.12
1008.02	5430.12
1008.238	5458.12
1008.456	5491.12
1008.673	5331.12
1008.891	5428.12
1009.109	5424.12
1009.326	5532.12
1009.544	5552.12
1009.761	5550.12
1009.979	5724.12
1010.196	5742.12
1010.413	5920.12
1010.631	6066.12
1010.848	6146.12
1011.065	6191.12
1011.282	6142.12
1011.5	6033.12
1011.717	6140.12
1011.934	6010.12
1012.151	6072.12
1012.368	5995.12
1012.585	5962.12
1012.801	5973.12
1013.018	5951.12
1013.235	5948.12
1013.452	5953.12
1013.669	6040.12
1013.885	5965.12
1014.102	6033.12
1014.318	6002.12
1014.535	5917.12
1014.751	5955.12
1014.968	5829.12
1015.184	5826.12
1015.401	5726.12
1015.617	5708.12
1015.833	5629.12
1016.049	5617.12
1016.266	5510.12
1016.482	5517.12
1016.698	5373.12
1016.914	5423.12
1017.13	5422.12
1017.346	5338.12
1017.562	5369.12
1017.778	5300.12
1017.993	5245.12
1018.209	5310.12
1018.425	5304.12
1018.641	5282.12
1018.856	5211.12
1019.072	5250.12
1019.288	5303.12
1019.503	5213.12
1019.719	5118.12
1019.934	5083.12
1020.149	5162.12
1020.365	5052.12
1020.58	4901.12
1020.795	4889.12
1021.011	4769.12
1021.226	4665.12
1021.441	4628.12
1021.656	4490.12
1021.871	4360.12
1022.086	4233.12
1022.301	4205.12
1022.516	4176.12
1022.731	4159.12
1022.946	4017.12
1023.16	3946.12
1023.375	3858.12
1023.59	3811.12
1023.804	3749.12
1024.019	3738.12
1024.234	3584.12
1024.448	3592.12
1024.663	3413.12
1024.877	3381.12
1025.092	3382.12
1025.306	3313.12
1025.52	3172.12
1025.734	3213.12
1025.949	3077.12
1026.163	3002.12
1026.377	2862.12
1026.591	2861.12
1026.805	2766.12
1027.019	2705.12
1027.233	2670.12
1027.447	2583.12
1027.661	2632.12
1027.875	2551.12
1028.088	2510.12
1028.302	2386.12
1028.516	2334.12
1028.73	2290.12
1028.943	2169.12
1029.157	2057.12
1029.37	1922.12
1029.584	-0.88
1029.797	-0.88
1030.011	-1.88
1030.224	-2.88
