Data from QEP037381__43__10-34-50-507.txt Node

Date: Fri Apr 28 10:34:50 EDT 2023
User: dcclab
Spectrometer: QEP03738
Trigger mode: 4
Integration Time (sec): 1.000000E1
Scans to average: 1
Electric dark correction enabled: true
Nonlinearity correction enabled: false
Boxcar width: 0
XAxis mode: Wavelengths
Number of Pixels in Spectrum: 1044
>>>>>Begin Spectral Data<<<<<
784.041	12.12
784.3	0.12
784.558	-2.88
784.817	-3.88
785.075	78086.12
785.334	15737.12
785.592	8216.12
785.851	5782.12
786.109	4407.12
786.368	3414.12
786.626	2729.12
786.884	2336.12
787.143	1974.12
787.401	1611.12
787.659	1454.12
787.917	1239.12
788.175	1161.12
788.433	1026.12
788.691	921.12
788.949	844.12
789.207	828.12
789.465	714.12
789.723	702.12
789.98	638.12
790.238	663.12
790.496	627.12
790.753	623.12
791.011	664.12
791.268	594.12
791.526	571.12
791.783	600.12
792.041	576.12
792.298	497.12
792.556	558.12
792.813	551.12
793.07	505.12
793.327	515.12
793.584	579.12
793.841	512.12
794.099	533.12
794.356	597.12
794.613	492.12
794.869	541.12
795.126	505.12
795.383	473.12
795.64	512.12
795.897	481.12
796.153	536.12
796.41	514.12
796.667	497.12
796.923	511.12
797.18	520.12
797.436	533.12
797.693	525.12
797.949	566.12
798.206	596.12
798.462	513.12
798.718	568.12
798.974	569.12
799.231	595.12
799.487	607.12
799.743	628.12
799.999	658.12
800.255	666.12
800.511	697.12
800.767	706.12
801.023	731.12
801.279	834.12
801.534	870.12
801.79	1005.12
802.046	1122.12
802.302	1383.12
802.557	1704.12
802.813	2217.12
803.068	3040.12
803.324	4354.12
803.579	6326.12
803.835	9146.12
804.09	12720.12
804.345	16659.12
804.601	20771.12
804.856	24405.12
805.111	27153.12
805.366	28906.12
805.621	30092.12
805.876	31028.12
806.131	31528.12
806.386	32079.12
806.641	32727.12
806.896	33311.12
807.151	33772.12
807.406	34456.12
807.661	35158.12
807.915	35840.12
808.17	36542.12
808.425	37018.12
808.679	37500.12
808.934	38042.12
809.188	38579.12
809.443	39109.12
809.697	39790.12
809.951	40158.12
810.206	40581.12
810.46	40896.12
810.714	41386.12
810.968	41742.12
811.223	42004.12
811.477	42511.12
811.731	42715.12
811.985	43190.12
812.239	43546.12
812.493	43837.12
812.747	44217.12
813	44284.12
813.254	44616.12
813.508	44948.12
813.762	45165.12
814.015	45498.12
814.269	45903.12
814.522	46492.12
814.776	46977.12
815.03	47751.12
815.283	48384.12
815.536	49251.12
815.79	49845.12
816.043	50734.12
816.296	51517.12
816.55	52151.12
816.803	53056.12
817.056	53624.12
817.309	54298.12
817.562	55179.12
817.815	55983.12
818.068	56512.12
818.321	57358.12
818.574	58273.12
818.827	59281.12
819.079	60350.12
819.332	61470.12
819.585	62104.12
819.838	63132.12
820.09	63770.12
820.343	64349.12
820.595	64901.12
820.848	65449.12
821.1	65640.12
821.353	65835.12
821.605	65765.12
821.857	65626.12
822.11	65674.12
822.362	65879.12
822.614	65743.12
822.866	65664.12
823.118	65808.12
823.37	66123.12
823.622	66367.12
823.874	66430.12
824.126	66833.12
824.378	67035.12
824.63	67581.12
824.882	67792.12
825.134	67701.12
825.385	67861.12
825.637	67863.12
825.888	67548.12
826.14	67542.12
826.392	67238.12
826.643	67157.12
826.895	67109.12
827.146	66973.12
827.397	66790.12
827.649	66951.12
827.9	66921.12
828.151	67220.12
828.402	67063.12
828.653	67665.12
828.905	67491.12
829.156	67903.12
829.407	67923.12
829.658	67929.12
829.909	67817.12
830.159	67846.12
830.41	67440.12
830.661	67432.12
830.912	67056.12
831.162	67043.12
831.413	66884.12
831.664	66864.12
831.914	66996.12
832.165	67014.12
832.415	67100.12
832.666	67134.12
832.916	67125.12
833.167	66890.12
833.417	67001.12
833.667	66770.12
833.917	66809.12
834.168	66535.12
834.418	66343.12
834.668	66340.12
834.918	66112.12
835.168	65803.12
835.418	65581.12
835.668	65565.12
835.918	65609.12
836.167	65603.12
836.417	65519.12
836.667	65441.12
836.917	65192.12
837.166	65219.12
837.416	65418.12
837.666	65173.12
837.915	65223.12
838.165	65082.12
838.414	64987.12
838.663	64664.12
838.913	64820.12
839.162	64753.12
839.411	64684.12
839.661	64300.12
839.91	64317.12
840.159	64310.12
840.408	64543.12
840.657	64480.12
840.906	64627.12
841.155	64699.12
841.404	64918.12
841.653	64747.12
841.902	64832.12
842.15	65094.12
842.399	65123.12
842.648	64842.12
842.897	64695.12
843.145	64351.12
843.394	64160.12
843.642	63788.12
843.891	63754.12
844.139	63609.12
844.388	63097.12
844.636	63008.12
844.884	63059.12
845.133	63030.12
845.381	62774.12
845.629	62870.12
845.877	62846.12
846.125	62634.12
846.373	62753.12
846.621	62641.12
846.869	62644.12
847.117	62261.12
847.365	61997.12
847.613	62008.12
847.861	61878.12
848.108	61787.12
848.356	61780.12
848.604	61592.12
848.851	61853.12
849.099	61917.12
849.346	61935.12
849.594	62240.12
849.841	62627.12
850.089	62610.12
850.336	62796.12
850.583	62659.12
850.831	62323.12
851.078	61817.12
851.325	61884.12
851.572	61662.12
851.819	61117.12
852.066	60220.12
852.313	59516.12
852.56	59376.12
852.807	59407.12
853.054	59224.12
853.301	58988.12
853.548	58971.12
853.794	59576.12
854.041	59732.12
854.288	60012.12
854.534	60156.12
854.781	60473.12
855.028	60384.12
855.274	60226.12
855.52	59889.12
855.767	59620.12
856.013	59500.12
856.26	59622.12
856.506	58999.12
856.752	59036.12
856.998	59195.12
857.244	59495.12
857.49	59497.12
857.736	59694.12
857.982	59772.12
858.228	59875.12
858.474	59463.12
858.72	59019.12
858.966	58565.12
859.212	57992.12
859.458	57683.12
859.703	56919.12
859.949	56600.12
860.195	56338.12
860.44	56125.12
860.686	55719.12
860.931	55643.12
861.177	55580.12
861.422	55462.12
861.667	55424.12
861.913	55646.12
862.158	55854.12
862.403	55934.12
862.648	56172.12
862.893	56047.12
863.138	56199.12
863.384	56059.12
863.629	56098.12
863.873	56070.12
864.118	55695.12
864.363	55682.12
864.608	55150.12
864.853	54968.12
865.098	54706.12
865.342	54638.12
865.587	54428.12
865.832	54391.12
866.076	54264.12
866.321	54196.12
866.565	54005.12
866.81	53936.12
867.054	53952.12
867.298	53687.12
867.543	53853.12
867.787	53780.12
868.031	53671.12
868.275	53635.12
868.519	53779.12
868.764	53568.12
869.008	53564.12
869.252	53456.12
869.496	53272.12
869.739	53268.12
869.983	53202.12
870.227	53134.12
870.471	53133.12
870.715	53385.12
870.958	53474.12
871.202	53455.12
871.446	53686.12
871.689	53428.12
871.933	53404.12
872.176	53374.12
872.42	53394.12
872.663	53557.12
872.906	53207.12
873.15	52757.12
873.393	52702.12
873.636	52249.12
873.879	51799.12
874.122	51442.12
874.366	50907.12
874.609	50729.12
874.852	50585.12
875.095	50383.12
875.337	50220.12
875.58	50213.12
875.823	50233.12
876.066	50021.12
876.309	49926.12
876.551	49656.12
876.794	49598.12
877.037	49468.12
877.279	49424.12
877.522	49534.12
877.764	49619.12
878.007	49598.12
878.249	49475.12
878.491	49456.12
878.734	49458.12
878.976	49293.12
879.218	49035.12
879.46	48858.12
879.702	48368.12
879.945	48107.12
880.187	47797.12
880.429	47588.12
880.671	47416.12
880.912	47258.12
881.154	47221.12
881.396	47041.12
881.638	47267.12
881.88	47186.12
882.121	47178.12
882.363	47011.12
882.605	46913.12
882.846	46707.12
883.088	46820.12
883.329	46608.12
883.571	46408.12
883.812	46573.12
884.053	46796.12
884.295	47169.12
884.536	47370.12
884.777	47200.12
885.018	47225.12
885.259	47032.12
885.5	46968.12
885.742	47134.12
885.982	46986.12
886.223	46935.12
886.464	46534.12
886.705	46314.12
886.946	46063.12
887.187	45591.12
887.428	45223.12
887.668	44830.12
887.909	44487.12
888.15	44226.12
888.39	43977.12
888.631	43601.12
888.871	43285.12
889.111	42947.12
889.352	42811.12
889.592	42527.12
889.833	42162.12
890.073	41943.12
890.313	41971.12
890.553	41601.12
890.793	41483.12
891.033	41446.12
891.273	41049.12
891.513	41015.12
891.753	41001.12
891.993	40829.12
892.233	41058.12
892.473	41127.12
892.713	41098.12
892.952	41044.12
893.192	41055.12
893.432	40902.12
893.671	40958.12
893.911	40911.12
894.15	40602.12
894.39	40271.12
894.629	40149.12
894.869	39975.12
895.108	39581.12
895.347	39550.12
895.587	39261.12
895.826	39086.12
896.065	39173.12
896.304	39070.12
896.543	39029.12
896.782	38904.12
897.021	38912.12
897.26	38736.12
897.499	38705.12
897.738	38669.12
897.977	38277.12
898.216	38028.12
898.454	37725.12
898.693	37484.12
898.932	37299.12
899.17	37393.12
899.409	37200.12
899.647	37264.12
899.886	37097.12
900.124	37293.12
900.363	37240.12
900.601	37363.12
900.839	37297.12
901.078	37317.12
901.316	37475.12
901.554	37662.12
901.792	37709.12
902.03	37731.12
902.268	37616.12
902.506	37505.12
902.744	37280.12
902.982	37086.12
903.22	36633.12
903.458	36287.12
903.695	35744.12
903.933	35527.12
904.171	35092.12
904.409	34779.12
904.646	34330.12
904.884	33931.12
905.121	33690.12
905.359	33308.12
905.596	33220.12
905.833	32958.12
906.071	32755.12
906.308	32731.12
906.545	32891.12
906.783	32567.12
907.02	32577.12
907.257	32543.12
907.494	32519.12
907.731	32472.12
907.968	32369.12
908.205	32174.12
908.442	32004.12
908.679	31818.12
908.915	31679.12
909.152	31398.12
909.389	31147.12
909.626	30995.12
909.862	30859.12
910.099	30639.12
910.335	30609.12
910.572	30339.12
910.808	30427.12
911.045	30279.12
911.281	30205.12
911.518	30127.12
911.754	29950.12
911.99	29721.12
912.226	29481.12
912.463	29310.12
912.699	29292.12
912.935	28967.12
913.171	28833.12
913.407	28537.12
913.643	28364.12
913.879	28215.12
914.114	27819.12
914.35	27709.12
914.586	27538.12
914.822	27322.12
915.057	27112.12
915.293	26790.12
915.529	26737.12
915.764	26904.12
916	26793.12
916.235	26744.12
916.471	26655.12
916.706	26554.12
916.941	26619.12
917.177	26506.12
917.412	26627.12
917.647	26584.12
917.882	26518.12
918.117	26576.12
918.352	26427.12
918.588	26342.12
918.823	26080.12
919.057	25828.12
919.292	25585.12
919.527	25425.12
919.762	25132.12
919.997	24893.12
920.232	24621.12
920.466	24440.12
920.701	24290.12
920.935	24021.12
921.17	23961.12
921.405	23828.12
921.639	23767.12
921.873	23767.12
922.108	23714.12
922.342	23619.12
922.576	23443.12
922.811	23520.12
923.045	23465.12
923.279	23377.12
923.513	23100.12
923.747	23114.12
923.981	22863.12
924.215	22715.12
924.449	22668.12
924.683	22551.12
924.917	22332.12
925.151	22312.12
925.385	22341.12
925.618	22201.12
925.852	22217.12
926.086	22102.12
926.319	22100.12
926.553	22058.12
926.786	22040.12
927.02	22124.12
927.253	22120.12
927.486	21956.12
927.72	21933.12
927.953	21949.12
928.186	21765.12
928.42	21771.12
928.653	21641.12
928.886	21590.12
929.119	21485.12
929.352	21314.12
929.585	21268.12
929.818	21108.12
930.051	20992.12
930.284	20791.12
930.516	20513.12
930.749	20425.12
930.982	20398.12
931.215	20410.12
931.447	20192.12
931.68	20226.12
931.912	20089.12
932.145	20056.12
932.377	20166.12
932.61	20317.12
932.842	20057.12
933.074	20140.12
933.307	20040.12
933.539	20169.12
933.771	20090.12
934.003	20045.12
934.236	20249.12
934.468	20190.12
934.7	19952.12
934.932	19982.12
935.164	19905.12
935.395	19790.12
935.627	19763.12
935.859	19623.12
936.091	19541.12
936.323	19600.12
936.554	19453.12
936.786	19344.12
937.017	19226.12
937.249	19332.12
937.481	19312.12
937.712	19262.12
937.943	19207.12
938.175	19186.12
938.406	19059.12
938.637	19177.12
938.869	19020.12
939.1	19036.12
939.331	18976.12
939.562	18990.12
939.793	18849.12
940.024	18793.12
940.255	18754.12
940.486	18561.12
940.717	18602.12
940.948	18519.12
941.179	18463.12
941.409	18371.12
941.64	18319.12
941.871	18398.12
942.102	18415.12
942.332	18361.12
942.563	18394.12
942.793	18338.12
943.024	18301.12
943.254	18333.12
943.484	18422.12
943.715	18357.12
943.945	18378.12
944.175	18283.12
944.405	18199.12
944.636	18200.12
944.866	18245.12
945.096	18275.12
945.326	18081.12
945.556	18057.12
945.786	18061.12
946.016	17865.12
946.245	17753.12
946.475	17589.12
946.705	17440.12
946.935	17435.12
947.164	17382.12
947.394	17251.12
947.624	17181.12
947.853	17237.12
948.083	17041.12
948.312	17101.12
948.542	16949.12
948.771	16771.12
949	16935.12
949.23	16977.12
949.459	16946.12
949.688	16989.12
949.917	16828.12
950.146	16811.12
950.375	16895.12
950.604	16764.12
950.833	16862.12
951.062	16830.12
951.291	16647.12
951.52	16707.12
951.749	16688.12
951.978	16491.12
952.206	16515.12
952.435	16536.12
952.664	16490.12
952.892	16441.12
953.121	16415.12
953.349	16300.12
953.578	16306.12
953.806	16196.12
954.035	16032.12
954.263	15916.12
954.491	15956.12
954.719	15899.12
954.948	15793.12
955.176	15748.12
955.404	15636.12
955.632	15611.12
955.86	15583.12
956.088	15470.12
956.316	15464.12
956.544	15422.12
956.772	15332.12
956.999	15109.12
957.227	15157.12
957.455	15032.12
957.683	14982.12
957.91	14843.12
958.138	14759.12
958.365	14842.12
958.593	14760.12
958.82	14685.12
959.048	14601.12
959.275	14571.12
959.502	14600.12
959.73	14567.12
959.957	14458.12
960.184	14544.12
960.411	14513.12
960.638	14489.12
960.865	14401.12
961.092	14382.12
961.319	14293.12
961.546	14359.12
961.773	14337.12
962	14323.12
962.227	14386.12
962.454	14232.12
962.68	14142.12
962.907	14100.12
963.134	14002.12
963.36	13920.12
963.587	13900.12
963.813	13684.12
964.04	13613.12
964.266	13515.12
964.493	13653.12
964.719	13420.12
964.945	13464.12
965.171	13284.12
965.398	13247.12
965.624	13195.12
965.85	13065.12
966.076	13016.12
966.302	13039.12
966.528	12983.12
966.754	12966.12
966.98	12899.12
967.206	12850.12
967.431	12748.12
967.657	12755.12
967.883	12824.12
968.109	12715.12
968.334	12687.12
968.56	12634.12
968.785	12592.12
969.011	12499.12
969.236	12471.12
969.462	12490.12
969.687	12504.12
969.912	12494.12
970.138	12368.12
970.363	12225.12
970.588	12365.12
970.813	12226.12
971.038	12101.12
971.263	12150.12
971.488	12165.12
971.713	12125.12
971.938	11957.12
972.163	11958.12
972.388	11866.12
972.613	11787.12
972.838	11774.12
973.062	11709.12
973.287	11650.12
973.512	11558.12
973.736	11547.12
973.961	11404.12
974.185	11404.12
974.41	11413.12
974.634	11286.12
974.858	11186.12
975.083	11104.12
975.307	11139.12
975.531	10994.12
975.755	10943.12
975.98	10866.12
976.204	10741.12
976.428	10710.12
976.652	10659.12
976.876	10660.12
977.1	10620.12
977.324	10560.12
977.547	10599.12
977.771	10592.12
977.995	10475.12
978.219	10407.12
978.442	10490.12
978.666	10418.12
978.89	10319.12
979.113	10338.12
979.337	10240.12
979.56	10192.12
979.783	10340.12
980.007	10165.12
980.23	10143.12
980.453	10004.12
980.677	10037.12
980.9	10027.12
981.123	9865.12
981.346	9912.12
981.569	9809.12
981.792	9797.12
982.015	9706.12
982.238	9556.12
982.461	9619.12
982.684	9469.12
982.907	9397.12
983.129	9409.12
983.352	9361.12
983.575	9275.12
983.797	9281.12
984.02	9197.12
984.242	9143.12
984.465	9115.12
984.687	9097.12
984.91	9127.12
985.132	9024.12
985.354	8978.12
985.577	8874.12
985.799	8805.12
986.021	8805.12
986.243	8751.12
986.465	8708.12
986.687	8839.12
986.909	8791.12
987.131	8629.12
987.353	8637.12
987.575	8594.12
987.797	8552.12
988.019	8477.12
988.241	8522.12
988.462	8447.12
988.684	8494.12
988.906	8453.12
989.127	8482.12
989.349	8366.12
989.57	8270.12
989.792	8362.12
990.013	8267.12
990.234	8267.12
990.456	8244.12
990.677	8252.12
990.898	8071.12
991.119	8094.12
991.341	8128.12
991.562	7919.12
991.783	7873.12
992.004	7843.12
992.225	7727.12
992.446	7821.12
992.667	7627.12
992.887	7631.12
993.108	7578.12
993.329	7669.12
993.55	7531.12
993.77	7379.12
993.991	7370.12
994.212	7334.12
994.432	7318.12
994.653	7307.12
994.873	7260.12
995.093	7123.12
995.314	7176.12
995.534	7151.12
995.754	7147.12
995.975	7090.12
996.195	6968.12
996.415	7029.12
996.635	6923.12
996.855	6998.12
997.075	6893.12
997.295	6902.12
997.515	6839.12
997.735	6925.12
997.955	6899.12
998.174	6847.12
998.394	6831.12
998.614	6813.12
998.834	6727.12
999.053	6822.12
999.273	6699.12
999.492	6726.12
999.712	6624.12
999.931	6604.12
1000.151	6619.12
1000.37	6520.12
1000.589	6544.12
1000.809	6439.12
1001.028	6490.12
1001.247	6411.12
1001.466	6182.12
1001.685	6356.12
1001.904	6224.12
1002.123	6111.12
1002.342	6115.12
1002.561	6136.12
1002.78	6069.12
1002.999	6052.12
1003.218	6004.12
1003.436	5885.12
1003.655	5920.12
1003.874	5844.12
1004.092	5861.12
1004.311	5859.12
1004.53	5782.12
1004.748	5837.12
1004.966	5719.12
1005.185	5723.12
1005.403	5742.12
1005.622	5651.12
1005.84	5687.12
1006.058	5651.12
1006.276	5614.12
1006.494	5960.12
1006.712	5560.12
1006.931	5643.12
1007.149	5579.12
1007.367	5524.12
1007.584	5600.12
1007.802	5579.12
1008.02	5611.12
1008.238	5631.12
1008.456	5581.12
1008.673	5517.12
1008.891	5629.12
1009.109	5606.12
1009.326	5703.12
1009.544	5757.12
1009.761	5695.12
1009.979	5817.12
1010.196	5929.12
1010.413	6103.12
1010.631	6235.12
1010.848	6314.12
1011.065	6415.12
1011.282	6281.12
1011.5	6233.12
1011.717	6286.12
1011.934	6234.12
1012.151	6246.12
1012.368	6254.12
1012.585	6151.12
1012.801	6169.12
1013.018	6191.12
1013.235	6152.12
1013.452	6207.12
1013.669	6185.12
1013.885	6123.12
1014.102	6264.12
1014.318	6138.12
1014.535	6069.12
1014.751	6109.12
1014.968	6040.12
1015.184	6032.12
1015.401	5899.12
1015.617	5906.12
1015.833	5827.12
1016.049	5762.12
1016.266	5736.12
1016.482	5679.12
1016.698	5589.12
1016.914	5643.12
1017.13	5585.12
1017.346	5506.12
1017.562	5634.12
1017.778	5542.12
1017.993	5436.12
1018.209	5532.12
1018.425	5487.12
1018.641	5462.12
1018.856	5462.12
1019.072	5439.12
1019.288	5495.12
1019.503	5406.12
1019.719	5304.12
1019.934	5312.12
1020.149	5286.12
1020.365	5194.12
1020.58	5070.12
1020.795	5100.12
1021.011	4922.12
1021.226	4854.12
1021.441	4841.12
1021.656	4629.12
1021.871	4533.12
1022.086	4453.12
1022.301	4385.12
1022.516	4296.12
1022.731	4289.12
1022.946	4173.12
1023.16	4100.12
1023.375	4045.12
1023.59	3979.12
1023.804	3906.12
1024.019	3928.12
1024.234	3733.12
1024.448	3736.12
1024.663	3574.12
1024.877	3532.12
1025.092	3530.12
1025.306	3485.12
1025.52	3307.12
1025.734	3308.12
1025.949	3156.12
1026.163	3130.12
1026.377	2970.12
1026.591	2988.12
1026.805	2893.12
1027.019	2860.12
1027.233	2719.12
1027.447	2701.12
1027.661	2742.12
1027.875	2631.12
1028.088	2619.12
1028.302	2484.12
1028.516	2428.12
1028.73	2362.12
1028.943	2270.12
1029.157	2091.12
1029.37	1984.12
1029.584	-1.88
1029.797	0.12
1030.011	0.12
1030.224	-3.88
