Data from QEP037381__31__14-33-53-471.txt Node

Date: Wed Dec 21 14:33:53 EST 2022
User: dcclab
Spectrometer: QEP03738
Trigger mode: 4
Integration Time (sec): 1.000000E1
Scans to average: 1
Electric dark correction enabled: true
Nonlinearity correction enabled: false
Boxcar width: 0
XAxis mode: Wavelengths
Number of Pixels in Spectrum: 1044
>>>>>Begin Spectral Data<<<<<
784.041	9.62
784.3	-3.38
784.558	-0.38
784.817	-4.38
785.075	91480.62
785.334	15437.62
785.592	6982.62
785.851	4774.62
786.109	3631.62
786.368	2847.62
786.626	2295.62
786.884	1926.62
787.143	1648.62
787.401	1366.62
787.659	1211.62
787.917	1051.62
788.175	972.62
788.433	856.62
788.691	766.62
788.949	717.62
789.207	702.62
789.465	608.62
789.723	593.62
789.98	544.62
790.238	568.62
790.496	540.62
790.753	497.62
791.011	563.62
791.268	485.62
791.526	479.62
791.783	485.62
792.041	498.62
792.298	402.62
792.556	472.62
792.813	449.62
793.07	422.62
793.327	418.62
793.584	502.62
793.841	412.62
794.099	446.62
794.356	490.62
794.613	384.62
794.869	433.62
795.126	394.62
795.383	380.62
795.64	417.62
795.897	355.62
796.153	411.62
796.41	394.62
796.667	388.62
796.923	384.62
797.18	374.62
797.436	415.62
797.693	374.62
797.949	418.62
798.206	461.62
798.462	365.62
798.718	428.62
798.974	388.62
799.231	458.62
799.487	429.62
799.743	448.62
799.999	456.62
800.255	451.62
800.511	416.62
800.767	467.62
801.023	438.62
801.279	462.62
801.534	492.62
801.79	517.62
802.046	507.62
802.302	614.62
802.557	665.62
802.813	765.62
803.068	880.62
803.324	1185.62
803.579	1511.62
803.835	2021.62
804.09	2791.62
804.345	3561.62
804.601	4474.62
804.856	5455.62
805.111	6219.62
805.366	6881.62
805.621	7298.62
805.876	7692.62
806.131	7840.62
806.386	7976.62
806.641	8129.62
806.896	8286.62
807.151	8402.62
807.406	8605.62
807.661	8714.62
807.915	8914.62
808.17	9054.62
808.425	9127.62
808.679	9197.62
808.934	9395.62
809.188	9447.62
809.443	9630.62
809.697	9677.62
809.951	9723.62
810.206	9826.62
810.46	9942.62
810.714	10016.62
810.968	10193.62
811.223	10159.62
811.477	10289.62
811.731	10432.62
811.985	10442.62
812.239	10477.62
812.493	10551.62
812.747	10557.62
813	10588.62
813.254	10698.62
813.508	10777.62
813.762	10850.62
814.015	10846.62
814.269	10977.62
814.522	11165.62
814.776	11268.62
815.03	11341.62
815.283	11516.62
815.536	11756.62
815.79	11895.62
816.043	12059.62
816.296	12232.62
816.55	12422.62
816.803	12579.62
817.056	12882.62
817.309	12906.62
817.562	12984.62
817.815	13218.62
818.068	13315.62
818.321	13450.62
818.574	13618.62
818.827	13846.62
819.079	13998.62
819.332	14396.62
819.585	14456.62
819.838	14684.62
820.09	14687.62
820.343	14860.62
820.595	14855.62
820.848	15035.62
821.1	15050.62
821.353	15007.62
821.605	15039.62
821.857	15018.62
822.11	14941.62
822.362	14910.62
822.614	14946.62
822.866	14951.62
823.118	14897.62
823.37	15035.62
823.622	15101.62
823.874	15218.62
824.126	15268.62
824.378	15338.62
824.63	15321.62
824.882	15287.62
825.134	15321.62
825.385	15400.62
825.637	15236.62
825.888	15186.62
826.14	15225.62
826.392	15147.62
826.643	15140.62
826.895	15103.62
827.146	14911.62
827.397	15003.62
827.649	14996.62
827.9	14882.62
828.151	14991.62
828.402	15020.62
828.653	15133.62
828.905	15110.62
829.156	15122.62
829.407	15145.62
829.658	15212.62
829.909	15269.62
830.159	15332.62
830.41	15212.62
830.661	15094.62
830.912	15025.62
831.162	15021.62
831.413	15018.62
831.664	15070.62
831.914	14964.62
832.165	15002.62
832.415	14917.62
832.666	15046.62
832.916	14993.62
833.167	14946.62
833.417	15042.62
833.667	14933.62
833.917	14869.62
834.168	14964.62
834.418	14889.62
834.668	14841.62
834.918	14810.62
835.168	14744.62
835.418	14690.62
835.668	14714.62
835.918	14616.62
836.167	14531.62
836.417	14578.62
836.667	14605.62
836.917	14622.62
837.166	14571.62
837.416	14655.62
837.666	14625.62
837.915	14516.62
838.165	14628.62
838.414	14482.62
838.663	14480.62
838.913	14492.62
839.162	14540.62
839.411	14515.62
839.661	14455.62
839.91	14544.62
840.159	14472.62
840.408	14423.62
840.657	14550.62
840.906	14610.62
841.155	14572.62
841.404	14431.62
841.653	14492.62
841.902	14507.62
842.15	14689.62
842.399	14558.62
842.648	14576.62
842.897	14428.62
843.145	14475.62
843.394	14282.62
843.642	14196.62
843.891	14262.62
844.139	14188.62
844.388	13988.62
844.636	13957.62
844.884	14073.62
845.133	13886.62
845.381	13972.62
845.629	13977.62
845.877	14055.62
846.125	13977.62
846.373	14042.62
846.621	13915.62
846.869	13942.62
847.117	13888.62
847.365	13707.62
847.613	13711.62
847.861	13791.62
848.108	13758.62
848.356	13731.62
848.604	13711.62
848.851	13728.62
849.099	13813.62
849.346	13831.62
849.594	13937.62
849.841	13991.62
850.089	14095.62
850.336	14191.62
850.583	14192.62
850.831	14250.62
851.078	14181.62
851.325	14123.62
851.572	14268.62
851.819	14050.62
852.066	13729.62
852.313	13398.62
852.56	13167.62
852.807	13082.62
853.054	13114.62
853.301	13099.62
853.548	13209.62
853.794	13339.62
854.041	13337.62
854.288	13388.62
854.534	13609.62
854.781	13415.62
855.028	13430.62
855.274	13398.62
855.52	13368.62
855.767	13325.62
856.013	13436.62
856.26	13696.62
856.506	13217.62
856.752	13234.62
856.998	13257.62
857.244	13286.62
857.49	13369.62
857.736	13417.62
857.982	13431.62
858.228	13415.62
858.474	13191.62
858.72	13197.62
858.966	13058.62
859.212	12898.62
859.458	12742.62
859.703	12604.62
859.949	12496.62
860.195	12429.62
860.44	12360.62
860.686	12375.62
860.931	12365.62
861.177	12238.62
861.422	12273.62
861.667	12135.62
861.913	12126.62
862.158	12199.62
862.403	12289.62
862.648	12292.62
862.893	12265.62
863.138	12242.62
863.384	12216.62
863.629	12256.62
863.873	12258.62
864.118	12207.62
864.363	12136.62
864.608	12201.62
864.853	12174.62
865.098	12056.62
865.342	12000.62
865.587	11961.62
865.832	12062.62
866.076	11888.62
866.321	11959.62
866.565	11980.62
866.81	11846.62
867.054	11887.62
867.298	11844.62
867.543	11813.62
867.787	11904.62
868.031	11716.62
868.275	11749.62
868.519	11655.62
868.764	11844.62
869.008	11795.62
869.252	11783.62
869.496	11730.62
869.739	11777.62
869.983	11810.62
870.227	11906.62
870.471	11853.62
870.715	11952.62
870.958	11990.62
871.202	11960.62
871.446	12044.62
871.689	12041.62
871.933	12035.62
872.176	11964.62
872.42	11899.62
872.663	11832.62
872.906	11959.62
873.15	11851.62
873.393	11850.62
873.636	11895.62
873.879	11678.62
874.122	11670.62
874.366	11470.62
874.609	11384.62
874.852	11293.62
875.095	11271.62
875.337	11232.62
875.58	11068.62
875.823	11109.62
876.066	11147.62
876.309	11013.62
876.551	11007.62
876.794	10961.62
877.037	11021.62
877.279	10873.62
877.522	10948.62
877.764	10921.62
878.007	10851.62
878.249	10828.62
878.491	10870.62
878.734	10825.62
878.976	10788.62
879.218	10699.62
879.46	10660.62
879.702	10598.62
879.945	10463.62
880.187	10289.62
880.429	10341.62
880.671	10197.62
880.912	10239.62
881.154	10249.62
881.396	10235.62
881.638	10308.62
881.88	10255.62
882.121	10162.62
882.363	10279.62
882.605	10170.62
882.846	10207.62
883.088	10320.62
883.329	10234.62
883.571	10233.62
883.812	10432.62
884.053	10703.62
884.295	10985.62
884.536	11228.62
884.777	11163.62
885.018	11073.62
885.259	11039.62
885.5	10960.62
885.742	11174.62
885.982	10851.62
886.223	10720.62
886.464	10626.62
886.705	10510.62
886.946	10390.62
887.187	10183.62
887.428	10087.62
887.668	9832.62
887.909	9625.62
888.15	9562.62
888.39	9558.62
888.631	9490.62
888.871	9432.62
889.111	9242.62
889.352	9272.62
889.592	9173.62
889.833	9049.62
890.073	9041.62
890.313	9040.62
890.553	8880.62
890.793	8916.62
891.033	8833.62
891.273	8858.62
891.513	8813.62
891.753	8838.62
891.993	8816.62
892.233	8849.62
892.473	8884.62
892.713	8770.62
892.952	8816.62
893.192	8929.62
893.432	8830.62
893.671	8922.62
893.911	8899.62
894.15	8774.62
894.39	8672.62
894.629	8688.62
894.869	8678.62
895.108	8612.62
895.347	8587.62
895.587	8537.62
895.826	8545.62
896.065	8481.62
896.304	8557.62
896.543	8566.62
896.782	8545.62
897.021	8552.62
897.26	8568.62
897.499	8664.62
897.738	8648.62
897.977	8504.62
898.216	8454.62
898.454	8437.62
898.693	8365.62
898.932	8412.62
899.17	8370.62
899.409	8373.62
899.647	8274.62
899.886	8320.62
900.124	8343.62
900.363	8347.62
900.601	8476.62
900.839	8451.62
901.078	8533.62
901.316	8541.62
901.554	8708.62
901.792	8685.62
902.03	8764.62
902.268	8756.62
902.506	8776.62
902.744	8656.62
902.982	8640.62
903.22	8408.62
903.458	8273.62
903.695	8154.62
903.933	8007.62
904.171	7802.62
904.409	7733.62
904.646	7623.62
904.884	7409.62
905.121	7483.62
905.359	7305.62
905.596	7174.62
905.833	7074.62
906.071	7075.62
906.308	7080.62
906.545	7011.62
906.783	6989.62
907.02	6971.62
907.257	6952.62
907.494	6911.62
907.731	6920.62
907.968	6880.62
908.205	6871.62
908.442	6807.62
908.679	6798.62
908.915	6673.62
909.152	6671.62
909.389	6534.62
909.626	6566.62
909.862	6453.62
910.099	6468.62
910.335	6497.62
910.572	6332.62
910.808	6389.62
911.045	6368.62
911.281	6290.62
911.518	6409.62
911.754	6298.62
911.99	6342.62
912.226	6213.62
912.463	6162.62
912.699	6138.62
912.935	6125.62
913.171	6082.62
913.407	5952.62
913.643	5979.62
913.879	5919.62
914.114	5882.62
914.35	5788.62
914.586	5736.62
914.822	5669.62
915.057	5771.62
915.293	5593.62
915.529	5596.62
915.764	5701.62
916	5648.62
916.235	5570.62
916.471	5651.62
916.706	5572.62
916.941	5578.62
917.177	5585.62
917.412	5572.62
917.647	5541.62
917.882	5494.62
918.117	5602.62
918.352	5496.62
918.588	5545.62
918.823	5463.62
919.057	5460.62
919.292	5339.62
919.527	5318.62
919.762	5297.62
919.997	5295.62
920.232	5252.62
920.466	5258.62
920.701	5099.62
920.935	5117.62
921.17	5014.62
921.405	5004.62
921.639	5114.62
921.873	5010.62
922.108	5002.62
922.342	5005.62
922.576	4924.62
922.811	4928.62
923.045	4996.62
923.279	4973.62
923.513	4849.62
923.747	4957.62
923.981	4845.62
924.215	4768.62
924.449	4827.62
924.683	4741.62
924.917	4721.62
925.151	4719.62
925.385	4722.62
925.618	4689.62
925.852	4713.62
926.086	4659.62
926.319	4674.62
926.553	4688.62
926.786	4678.62
927.02	4651.62
927.253	4666.62
927.486	4713.62
927.72	4625.62
927.953	4644.62
928.186	4627.62
928.42	4672.62
928.653	4609.62
928.886	4575.62
929.119	4569.62
929.352	4558.62
929.585	4558.62
929.818	4461.62
930.051	4477.62
930.284	4468.62
930.516	4319.62
930.749	4392.62
930.982	4394.62
931.215	4363.62
931.447	4288.62
931.68	4309.62
931.912	4305.62
932.145	4285.62
932.377	4323.62
932.61	4395.62
932.842	4287.62
933.074	4313.62
933.307	4277.62
933.539	4379.62
933.771	4335.62
934.003	4297.62
934.236	4341.62
934.468	4364.62
934.7	4274.62
934.932	4313.62
935.164	4268.62
935.395	4227.62
935.627	4288.62
935.859	4258.62
936.091	4224.62
936.323	4214.62
936.554	4236.62
936.786	4181.62
937.017	4151.62
937.249	4134.62
937.481	4134.62
937.712	4141.62
937.943	4129.62
938.175	4084.62
938.406	4140.62
938.637	4190.62
938.869	4063.62
939.1	4134.62
939.331	4076.62
939.562	4136.62
939.793	4085.62
940.024	4085.62
940.255	4115.62
940.486	3995.62
940.717	4039.62
940.948	3985.62
941.179	3957.62
941.409	4024.62
941.64	3951.62
941.871	3955.62
942.102	3930.62
942.332	3966.62
942.563	3992.62
942.793	3989.62
943.024	3897.62
943.254	3974.62
943.484	3965.62
943.715	4001.62
943.945	4013.62
944.175	3916.62
944.405	3901.62
944.636	3913.62
944.866	3885.62
945.096	3951.62
945.326	3879.62
945.556	3911.62
945.786	3967.62
946.016	3827.62
946.245	3819.62
946.475	3789.62
946.705	3750.62
946.935	3788.62
947.164	3790.62
947.394	3715.62
947.624	3700.62
947.853	3739.62
948.083	3740.62
948.312	3697.62
948.542	3632.62
948.771	3620.62
949	3647.62
949.23	3631.62
949.459	3665.62
949.688	3677.62
949.917	3642.62
950.146	3650.62
950.375	3687.62
950.604	3593.62
950.833	3713.62
951.062	3665.62
951.291	3591.62
951.52	3567.62
951.749	3642.62
951.978	3529.62
952.206	3567.62
952.435	3561.62
952.664	3600.62
952.892	3569.62
953.121	3567.62
953.349	3566.62
953.578	3571.62
953.806	3492.62
954.035	3456.62
954.263	3452.62
954.491	3433.62
954.719	3471.62
954.948	3393.62
955.176	3342.62
955.404	3339.62
955.632	3406.62
955.86	3391.62
956.088	3368.62
956.316	3370.62
956.544	3406.62
956.772	3309.62
956.999	3288.62
957.227	3367.62
957.455	3249.62
957.683	3293.62
957.91	3233.62
958.138	3201.62
958.365	3231.62
958.593	3188.62
958.82	3132.62
959.048	3219.62
959.275	3180.62
959.502	3167.62
959.73	3121.62
959.957	3157.62
960.184	3192.62
960.411	3104.62
960.638	3220.62
960.865	3137.62
961.092	3198.62
961.319	3024.62
961.546	3149.62
961.773	3177.62
962	3079.62
962.227	3122.62
962.454	3120.62
962.68	3061.62
962.907	3080.62
963.134	3023.62
963.36	3071.62
963.587	3060.62
963.813	2962.62
964.04	3027.62
964.266	2978.62
964.493	3024.62
964.719	3044.62
964.945	2990.62
965.171	2908.62
965.398	2986.62
965.624	3002.62
965.85	2907.62
966.076	2848.62
966.302	2936.62
966.528	2891.62
966.754	2860.62
966.98	2877.62
967.206	2825.62
967.431	2800.62
967.657	2882.62
967.883	2843.62
968.109	2863.62
968.334	2782.62
968.56	2772.62
968.785	2771.62
969.011	2753.62
969.236	2797.62
969.462	2773.62
969.687	2759.62
969.912	2789.62
970.138	2807.62
970.363	2736.62
970.588	2746.62
970.813	2742.62
971.038	2674.62
971.263	2726.62
971.488	2719.62
971.713	2773.62
971.938	2716.62
972.163	2613.62
972.388	2644.62
972.613	2630.62
972.838	2637.62
973.062	2637.62
973.287	2618.62
973.512	2547.62
973.736	2593.62
973.961	2564.62
974.185	2514.62
974.41	2575.62
974.634	2476.62
974.858	2489.62
975.083	2553.62
975.307	2545.62
975.531	2452.62
975.755	2420.62
975.98	2440.62
976.204	2395.62
976.428	2390.62
976.652	2384.62
976.876	2408.62
977.1	2392.62
977.324	2408.62
977.547	2390.62
977.771	2437.62
977.995	2350.62
978.219	2347.62
978.442	2384.62
978.666	2360.62
978.89	2374.62
979.113	2350.62
979.337	2311.62
979.56	2309.62
979.783	2380.62
980.007	2286.62
980.23	2313.62
980.453	2273.62
980.677	2292.62
980.9	2297.62
981.123	2208.62
981.346	2316.62
981.569	2276.62
981.792	2242.62
982.015	2215.62
982.238	2197.62
982.461	2217.62
982.684	2166.62
982.907	2155.62
983.129	2127.62
983.352	2192.62
983.575	2185.62
983.797	2186.62
984.02	2112.62
984.242	2123.62
984.465	2150.62
984.687	2178.62
984.91	2165.62
985.132	2132.62
985.354	2160.62
985.577	2137.62
985.799	2123.62
986.021	2012.62
986.243	2055.62
986.465	2099.62
986.687	2134.62
986.909	2136.62
987.131	2108.62
987.353	2042.62
987.575	2077.62
987.797	2046.62
988.019	1981.62
988.241	2035.62
988.462	1978.62
988.684	2055.62
988.906	2093.62
989.127	2099.62
989.349	1970.62
989.57	2014.62
989.792	2057.62
990.013	2060.62
990.234	2034.62
990.456	2086.62
990.677	2046.62
990.898	1995.62
991.119	1974.62
991.341	2041.62
991.562	1944.62
991.783	2003.62
992.004	1918.62
992.225	1891.62
992.446	1967.62
992.667	1891.62
992.887	1973.62
993.108	1848.62
993.329	1971.62
993.55	1896.62
993.77	1834.62
993.991	1856.62
994.212	1900.62
994.432	1871.62
994.653	1907.62
994.873	1871.62
995.093	1751.62
995.314	1801.62
995.534	1879.62
995.754	1897.62
995.975	1898.62
996.195	1791.62
996.415	1853.62
996.635	1810.62
996.855	1832.62
997.075	1841.62
997.295	1824.62
997.515	1780.62
997.735	1832.62
997.955	1856.62
998.174	1840.62
998.394	1780.62
998.614	1835.62
998.834	1785.62
999.053	1860.62
999.273	1820.62
999.492	1864.62
999.712	1834.62
999.931	1754.62
1000.151	1798.62
1000.37	1788.62
1000.589	1845.62
1000.809	1747.62
1001.028	1865.62
1001.247	1790.62
1001.466	1676.62
1001.685	1829.62
1001.904	1758.62
1002.123	1755.62
1002.342	1750.62
1002.561	1683.62
1002.78	1702.62
1002.999	1803.62
1003.218	1731.62
1003.436	1698.62
1003.655	1772.62
1003.874	1669.62
1004.092	1686.62
1004.311	1750.62
1004.53	1696.62
1004.748	1793.62
1004.966	1708.62
1005.185	1746.62
1005.403	1773.62
1005.622	1703.62
1005.84	1819.62
1006.058	1672.62
1006.276	1685.62
1006.494	2203.62
1006.712	1734.62
1006.931	1777.62
1007.149	1719.62
1007.367	1727.62
1007.584	1771.62
1007.802	1789.62
1008.02	1741.62
1008.238	1887.62
1008.456	1843.62
1008.673	1777.62
1008.891	1878.62
1009.109	1838.62
1009.326	1942.62
1009.544	2008.62
1009.761	1985.62
1009.979	2101.62
1010.196	2134.62
1010.413	2282.62
1010.631	2387.62
1010.848	2430.62
1011.065	2493.62
1011.282	2439.62
1011.5	2411.62
1011.717	2518.62
1011.934	2410.62
1012.151	2466.62
1012.368	2445.62
1012.585	2399.62
1012.801	2445.62
1013.018	2431.62
1013.235	2437.62
1013.452	2469.62
1013.669	2458.62
1013.885	2430.62
1014.102	2505.62
1014.318	2454.62
1014.535	2425.62
1014.751	2464.62
1014.968	2460.62
1015.184	2486.62
1015.401	2413.62
1015.617	2401.62
1015.833	2337.62
1016.049	2366.62
1016.266	2324.62
1016.482	2335.62
1016.698	2283.62
1016.914	2277.62
1017.13	2288.62
1017.346	2213.62
1017.562	2340.62
1017.778	2237.62
1017.993	2159.62
1018.209	2261.62
1018.425	2243.62
1018.641	2242.62
1018.856	2218.62
1019.072	2254.62
1019.288	2294.62
1019.503	2231.62
1019.719	2147.62
1019.934	2169.62
1020.149	2242.62
1020.365	2161.62
1020.58	2084.62
1020.795	2110.62
1021.011	1991.62
1021.226	1970.62
1021.441	1971.62
1021.656	1847.62
1021.871	1793.62
1022.086	1768.62
1022.301	1771.62
1022.516	1735.62
1022.731	1758.62
1022.946	1645.62
1023.16	1672.62
1023.375	1585.62
1023.59	1570.62
1023.804	1511.62
1024.019	1580.62
1024.234	1461.62
1024.448	1467.62
1024.663	1405.62
1024.877	1394.62
1025.092	1383.62
1025.306	1399.62
1025.52	1266.62
1025.734	1378.62
1025.949	1267.62
1026.163	1244.62
1026.377	1155.62
1026.591	1206.62
1026.805	1115.62
1027.019	1118.62
1027.233	1059.62
1027.447	1016.62
1027.661	1108.62
1027.875	1060.62
1028.088	1041.62
1028.302	975.62
1028.516	969.62
1028.73	927.62
1028.943	919.62
1029.157	839.62
1029.37	810.62
1029.584	-2.38
1029.797	-3.38
1030.011	5.62
1030.224	-1.38
