Data from QEP037381__32__14-34-03-471.txt Node

Date: Wed Dec 21 14:34:03 EST 2022
User: dcclab
Spectrometer: QEP03738
Trigger mode: 4
Integration Time (sec): 1.000000E1
Scans to average: 1
Electric dark correction enabled: true
Nonlinearity correction enabled: false
Boxcar width: 0
XAxis mode: Wavelengths
Number of Pixels in Spectrum: 1044
>>>>>Begin Spectral Data<<<<<
784.041	11.25
784.3	-1.75
784.558	-1.75
784.817	-3.75
785.075	84898.25
785.334	15213.25
785.592	7239.25
785.851	5116.25
786.109	3821.25
786.368	2979.25
786.626	2432.25
786.884	1970.25
787.143	1693.25
787.401	1362.25
787.659	1263.25
787.917	1046.25
788.175	994.25
788.433	871.25
788.691	768.25
788.949	716.25
789.207	692.25
789.465	597.25
789.723	586.25
789.98	530.25
790.238	548.25
790.496	541.25
790.753	498.25
791.011	568.25
791.268	498.25
791.526	462.25
791.783	513.25
792.041	475.25
792.298	402.25
792.556	468.25
792.813	466.25
793.07	422.25
793.327	412.25
793.584	489.25
793.841	417.25
794.099	442.25
794.356	505.25
794.613	406.25
794.869	441.25
795.126	408.25
795.383	376.25
795.64	408.25
795.897	360.25
796.153	404.25
796.41	400.25
796.667	386.25
796.923	386.25
797.18	397.25
797.436	419.25
797.693	373.25
797.949	430.25
798.206	452.25
798.462	359.25
798.718	423.25
798.974	405.25
799.231	453.25
799.487	439.25
799.743	435.25
799.999	441.25
800.255	446.25
800.511	422.25
800.767	469.25
801.023	437.25
801.279	460.25
801.534	484.25
801.79	517.25
802.046	522.25
802.302	601.25
802.557	628.25
802.813	747.25
803.068	837.25
803.324	1149.25
803.579	1456.25
803.835	1940.25
804.09	2627.25
804.345	3393.25
804.601	4249.25
804.856	5177.25
805.111	6004.25
805.366	6606.25
805.621	7033.25
805.876	7277.25
806.131	7505.25
806.386	7630.25
806.641	7697.25
806.896	7846.25
807.151	8167.25
807.406	8198.25
807.661	8365.25
807.915	8514.25
808.17	8649.25
808.425	8761.25
808.679	8792.25
808.934	9009.25
809.188	9016.25
809.443	9218.25
809.697	9328.25
809.951	9281.25
810.206	9390.25
810.46	9536.25
810.714	9617.25
810.968	9689.25
811.223	9749.25
811.477	9952.25
811.731	9996.25
811.985	9976.25
812.239	10016.25
812.493	10059.25
812.747	10149.25
813	10167.25
813.254	10252.25
813.508	10316.25
813.762	10351.25
814.015	10467.25
814.269	10458.25
814.522	10630.25
814.776	10784.25
815.03	10913.25
815.283	11133.25
815.536	11272.25
815.79	11454.25
816.043	11564.25
816.296	11690.25
816.55	11878.25
816.803	12041.25
817.056	12223.25
817.309	12361.25
817.562	12535.25
817.815	12634.25
818.068	12757.25
818.321	12910.25
818.574	13060.25
818.827	13296.25
819.079	13360.25
819.332	13776.25
819.585	13811.25
819.838	14002.25
820.09	14118.25
820.343	14271.25
820.595	14205.25
820.848	14404.25
821.1	14436.25
821.353	14410.25
821.605	14467.25
821.857	14410.25
822.11	14307.25
822.362	14378.25
822.614	14378.25
822.866	14444.25
823.118	14352.25
823.37	14478.25
823.622	14517.25
823.874	14512.25
824.126	14590.25
824.378	14640.25
824.63	14724.25
824.882	14767.25
825.134	14675.25
825.385	14580.25
825.637	14606.25
825.888	14614.25
826.14	14644.25
826.392	14554.25
826.643	14467.25
826.895	14480.25
827.146	14319.25
827.397	14390.25
827.649	14364.25
827.9	14345.25
828.151	14485.25
828.402	14403.25
828.653	14489.25
828.905	14520.25
829.156	14548.25
829.407	14507.25
829.658	14589.25
829.909	14611.25
830.159	14696.25
830.41	14685.25
830.661	14546.25
830.912	14421.25
831.162	14474.25
831.413	14432.25
831.664	14599.25
831.914	14469.25
832.165	14389.25
832.415	14408.25
832.666	14437.25
832.916	14500.25
833.167	14453.25
833.417	14524.25
833.667	14452.25
833.917	14403.25
834.168	14421.25
834.418	14475.25
834.668	14336.25
834.918	14318.25
835.168	14168.25
835.418	14195.25
835.668	14214.25
835.918	14081.25
836.167	14090.25
836.417	13992.25
836.667	14046.25
836.917	14142.25
837.166	14063.25
837.416	14135.25
837.666	14067.25
837.915	14061.25
838.165	14082.25
838.414	13931.25
838.663	13933.25
838.913	14046.25
839.162	13993.25
839.411	14077.25
839.661	13987.25
839.91	13973.25
840.159	13944.25
840.408	14075.25
840.657	14004.25
840.906	14081.25
841.155	14142.25
841.404	14073.25
841.653	14090.25
841.902	14035.25
842.15	14200.25
842.399	14211.25
842.648	14024.25
842.897	14120.25
843.145	13965.25
843.394	13952.25
843.642	13828.25
843.891	13763.25
844.139	13673.25
844.388	13667.25
844.636	13609.25
844.884	13541.25
845.133	13559.25
845.381	13651.25
845.629	13639.25
845.877	13646.25
846.125	13587.25
846.373	13714.25
846.621	13576.25
846.869	13580.25
847.117	13490.25
847.365	13419.25
847.613	13393.25
847.861	13382.25
848.108	13411.25
848.356	13344.25
848.604	13330.25
848.851	13425.25
849.099	13430.25
849.346	13485.25
849.594	13600.25
849.841	13649.25
850.089	13764.25
850.336	13748.25
850.583	13871.25
850.831	13869.25
851.078	13705.25
851.325	13839.25
851.572	14003.25
851.819	13802.25
852.066	13387.25
852.313	12985.25
852.56	12871.25
852.807	12828.25
853.054	12816.25
853.301	12828.25
853.548	12967.25
853.794	13084.25
854.041	13130.25
854.288	13094.25
854.534	13263.25
854.781	13229.25
855.028	13120.25
855.274	13148.25
855.52	13035.25
855.767	12969.25
856.013	13118.25
856.26	13390.25
856.506	12894.25
856.752	12885.25
856.998	12969.25
857.244	12975.25
857.49	13181.25
857.736	13168.25
857.982	13090.25
858.228	13148.25
858.474	12936.25
858.72	12966.25
858.966	12828.25
859.212	12609.25
859.458	12455.25
859.703	12313.25
859.949	12222.25
860.195	12208.25
860.44	12211.25
860.686	12187.25
860.931	12104.25
861.177	12017.25
861.422	11973.25
861.667	11901.25
861.913	11887.25
862.158	11881.25
862.403	11886.25
862.648	12008.25
862.893	12079.25
863.138	12010.25
863.384	11996.25
863.629	12026.25
863.873	11987.25
864.118	12050.25
864.363	11963.25
864.608	11938.25
864.853	11952.25
865.098	11815.25
865.342	11696.25
865.587	11795.25
865.832	11830.25
866.076	11701.25
866.321	11757.25
866.565	11709.25
866.81	11560.25
867.054	11647.25
867.298	11628.25
867.543	11514.25
867.787	11663.25
868.031	11568.25
868.275	11608.25
868.519	11557.25
868.764	11609.25
869.008	11631.25
869.252	11592.25
869.496	11620.25
869.739	11650.25
869.983	11742.25
870.227	11705.25
870.471	11641.25
870.715	11809.25
870.958	11900.25
871.202	11917.25
871.446	11963.25
871.689	11899.25
871.933	11841.25
872.176	11942.25
872.42	11755.25
872.663	11736.25
872.906	11782.25
873.15	11744.25
873.393	11770.25
873.636	11796.25
873.879	11720.25
874.122	11639.25
874.366	11392.25
874.609	11306.25
874.852	11149.25
875.095	11185.25
875.337	11104.25
875.58	11046.25
875.823	10946.25
876.066	11049.25
876.309	10994.25
876.551	10815.25
876.794	10780.25
877.037	10830.25
877.279	10799.25
877.522	10765.25
877.764	10735.25
878.007	10743.25
878.249	10645.25
878.491	10678.25
878.734	10679.25
878.976	10579.25
879.218	10503.25
879.46	10501.25
879.702	10432.25
879.945	10402.25
880.187	10271.25
880.429	10286.25
880.671	10207.25
880.912	10166.25
881.154	10178.25
881.396	10087.25
881.638	10209.25
881.88	10127.25
882.121	10051.25
882.363	10159.25
882.605	10189.25
882.846	10161.25
883.088	10227.25
883.329	10168.25
883.571	10189.25
883.812	10414.25
884.053	10594.25
884.295	10950.25
884.536	11233.25
884.777	11160.25
885.018	11079.25
885.259	11038.25
885.5	10907.25
885.742	11116.25
885.982	10832.25
886.223	10702.25
886.464	10602.25
886.705	10500.25
886.946	10313.25
887.187	10034.25
887.428	10013.25
887.668	9743.25
887.909	9578.25
888.15	9436.25
888.39	9366.25
888.631	9321.25
888.871	9277.25
889.111	9211.25
889.352	9151.25
889.592	9010.25
889.833	9033.25
890.073	8858.25
890.313	8884.25
890.553	8820.25
890.793	8811.25
891.033	8682.25
891.273	8712.25
891.513	8690.25
891.753	8751.25
891.993	8718.25
892.233	8739.25
892.473	8753.25
892.713	8726.25
892.952	8742.25
893.192	8799.25
893.432	8759.25
893.671	8828.25
893.911	8745.25
894.15	8753.25
894.39	8600.25
894.629	8598.25
894.869	8522.25
895.108	8523.25
895.347	8473.25
895.587	8502.25
895.826	8535.25
896.065	8419.25
896.304	8498.25
896.543	8533.25
896.782	8441.25
897.021	8445.25
897.26	8534.25
897.499	8540.25
897.738	8536.25
897.977	8483.25
898.216	8366.25
898.454	8325.25
898.693	8261.25
898.932	8339.25
899.17	8320.25
899.409	8277.25
899.647	8271.25
899.886	8261.25
900.124	8313.25
900.363	8330.25
900.601	8359.25
900.839	8460.25
901.078	8510.25
901.316	8619.25
901.554	8663.25
901.792	8745.25
902.03	8782.25
902.268	8820.25
902.506	8874.25
902.744	8751.25
902.982	8569.25
903.22	8352.25
903.458	8151.25
903.695	8091.25
903.933	7955.25
904.171	7766.25
904.409	7598.25
904.646	7586.25
904.884	7374.25
905.121	7374.25
905.359	7245.25
905.596	7097.25
905.833	7007.25
906.071	7001.25
906.308	7021.25
906.545	6915.25
906.783	6888.25
907.02	6943.25
907.257	6857.25
907.494	6909.25
907.731	6843.25
907.968	6856.25
908.205	6748.25
908.442	6726.25
908.679	6707.25
908.915	6694.25
909.152	6584.25
909.389	6510.25
909.626	6493.25
909.862	6462.25
910.099	6428.25
910.335	6487.25
910.572	6290.25
910.808	6335.25
911.045	6310.25
911.281	6300.25
911.518	6344.25
911.754	6225.25
911.99	6223.25
912.226	6143.25
912.463	6071.25
912.699	6081.25
912.935	6011.25
913.171	6032.25
913.407	5902.25
913.643	5974.25
913.879	5861.25
914.114	5838.25
914.35	5793.25
914.586	5719.25
914.822	5657.25
915.057	5717.25
915.293	5544.25
915.529	5536.25
915.764	5637.25
916	5586.25
916.235	5543.25
916.471	5623.25
916.706	5480.25
916.941	5522.25
917.177	5522.25
917.412	5560.25
917.647	5493.25
917.882	5463.25
918.117	5558.25
918.352	5485.25
918.588	5576.25
918.823	5442.25
919.057	5366.25
919.292	5264.25
919.527	5301.25
919.762	5258.25
919.997	5244.25
920.232	5111.25
920.466	5169.25
920.701	5037.25
920.935	5055.25
921.17	5029.25
921.405	4955.25
921.639	5014.25
921.873	4977.25
922.108	4960.25
922.342	4961.25
922.576	4908.25
922.811	4932.25
923.045	4975.25
923.279	4902.25
923.513	4802.25
923.747	4879.25
923.981	4854.25
924.215	4768.25
924.449	4817.25
924.683	4771.25
924.917	4764.25
925.151	4693.25
925.385	4779.25
925.618	4711.25
925.852	4687.25
926.086	4604.25
926.319	4692.25
926.553	4668.25
926.786	4726.25
927.02	4640.25
927.253	4680.25
927.486	4683.25
927.72	4606.25
927.953	4684.25
928.186	4612.25
928.42	4628.25
928.653	4601.25
928.886	4576.25
929.119	4613.25
929.352	4558.25
929.585	4529.25
929.818	4501.25
930.051	4503.25
930.284	4514.25
930.516	4368.25
930.749	4365.25
930.982	4445.25
931.215	4347.25
931.447	4301.25
931.68	4308.25
931.912	4312.25
932.145	4277.25
932.377	4328.25
932.61	4454.25
932.842	4263.25
933.074	4343.25
933.307	4281.25
933.539	4349.25
933.771	4329.25
934.003	4287.25
934.236	4329.25
934.468	4401.25
934.7	4310.25
934.932	4307.25
935.164	4215.25
935.395	4261.25
935.627	4261.25
935.859	4275.25
936.091	4201.25
936.323	4233.25
936.554	4276.25
936.786	4213.25
937.017	4116.25
937.249	4159.25
937.481	4153.25
937.712	4185.25
937.943	4111.25
938.175	4124.25
938.406	4103.25
938.637	4211.25
938.869	4065.25
939.1	4132.25
939.331	4092.25
939.562	4138.25
939.793	4068.25
940.024	4071.25
940.255	4130.25
940.486	4065.25
940.717	4039.25
940.948	3998.25
941.179	4013.25
941.409	4006.25
941.64	3943.25
941.871	3979.25
942.102	3944.25
942.332	3979.25
942.563	4006.25
942.793	3968.25
943.024	3949.25
943.254	3973.25
943.484	4001.25
943.715	4026.25
943.945	4022.25
944.175	3908.25
944.405	3920.25
944.636	3941.25
944.866	3962.25
945.096	4002.25
945.326	3862.25
945.556	3980.25
945.786	3919.25
946.016	3867.25
946.245	3844.25
946.475	3856.25
946.705	3819.25
946.935	3818.25
947.164	3812.25
947.394	3726.25
947.624	3759.25
947.853	3779.25
948.083	3787.25
948.312	3708.25
948.542	3646.25
948.771	3627.25
949	3637.25
949.23	3641.25
949.459	3651.25
949.688	3766.25
949.917	3656.25
950.146	3688.25
950.375	3740.25
950.604	3654.25
950.833	3711.25
951.062	3679.25
951.291	3648.25
951.52	3653.25
951.749	3632.25
951.978	3604.25
952.206	3579.25
952.435	3572.25
952.664	3584.25
952.892	3644.25
953.121	3569.25
953.349	3617.25
953.578	3535.25
953.806	3563.25
954.035	3471.25
954.263	3545.25
954.491	3447.25
954.719	3470.25
954.948	3409.25
955.176	3406.25
955.404	3377.25
955.632	3429.25
955.86	3405.25
956.088	3364.25
956.316	3421.25
956.544	3435.25
956.772	3311.25
956.999	3353.25
957.227	3395.25
957.455	3274.25
957.683	3310.25
957.91	3264.25
958.138	3247.25
958.365	3263.25
958.593	3247.25
958.82	3192.25
959.048	3270.25
959.275	3215.25
959.502	3209.25
959.73	3229.25
959.957	3221.25
960.184	3254.25
960.411	3194.25
960.638	3263.25
960.865	3167.25
961.092	3185.25
961.319	3108.25
961.546	3177.25
961.773	3193.25
962	3165.25
962.227	3247.25
962.454	3168.25
962.68	3133.25
962.907	3139.25
963.134	3118.25
963.36	3095.25
963.587	3110.25
963.813	3051.25
964.04	3086.25
964.266	3032.25
964.493	3068.25
964.719	3036.25
964.945	3078.25
965.171	2942.25
965.398	2989.25
965.624	3008.25
965.85	2922.25
966.076	2905.25
966.302	2964.25
966.528	2905.25
966.754	2968.25
966.98	2916.25
967.206	2906.25
967.431	2833.25
967.657	2953.25
967.883	2887.25
968.109	2884.25
968.334	2853.25
968.56	2807.25
968.785	2857.25
969.011	2779.25
969.236	2831.25
969.462	2790.25
969.687	2821.25
969.912	2859.25
970.138	2855.25
970.363	2764.25
970.588	2836.25
970.813	2731.25
971.038	2747.25
971.263	2768.25
971.488	2800.25
971.713	2813.25
971.938	2783.25
972.163	2643.25
972.388	2708.25
972.613	2694.25
972.838	2695.25
973.062	2658.25
973.287	2657.25
973.512	2591.25
973.736	2624.25
973.961	2609.25
974.185	2591.25
974.41	2614.25
974.634	2521.25
974.858	2537.25
975.083	2580.25
975.307	2576.25
975.531	2487.25
975.755	2489.25
975.98	2485.25
976.204	2437.25
976.428	2448.25
976.652	2429.25
976.876	2455.25
977.1	2439.25
977.324	2380.25
977.547	2416.25
977.771	2468.25
977.995	2427.25
978.219	2354.25
978.442	2479.25
978.666	2405.25
978.89	2398.25
979.113	2401.25
979.337	2365.25
979.56	2348.25
979.783	2437.25
980.007	2299.25
980.23	2362.25
980.453	2306.25
980.677	2342.25
980.9	2350.25
981.123	2264.25
981.346	2366.25
981.569	2313.25
981.792	2341.25
982.015	2271.25
982.238	2244.25
982.461	2288.25
982.684	2232.25
982.907	2202.25
983.129	2169.25
983.352	2248.25
983.575	2224.25
983.797	2235.25
984.02	2169.25
984.242	2161.25
984.465	2184.25
984.687	2172.25
984.91	2209.25
985.132	2172.25
985.354	2194.25
985.577	2170.25
985.799	2154.25
986.021	2081.25
986.243	2085.25
986.465	2125.25
986.687	2165.25
986.909	2215.25
987.131	2120.25
987.353	2084.25
987.575	2122.25
987.797	2082.25
988.019	2011.25
988.241	2104.25
988.462	2059.25
988.684	2096.25
988.906	2148.25
989.127	2140.25
989.349	2038.25
989.57	2064.25
989.792	2097.25
990.013	2121.25
990.234	2077.25
990.456	2103.25
990.677	2090.25
990.898	2062.25
991.119	2052.25
991.341	2070.25
991.562	1985.25
991.783	2060.25
992.004	1974.25
992.225	1913.25
992.446	1998.25
992.667	1934.25
992.887	1993.25
993.108	1893.25
993.329	2009.25
993.55	1943.25
993.77	1892.25
993.991	1897.25
994.212	1949.25
994.432	1919.25
994.653	1924.25
994.873	1902.25
995.093	1771.25
995.314	1864.25
995.534	1923.25
995.754	1945.25
995.975	1959.25
996.195	1842.25
996.415	1910.25
996.635	1882.25
996.855	1888.25
997.075	1850.25
997.295	1854.25
997.515	1830.25
997.735	1910.25
997.955	1884.25
998.174	1875.25
998.394	1853.25
998.614	1893.25
998.834	1858.25
999.053	1880.25
999.273	1870.25
999.492	1962.25
999.712	1869.25
999.931	1796.25
1000.151	1855.25
1000.37	1817.25
1000.589	1871.25
1000.809	1800.25
1001.028	1893.25
1001.247	1822.25
1001.466	1724.25
1001.685	1893.25
1001.904	1791.25
1002.123	1774.25
1002.342	1800.25
1002.561	1767.25
1002.78	1762.25
1002.999	1833.25
1003.218	1768.25
1003.436	1706.25
1003.655	1774.25
1003.874	1743.25
1004.092	1766.25
1004.311	1789.25
1004.53	1781.25
1004.748	1818.25
1004.966	1758.25
1005.185	1804.25
1005.403	1792.25
1005.622	1755.25
1005.84	1835.25
1006.058	1779.25
1006.276	1779.25
1006.494	2280.25
1006.712	1761.25
1006.931	1834.25
1007.149	1750.25
1007.367	1767.25
1007.584	1826.25
1007.802	1842.25
1008.02	1808.25
1008.238	1901.25
1008.456	1883.25
1008.673	1789.25
1008.891	1934.25
1009.109	1874.25
1009.326	1955.25
1009.544	2067.25
1009.761	1984.25
1009.979	2123.25
1010.196	2156.25
1010.413	2304.25
1010.631	2419.25
1010.848	2494.25
1011.065	2501.25
1011.282	2456.25
1011.5	2442.25
1011.717	2538.25
1011.934	2462.25
1012.151	2498.25
1012.368	2472.25
1012.585	2432.25
1012.801	2494.25
1013.018	2450.25
1013.235	2464.25
1013.452	2493.25
1013.669	2524.25
1013.885	2476.25
1014.102	2528.25
1014.318	2505.25
1014.535	2464.25
1014.751	2549.25
1014.968	2489.25
1015.184	2544.25
1015.401	2424.25
1015.617	2461.25
1015.833	2434.25
1016.049	2400.25
1016.266	2364.25
1016.482	2375.25
1016.698	2344.25
1016.914	2352.25
1017.13	2318.25
1017.346	2303.25
1017.562	2372.25
1017.778	2325.25
1017.993	2271.25
1018.209	2357.25
1018.425	2298.25
1018.641	2270.25
1018.856	2271.25
1019.072	2304.25
1019.288	2350.25
1019.503	2305.25
1019.719	2225.25
1019.934	2209.25
1020.149	2257.25
1020.365	2207.25
1020.58	2174.25
1020.795	2156.25
1021.011	2054.25
1021.226	2007.25
1021.441	2002.25
1021.656	1937.25
1021.871	1866.25
1022.086	1867.25
1022.301	1798.25
1022.516	1784.25
1022.731	1808.25
1022.946	1726.25
1023.16	1681.25
1023.375	1645.25
1023.59	1619.25
1023.804	1534.25
1024.019	1653.25
1024.234	1484.25
1024.448	1509.25
1024.663	1402.25
1024.877	1424.25
1025.092	1428.25
1025.306	1429.25
1025.52	1309.25
1025.734	1375.25
1025.949	1296.25
1026.163	1249.25
1026.377	1175.25
1026.591	1214.25
1026.805	1149.25
1027.019	1136.25
1027.233	1095.25
1027.447	1033.25
1027.661	1140.25
1027.875	1063.25
1028.088	1060.25
1028.302	1002.25
1028.516	989.25
1028.73	959.25
1028.943	927.25
1029.157	856.25
1029.37	814.25
1029.584	-1.75
1029.797	-2.75
1030.011	-1.75
1030.224	2.25
