Data from QEP037381__41__14-35-33-472.txt Node

Date: Wed Dec 21 14:35:33 EST 2022
User: dcclab
Spectrometer: QEP03738
Trigger mode: 4
Integration Time (sec): 1.000000E1
Scans to average: 1
Electric dark correction enabled: true
Nonlinearity correction enabled: false
Boxcar width: 0
XAxis mode: Wavelengths
Number of Pixels in Spectrum: 1044
>>>>>Begin Spectral Data<<<<<
784.041	11.62
784.3	2.62
784.558	-0.38
784.817	-4.38
785.075	63840.62
785.334	12175.62
785.592	6181.62
785.851	4364.62
786.109	3388.62
786.368	2642.62
786.626	2132.62
786.884	1839.62
787.143	1525.62
787.401	1272.62
787.659	1174.62
787.917	999.62
788.175	930.62
788.433	818.62
788.691	740.62
788.949	697.62
789.207	660.62
789.465	583.62
789.723	566.62
789.98	505.62
790.238	569.62
790.496	521.62
790.753	510.62
791.011	557.62
791.268	482.62
791.526	479.62
791.783	502.62
792.041	484.62
792.298	402.62
792.556	473.62
792.813	445.62
793.07	428.62
793.327	420.62
793.584	488.62
793.841	419.62
794.099	432.62
794.356	501.62
794.613	395.62
794.869	432.62
795.126	391.62
795.383	381.62
795.64	412.62
795.897	364.62
796.153	410.62
796.41	385.62
796.667	376.62
796.923	380.62
797.18	368.62
797.436	405.62
797.693	382.62
797.949	421.62
798.206	448.62
798.462	355.62
798.718	433.62
798.974	382.62
799.231	434.62
799.487	422.62
799.743	432.62
799.999	440.62
800.255	436.62
800.511	417.62
800.767	455.62
801.023	442.62
801.279	454.62
801.534	482.62
801.79	494.62
802.046	513.62
802.302	590.62
802.557	611.62
802.813	741.62
803.068	804.62
803.324	1063.62
803.579	1343.62
803.835	1828.62
804.09	2513.62
804.345	3281.62
804.601	4099.62
804.856	4955.62
805.111	5779.62
805.366	6356.62
805.621	6835.62
805.876	7089.62
806.131	7260.62
806.386	7329.62
806.641	7451.62
806.896	7651.62
807.151	7833.62
807.406	7887.62
807.661	7992.62
807.915	8235.62
808.17	8366.62
808.425	8458.62
808.679	8552.62
808.934	8622.62
809.188	8731.62
809.443	8888.62
809.697	9013.62
809.951	8979.62
810.206	9092.62
810.46	9180.62
810.714	9322.62
810.968	9408.62
811.223	9424.62
811.477	9534.62
811.731	9628.62
811.985	9632.62
812.239	9701.62
812.493	9832.62
812.747	9804.62
813	9802.62
813.254	9875.62
813.508	10064.62
813.762	9956.62
814.015	10104.62
814.269	10202.62
814.522	10255.62
814.776	10347.62
815.03	10441.62
815.283	10690.62
815.536	10885.62
815.79	11033.62
816.043	11267.62
816.296	11272.62
816.55	11476.62
816.803	11635.62
817.056	11853.62
817.309	11952.62
817.562	11971.62
817.815	12221.62
818.068	12286.62
818.321	12409.62
818.574	12541.62
818.827	12797.62
819.079	12943.62
819.332	13299.62
819.585	13358.62
819.838	13559.62
820.09	13526.62
820.343	13678.62
820.595	13735.62
820.848	13865.62
821.1	13923.62
821.353	13821.62
821.605	13862.62
821.857	13854.62
822.11	13778.62
822.362	13870.62
822.614	13752.62
822.866	13830.62
823.118	13700.62
823.37	13937.62
823.622	13982.62
823.874	13983.62
824.126	14084.62
824.378	14086.62
824.63	14172.62
824.882	14229.62
825.134	14118.62
825.385	14103.62
825.637	14038.62
825.888	14045.62
826.14	14024.62
826.392	13882.62
826.643	13861.62
826.895	13910.62
827.146	13817.62
827.397	13758.62
827.649	13897.62
827.9	13803.62
828.151	13771.62
828.402	13767.62
828.653	13813.62
828.905	13847.62
829.156	13956.62
829.407	13922.62
829.658	13993.62
829.909	14012.62
830.159	13932.62
830.41	13859.62
830.661	13798.62
830.912	13712.62
831.162	13768.62
831.413	13711.62
831.664	13737.62
831.914	13680.62
832.165	13660.62
832.415	13733.62
832.666	13754.62
832.916	13790.62
833.167	13628.62
833.417	13751.62
833.667	13698.62
833.917	13664.62
834.168	13622.62
834.418	13645.62
834.668	13563.62
834.918	13435.62
835.168	13460.62
835.418	13362.62
835.668	13305.62
835.918	13354.62
836.167	13432.62
836.417	13245.62
836.667	13343.62
836.917	13342.62
837.166	13267.62
837.416	13271.62
837.666	13311.62
837.915	13243.62
838.165	13249.62
838.414	13089.62
838.663	13098.62
838.913	13136.62
839.162	13104.62
839.411	13219.62
839.661	13154.62
839.91	13032.62
840.159	13026.62
840.408	13071.62
840.657	13162.62
840.906	13183.62
841.155	13174.62
841.404	13089.62
841.653	13176.62
841.902	13083.62
842.15	13185.62
842.399	13221.62
842.648	13249.62
842.897	13154.62
843.145	12975.62
843.394	12943.62
843.642	12854.62
843.891	12915.62
844.139	12755.62
844.388	12618.62
844.636	12609.62
844.884	12643.62
845.133	12544.62
845.381	12537.62
845.629	12585.62
845.877	12562.62
846.125	12570.62
846.373	12593.62
846.621	12493.62
846.869	12492.62
847.117	12452.62
847.365	12392.62
847.613	12347.62
847.861	12264.62
848.108	12349.62
848.356	12346.62
848.604	12301.62
848.851	12316.62
849.099	12380.62
849.346	12456.62
849.594	12586.62
849.841	12658.62
850.089	12742.62
850.336	12865.62
850.583	12957.62
850.831	13004.62
851.078	12869.62
851.325	12848.62
851.572	12942.62
851.819	12690.62
852.066	12303.62
852.313	11999.62
852.56	11866.62
852.807	11844.62
853.054	11815.62
853.301	11859.62
853.548	11910.62
853.794	12073.62
854.041	12053.62
854.288	12092.62
854.534	12237.62
854.781	12226.62
855.028	12056.62
855.274	12109.62
855.52	12019.62
855.767	11956.62
856.013	11932.62
856.26	12264.62
856.506	11848.62
856.752	11887.62
856.998	11834.62
857.244	11895.62
857.49	11947.62
857.736	11936.62
857.982	12002.62
858.228	11972.62
858.474	11857.62
858.72	11742.62
858.966	11635.62
859.212	11588.62
859.458	11407.62
859.703	11318.62
859.949	11156.62
860.195	11196.62
860.44	11009.62
860.686	10979.62
860.931	11095.62
861.177	10963.62
861.422	10956.62
861.667	10861.62
861.913	10921.62
862.158	10929.62
862.403	11032.62
862.648	11010.62
862.893	11028.62
863.138	11060.62
863.384	10956.62
863.629	11001.62
863.873	11041.62
864.118	10963.62
864.363	10844.62
864.608	10855.62
864.853	10838.62
865.098	10808.62
865.342	10770.62
865.587	10703.62
865.832	10751.62
866.076	10760.62
866.321	10745.62
866.565	10700.62
866.81	10510.62
867.054	10619.62
867.298	10599.62
867.543	10554.62
867.787	10585.62
868.031	10519.62
868.275	10507.62
868.519	10527.62
868.764	10477.62
869.008	10476.62
869.252	10480.62
869.496	10488.62
869.739	10535.62
869.983	10533.62
870.227	10542.62
870.471	10481.62
870.715	10622.62
870.958	10612.62
871.202	10614.62
871.446	10692.62
871.689	10586.62
871.933	10606.62
872.176	10610.62
872.42	10541.62
872.663	10564.62
872.906	10596.62
873.15	10514.62
873.393	10394.62
873.636	10477.62
873.879	10366.62
874.122	10286.62
874.366	10090.62
874.609	10053.62
874.852	10041.62
875.095	9943.62
875.337	9922.62
875.58	9814.62
875.823	9831.62
876.066	9891.62
876.309	9850.62
876.551	9759.62
876.794	9705.62
877.037	9734.62
877.279	9716.62
877.522	9681.62
877.764	9735.62
878.007	9578.62
878.249	9650.62
878.491	9565.62
878.734	9700.62
878.976	9636.62
879.218	9489.62
879.46	9531.62
879.702	9458.62
879.945	9368.62
880.187	9267.62
880.429	9232.62
880.671	9199.62
880.912	9246.62
881.154	9163.62
881.396	9146.62
881.638	9084.62
881.88	9198.62
882.121	9117.62
882.363	9147.62
882.605	9126.62
882.846	9106.62
883.088	9153.62
883.329	9105.62
883.571	9091.62
883.812	9269.62
884.053	9455.62
884.295	9562.62
884.536	9739.62
884.777	9703.62
885.018	9591.62
885.259	9601.62
885.5	9503.62
885.742	9791.62
885.982	9435.62
886.223	9354.62
886.464	9300.62
886.705	9219.62
886.946	9169.62
887.187	8943.62
887.428	8965.62
887.668	8770.62
887.909	8590.62
888.15	8500.62
888.39	8547.62
888.631	8621.62
888.871	8488.62
889.111	8377.62
889.352	8319.62
889.592	8162.62
889.833	8204.62
890.073	8137.62
890.313	8167.62
890.553	8018.62
890.793	7975.62
891.033	7980.62
891.273	7944.62
891.513	7923.62
891.753	7944.62
891.993	7918.62
892.233	7856.62
892.473	8011.62
892.713	7973.62
892.952	7949.62
893.192	8019.62
893.432	7976.62
893.671	8045.62
893.911	7965.62
894.15	7958.62
894.39	7840.62
894.629	7828.62
894.869	7786.62
895.108	7827.62
895.347	7752.62
895.587	7802.62
895.826	7724.62
896.065	7728.62
896.304	7768.62
896.543	7834.62
896.782	7704.62
897.021	7792.62
897.26	7774.62
897.499	7825.62
897.738	7904.62
897.977	7701.62
898.216	7762.62
898.454	7611.62
898.693	7581.62
898.932	7581.62
899.17	7549.62
899.409	7526.62
899.647	7653.62
899.886	7552.62
900.124	7617.62
900.363	7578.62
900.601	7626.62
900.839	7599.62
901.078	7715.62
901.316	7761.62
901.554	7778.62
901.792	7871.62
902.03	7846.62
902.268	7818.62
902.506	7838.62
902.744	7770.62
902.982	7667.62
903.22	7565.62
903.458	7414.62
903.695	7334.62
903.933	7208.62
904.171	7035.62
904.409	6916.62
904.646	6907.62
904.884	6788.62
905.121	6696.62
905.359	6559.62
905.596	6517.62
905.833	6402.62
906.071	6351.62
906.308	6424.62
906.545	6373.62
906.783	6311.62
907.02	6343.62
907.257	6250.62
907.494	6258.62
907.731	6284.62
907.968	6181.62
908.205	6208.62
908.442	6145.62
908.679	6140.62
908.915	6067.62
909.152	5994.62
909.389	5871.62
909.626	5898.62
909.862	5918.62
910.099	5847.62
910.335	5884.62
910.572	5742.62
910.808	5816.62
911.045	5704.62
911.281	5713.62
911.518	5812.62
911.754	5663.62
911.99	5681.62
912.226	5623.62
912.463	5575.62
912.699	5550.62
912.935	5415.62
913.171	5426.62
913.407	5413.62
913.643	5408.62
913.879	5335.62
914.114	5300.62
914.35	5244.62
914.586	5206.62
914.822	5172.62
915.057	5168.62
915.293	5013.62
915.529	5040.62
915.764	5112.62
916	5033.62
916.235	5084.62
916.471	5095.62
916.706	4988.62
916.941	5040.62
917.177	5036.62
917.412	5030.62
917.647	5060.62
917.882	4969.62
918.117	5101.62
918.352	5039.62
918.588	5044.62
918.823	4932.62
919.057	4868.62
919.292	4745.62
919.527	4915.62
919.762	4753.62
919.997	4795.62
920.232	4645.62
920.466	4701.62
920.701	4582.62
920.935	4568.62
921.17	4557.62
921.405	4512.62
921.639	4592.62
921.873	4557.62
922.108	4538.62
922.342	4549.62
922.576	4456.62
922.811	4458.62
923.045	4502.62
923.279	4522.62
923.513	4332.62
923.747	4452.62
923.981	4473.62
924.215	4340.62
924.449	4318.62
924.683	4265.62
924.917	4290.62
925.151	4274.62
925.385	4344.62
925.618	4311.62
925.852	4265.62
926.086	4208.62
926.319	4237.62
926.553	4235.62
926.786	4221.62
927.02	4230.62
927.253	4281.62
927.486	4295.62
927.72	4173.62
927.953	4204.62
928.186	4190.62
928.42	4218.62
928.653	4139.62
928.886	4109.62
929.119	4170.62
929.352	4148.62
929.585	4133.62
929.818	4071.62
930.051	4059.62
930.284	4099.62
930.516	3977.62
930.749	3946.62
930.982	3991.62
931.215	4000.62
931.447	3938.62
931.68	3958.62
931.912	3895.62
932.145	3915.62
932.377	3938.62
932.61	4035.62
932.842	3842.62
933.074	3943.62
933.307	3896.62
933.539	3981.62
933.771	3946.62
934.003	3897.62
934.236	3956.62
934.468	3986.62
934.7	3909.62
934.932	3967.62
935.164	3889.62
935.395	3875.62
935.627	3909.62
935.859	3915.62
936.091	3833.62
936.323	3895.62
936.554	3951.62
936.786	3812.62
937.017	3787.62
937.249	3821.62
937.481	3755.62
937.712	3799.62
937.943	3828.62
938.175	3784.62
938.406	3774.62
938.637	3820.62
938.869	3737.62
939.1	3756.62
939.331	3733.62
939.562	3744.62
939.793	3789.62
940.024	3744.62
940.255	3723.62
940.486	3698.62
940.717	3715.62
940.948	3685.62
941.179	3635.62
941.409	3639.62
941.64	3641.62
941.871	3710.62
942.102	3614.62
942.332	3654.62
942.563	3666.62
942.793	3641.62
943.024	3602.62
943.254	3650.62
943.484	3681.62
943.715	3664.62
943.945	3653.62
944.175	3562.62
944.405	3550.62
944.636	3621.62
944.866	3673.62
945.096	3640.62
945.326	3605.62
945.556	3633.62
945.786	3614.62
946.016	3592.62
946.245	3488.62
946.475	3484.62
946.705	3467.62
946.935	3469.62
947.164	3474.62
947.394	3408.62
947.624	3444.62
947.853	3455.62
948.083	3448.62
948.312	3414.62
948.542	3362.62
948.771	3351.62
949	3361.62
949.23	3348.62
949.459	3379.62
949.688	3428.62
949.917	3377.62
950.146	3383.62
950.375	3429.62
950.604	3313.62
950.833	3436.62
951.062	3375.62
951.291	3359.62
951.52	3298.62
951.749	3319.62
951.978	3252.62
952.206	3318.62
952.435	3225.62
952.664	3312.62
952.892	3312.62
953.121	3265.62
953.349	3329.62
953.578	3256.62
953.806	3225.62
954.035	3220.62
954.263	3211.62
954.491	3114.62
954.719	3167.62
954.948	3130.62
955.176	3112.62
955.404	3076.62
955.632	3126.62
955.86	3128.62
956.088	3143.62
956.316	3153.62
956.544	3094.62
956.772	3066.62
956.999	3032.62
957.227	3131.62
957.455	3027.62
957.683	3040.62
957.91	3008.62
958.138	2965.62
958.365	2979.62
958.593	2974.62
958.82	2902.62
959.048	2977.62
959.275	2910.62
959.502	2897.62
959.73	2913.62
959.957	2933.62
960.184	2988.62
960.411	2941.62
960.638	2964.62
960.865	2890.62
961.092	2944.62
961.319	2827.62
961.546	2943.62
961.773	2931.62
962	2919.62
962.227	2919.62
962.454	2876.62
962.68	2878.62
962.907	2890.62
963.134	2842.62
963.36	2908.62
963.587	2862.62
963.813	2812.62
964.04	2815.62
964.266	2751.62
964.493	2824.62
964.719	2776.62
964.945	2768.62
965.171	2707.62
965.398	2712.62
965.624	2754.62
965.85	2658.62
966.076	2684.62
966.302	2722.62
966.528	2675.62
966.754	2725.62
966.98	2727.62
967.206	2703.62
967.431	2611.62
967.657	2687.62
967.883	2679.62
968.109	2659.62
968.334	2632.62
968.56	2635.62
968.785	2611.62
969.011	2548.62
969.236	2609.62
969.462	2528.62
969.687	2563.62
969.912	2614.62
970.138	2635.62
970.363	2539.62
970.588	2581.62
970.813	2549.62
971.038	2505.62
971.263	2558.62
971.488	2526.62
971.713	2565.62
971.938	2563.62
972.163	2482.62
972.388	2474.62
972.613	2460.62
972.838	2468.62
973.062	2466.62
973.287	2478.62
973.512	2384.62
973.736	2439.62
973.961	2412.62
974.185	2366.62
974.41	2406.62
974.634	2312.62
974.858	2371.62
975.083	2361.62
975.307	2382.62
975.531	2324.62
975.755	2273.62
975.98	2293.62
976.204	2223.62
976.428	2205.62
976.652	2227.62
976.876	2214.62
977.1	2235.62
977.324	2193.62
977.547	2251.62
977.771	2271.62
977.995	2221.62
978.219	2188.62
978.442	2294.62
978.666	2218.62
978.89	2201.62
979.113	2214.62
979.337	2209.62
979.56	2194.62
979.783	2262.62
980.007	2138.62
980.23	2176.62
980.453	2139.62
980.677	2172.62
980.9	2134.62
981.123	2074.62
981.346	2133.62
981.569	2143.62
981.792	2166.62
982.015	2135.62
982.238	2101.62
982.461	2097.62
982.684	2057.62
982.907	2043.62
983.129	2043.62
983.352	2100.62
983.575	2056.62
983.797	2060.62
984.02	2022.62
984.242	1983.62
984.465	2015.62
984.687	2028.62
984.91	2045.62
985.132	2036.62
985.354	2061.62
985.577	2001.62
985.799	1991.62
986.021	1924.62
986.243	1950.62
986.465	1941.62
986.687	2004.62
986.909	2058.62
987.131	1990.62
987.353	1931.62
987.575	1986.62
987.797	1924.62
988.019	1862.62
988.241	1942.62
988.462	1870.62
988.684	1960.62
988.906	1997.62
989.127	1958.62
989.349	1854.62
989.57	1898.62
989.792	1910.62
990.013	1974.62
990.234	1964.62
990.456	1971.62
990.677	1956.62
990.898	1897.62
991.119	1889.62
991.341	1926.62
991.562	1823.62
991.783	1902.62
992.004	1829.62
992.225	1800.62
992.446	1876.62
992.667	1764.62
992.887	1852.62
993.108	1738.62
993.329	1867.62
993.55	1790.62
993.77	1756.62
993.991	1734.62
994.212	1788.62
994.432	1762.62
994.653	1783.62
994.873	1788.62
995.093	1683.62
995.314	1720.62
995.534	1799.62
995.754	1787.62
995.975	1833.62
996.195	1722.62
996.415	1745.62
996.635	1748.62
996.855	1733.62
997.075	1748.62
997.295	1724.62
997.515	1706.62
997.735	1771.62
997.955	1740.62
998.174	1722.62
998.394	1716.62
998.614	1745.62
998.834	1701.62
999.053	1768.62
999.273	1726.62
999.492	1797.62
999.712	1727.62
999.931	1663.62
1000.151	1723.62
1000.37	1679.62
1000.589	1768.62
1000.809	1656.62
1001.028	1764.62
1001.247	1719.62
1001.466	1588.62
1001.685	1752.62
1001.904	1685.62
1002.123	1693.62
1002.342	1685.62
1002.561	1621.62
1002.78	1643.62
1002.999	1737.62
1003.218	1666.62
1003.436	1654.62
1003.655	1658.62
1003.874	1635.62
1004.092	1643.62
1004.311	1688.62
1004.53	1624.62
1004.748	1688.62
1004.966	1643.62
1005.185	1690.62
1005.403	1673.62
1005.622	1647.62
1005.84	1732.62
1006.058	1643.62
1006.276	1659.62
1006.494	2171.62
1006.712	1660.62
1006.931	1722.62
1007.149	1649.62
1007.367	1658.62
1007.584	1714.62
1007.802	1736.62
1008.02	1677.62
1008.238	1755.62
1008.456	1794.62
1008.673	1657.62
1008.891	1801.62
1009.109	1754.62
1009.326	1815.62
1009.544	1905.62
1009.761	1832.62
1009.979	1960.62
1010.196	1995.62
1010.413	2111.62
1010.631	2178.62
1010.848	2249.62
1011.065	2228.62
1011.282	2210.62
1011.5	2136.62
1011.717	2241.62
1011.934	2203.62
1012.151	2251.62
1012.368	2231.62
1012.585	2169.62
1012.801	2202.62
1013.018	2185.62
1013.235	2142.62
1013.452	2180.62
1013.669	2235.62
1013.885	2189.62
1014.102	2241.62
1014.318	2229.62
1014.535	2178.62
1014.751	2222.62
1014.968	2226.62
1015.184	2228.62
1015.401	2139.62
1015.617	2191.62
1015.833	2143.62
1016.049	2096.62
1016.266	2096.62
1016.482	2113.62
1016.698	2015.62
1016.914	2092.62
1017.13	2023.62
1017.346	2031.62
1017.562	2069.62
1017.778	2048.62
1017.993	2017.62
1018.209	2077.62
1018.425	2037.62
1018.641	1998.62
1018.856	1994.62
1019.072	2038.62
1019.288	2095.62
1019.503	2020.62
1019.719	1933.62
1019.934	1948.62
1020.149	2035.62
1020.365	1941.62
1020.58	1887.62
1020.795	1917.62
1021.011	1840.62
1021.226	1829.62
1021.441	1806.62
1021.656	1721.62
1021.871	1659.62
1022.086	1665.62
1022.301	1647.62
1022.516	1609.62
1022.731	1674.62
1022.946	1559.62
1023.16	1560.62
1023.375	1506.62
1023.59	1481.62
1023.804	1442.62
1024.019	1560.62
1024.234	1374.62
1024.448	1442.62
1024.663	1319.62
1024.877	1351.62
1025.092	1375.62
1025.306	1357.62
1025.52	1265.62
1025.734	1328.62
1025.949	1234.62
1026.163	1201.62
1026.377	1127.62
1026.591	1207.62
1026.805	1137.62
1027.019	1113.62
1027.233	1067.62
1027.447	1010.62
1027.661	1105.62
1027.875	1037.62
1028.088	1041.62
1028.302	967.62
1028.516	962.62
1028.73	952.62
1028.943	932.62
1029.157	870.62
1029.37	847.62
1029.584	-2.38
1029.797	-2.38
1030.011	-2.38
1030.224	-2.38
