Data from QEP037381__43__14-35-53-471.txt Node

Date: Wed Dec 21 14:35:53 EST 2022
User: dcclab
Spectrometer: QEP03738
Trigger mode: 4
Integration Time (sec): 1.000000E1
Scans to average: 1
Electric dark correction enabled: true
Nonlinearity correction enabled: false
Boxcar width: 0
XAxis mode: Wavelengths
Number of Pixels in Spectrum: 1044
>>>>>Begin Spectral Data<<<<<
784.041	16.25
784.3	-3.75
784.558	-0.75
784.817	-3.75
785.075	88906.25
785.334	15710.25
785.592	7417.25
785.851	5137.25
786.109	3866.25
786.368	3038.25
786.626	2440.25
786.884	2032.25
787.143	1711.25
787.401	1421.25
787.659	1299.25
787.917	1113.25
788.175	1024.25
788.433	908.25
788.691	814.25
788.949	734.25
789.207	717.25
789.465	609.25
789.723	592.25
789.98	542.25
790.238	580.25
790.496	547.25
790.753	537.25
791.011	559.25
791.268	517.25
791.526	496.25
791.783	502.25
792.041	481.25
792.298	397.25
792.556	475.25
792.813	455.25
793.07	438.25
793.327	421.25
793.584	498.25
793.841	425.25
794.099	452.25
794.356	506.25
794.613	414.25
794.869	436.25
795.126	398.25
795.383	391.25
795.64	398.25
795.897	356.25
796.153	407.25
796.41	398.25
796.667	385.25
796.923	396.25
797.18	388.25
797.436	418.25
797.693	389.25
797.949	444.25
798.206	456.25
798.462	382.25
798.718	446.25
798.974	395.25
799.231	438.25
799.487	423.25
799.743	427.25
799.999	459.25
800.255	437.25
800.511	431.25
800.767	486.25
801.023	448.25
801.279	463.25
801.534	484.25
801.79	526.25
802.046	508.25
802.302	594.25
802.557	652.25
802.813	752.25
803.068	844.25
803.324	1141.25
803.579	1446.25
803.835	1949.25
804.09	2683.25
804.345	3500.25
804.601	4438.25
804.856	5445.25
805.111	6316.25
805.366	6911.25
805.621	7377.25
805.876	7731.25
806.131	7913.25
806.386	8093.25
806.641	8194.25
806.896	8329.25
807.151	8545.25
807.406	8744.25
807.661	8857.25
807.915	8974.25
808.17	9186.25
808.425	9277.25
808.679	9297.25
808.934	9592.25
809.188	9598.25
809.443	9749.25
809.697	9937.25
809.951	9919.25
810.206	10000.25
810.46	10205.25
810.714	10243.25
810.968	10352.25
811.223	10409.25
811.477	10504.25
811.731	10648.25
811.985	10594.25
812.239	10693.25
812.493	10790.25
812.747	10872.25
813	10866.25
813.254	10999.25
813.508	11000.25
813.762	11070.25
814.015	11182.25
814.269	11186.25
814.522	11373.25
814.776	11516.25
815.03	11637.25
815.283	11741.25
815.536	11953.25
815.79	12236.25
816.043	12362.25
816.296	12547.25
816.55	12766.25
816.803	12949.25
817.056	13125.25
817.309	13245.25
817.562	13377.25
817.815	13554.25
818.068	13633.25
818.321	13790.25
818.574	13971.25
818.827	14208.25
819.079	14352.25
819.332	14779.25
819.585	14860.25
819.838	15220.25
820.09	15067.25
820.343	15309.25
820.595	15317.25
820.848	15394.25
821.1	15506.25
821.353	15526.25
821.605	15509.25
821.857	15545.25
822.11	15428.25
822.362	15403.25
822.614	15431.25
822.866	15423.25
823.118	15426.25
823.37	15575.25
823.622	15643.25
823.874	15709.25
824.126	15739.25
824.378	15820.25
824.63	15873.25
824.882	15880.25
825.134	15897.25
825.385	15900.25
825.637	15828.25
825.888	15694.25
826.14	15757.25
826.392	15678.25
826.643	15562.25
826.895	15561.25
827.146	15486.25
827.397	15519.25
827.649	15478.25
827.9	15384.25
828.151	15528.25
828.402	15532.25
828.653	15566.25
828.905	15574.25
829.156	15723.25
829.407	15675.25
829.658	15739.25
829.909	15739.25
830.159	15789.25
830.41	15786.25
830.661	15692.25
830.912	15577.25
831.162	15482.25
831.413	15585.25
831.664	15547.25
831.914	15596.25
832.165	15539.25
832.415	15534.25
832.666	15574.25
832.916	15490.25
833.167	15506.25
833.417	15506.25
833.667	15462.25
833.917	15509.25
834.168	15504.25
834.418	15365.25
834.668	15433.25
834.918	15306.25
835.168	15298.25
835.418	15220.25
835.668	15229.25
835.918	15189.25
836.167	15126.25
836.417	15089.25
836.667	15109.25
836.917	15120.25
837.166	15151.25
837.416	15189.25
837.666	15309.25
837.915	15110.25
838.165	15139.25
838.414	15045.25
838.663	14988.25
838.913	15010.25
839.162	15056.25
839.411	15075.25
839.661	15040.25
839.91	15039.25
840.159	15036.25
840.408	15003.25
840.657	15057.25
840.906	15057.25
841.155	15069.25
841.404	15054.25
841.653	15002.25
841.902	15101.25
842.15	15143.25
842.399	15183.25
842.648	15133.25
842.897	15174.25
843.145	15022.25
843.394	14854.25
843.642	14815.25
843.891	14729.25
844.139	14646.25
844.388	14562.25
844.636	14503.25
844.884	14633.25
845.133	14560.25
845.381	14544.25
845.629	14540.25
845.877	14553.25
846.125	14612.25
846.373	14611.25
846.621	14500.25
846.869	14492.25
847.117	14455.25
847.365	14380.25
847.613	14175.25
847.861	14339.25
848.108	14305.25
848.356	14202.25
848.604	14274.25
848.851	14325.25
849.099	14347.25
849.346	14447.25
849.594	14521.25
849.841	14658.25
850.089	14662.25
850.336	14689.25
850.583	14813.25
850.831	14825.25
851.078	14832.25
851.325	14816.25
851.572	14993.25
851.819	14651.25
852.066	14161.25
852.313	13979.25
852.56	13786.25
852.807	13722.25
853.054	13751.25
853.301	13785.25
853.548	13866.25
853.794	13971.25
854.041	14060.25
854.288	14009.25
854.534	14189.25
854.781	14121.25
855.028	14084.25
855.274	14076.25
855.52	14022.25
855.767	13972.25
856.013	13984.25
856.26	14368.25
856.506	13826.25
856.752	13844.25
856.998	13854.25
857.244	13934.25
857.49	14025.25
857.736	14063.25
857.982	13998.25
858.228	14004.25
858.474	13880.25
858.72	13819.25
858.966	13623.25
859.212	13434.25
859.458	13398.25
859.703	13162.25
859.949	13058.25
860.195	13066.25
860.44	12957.25
860.686	12920.25
860.931	12973.25
861.177	12941.25
861.422	12904.25
861.667	12776.25
861.913	12746.25
862.158	12745.25
862.403	12827.25
862.648	12895.25
862.893	12951.25
863.138	12877.25
863.384	12855.25
863.629	12892.25
863.873	12887.25
864.118	12842.25
864.363	12783.25
864.608	12858.25
864.853	12795.25
865.098	12686.25
865.342	12662.25
865.587	12613.25
865.832	12633.25
866.076	12638.25
866.321	12590.25
866.565	12589.25
866.81	12428.25
867.054	12521.25
867.298	12446.25
867.543	12395.25
867.787	12421.25
868.031	12326.25
868.275	12387.25
868.519	12367.25
868.764	12386.25
869.008	12396.25
869.252	12421.25
869.496	12367.25
869.739	12357.25
869.983	12504.25
870.227	12519.25
870.471	12495.25
870.715	12510.25
870.958	12654.25
871.202	12617.25
871.446	12695.25
871.689	12626.25
871.933	12613.25
872.176	12627.25
872.42	12509.25
872.663	12536.25
872.906	12522.25
873.15	12528.25
873.393	12510.25
873.636	12511.25
873.879	12390.25
874.122	12265.25
874.366	12049.25
874.609	12010.25
874.852	11879.25
875.095	11866.25
875.337	11855.25
875.58	11800.25
875.823	11720.25
876.066	11686.25
876.309	11679.25
876.551	11593.25
876.794	11490.25
877.037	11583.25
877.279	11528.25
877.522	11513.25
877.764	11530.25
878.007	11444.25
878.249	11415.25
878.491	11425.25
878.734	11499.25
878.976	11410.25
879.218	11330.25
879.46	11302.25
879.702	11179.25
879.945	11174.25
880.187	10986.25
880.429	11019.25
880.671	10866.25
880.912	10998.25
881.154	10874.25
881.396	10794.25
881.638	10928.25
881.88	10902.25
882.121	10885.25
882.363	10835.25
882.605	10894.25
882.846	10820.25
883.088	10831.25
883.329	10815.25
883.571	10902.25
883.812	11080.25
884.053	11305.25
884.295	11637.25
884.536	11795.25
884.777	11752.25
885.018	11723.25
885.259	11650.25
885.5	11485.25
885.742	11829.25
885.982	11444.25
886.223	11284.25
886.464	11303.25
886.705	11104.25
886.946	10985.25
887.187	10765.25
887.428	10714.25
887.668	10412.25
887.909	10272.25
888.15	10113.25
888.39	10159.25
888.631	10135.25
888.871	9984.25
889.111	9967.25
889.352	9909.25
889.592	9787.25
889.833	9701.25
890.073	9673.25
890.313	9665.25
890.553	9476.25
890.793	9521.25
891.033	9479.25
891.273	9470.25
891.513	9373.25
891.753	9421.25
891.993	9402.25
892.233	9507.25
892.473	9537.25
892.713	9448.25
892.952	9412.25
893.192	9506.25
893.432	9463.25
893.671	9480.25
893.911	9547.25
894.15	9396.25
894.39	9278.25
894.629	9376.25
894.869	9275.25
895.108	9250.25
895.347	9159.25
895.587	9222.25
895.826	9138.25
896.065	9139.25
896.304	9207.25
896.543	9209.25
896.782	9076.25
897.021	9184.25
897.26	9166.25
897.499	9208.25
897.738	9288.25
897.977	9205.25
898.216	9083.25
898.454	9056.25
898.693	8955.25
898.932	9004.25
899.17	8899.25
899.409	8904.25
899.647	8889.25
899.886	8966.25
900.124	8965.25
900.363	8984.25
900.601	9056.25
900.839	9118.25
901.078	9160.25
901.316	9190.25
901.554	9279.25
901.792	9383.25
902.03	9369.25
902.268	9394.25
902.506	9391.25
902.744	9273.25
902.982	9250.25
903.22	9005.25
903.458	8921.25
903.695	8672.25
903.933	8634.25
904.171	8417.25
904.409	8248.25
904.646	8223.25
904.884	7943.25
905.121	7997.25
905.359	7860.25
905.596	7842.25
905.833	7703.25
906.071	7659.25
906.308	7640.25
906.545	7590.25
906.783	7510.25
907.02	7552.25
907.257	7445.25
907.494	7497.25
907.731	7470.25
907.968	7407.25
908.205	7391.25
908.442	7345.25
908.679	7291.25
908.915	7258.25
909.152	7227.25
909.389	7109.25
909.626	7131.25
909.862	7035.25
910.099	7005.25
910.335	6986.25
910.572	6919.25
910.808	6968.25
911.045	6875.25
911.281	6818.25
911.518	6879.25
911.754	6815.25
911.99	6889.25
912.226	6797.25
912.463	6733.25
912.699	6686.25
912.935	6640.25
913.171	6581.25
913.407	6518.25
913.643	6549.25
913.879	6492.25
914.114	6430.25
914.35	6379.25
914.586	6292.25
914.822	6202.25
915.057	6263.25
915.293	6097.25
915.529	6099.25
915.764	6186.25
916	6177.25
916.235	6088.25
916.471	6115.25
916.706	6073.25
916.941	6114.25
917.177	6066.25
917.412	6090.25
917.647	6065.25
917.882	6042.25
918.117	6119.25
918.352	6070.25
918.588	6085.25
918.823	5980.25
919.057	5933.25
919.292	5834.25
919.527	5843.25
919.762	5809.25
919.997	5776.25
920.232	5664.25
920.466	5666.25
920.701	5545.25
920.935	5598.25
921.17	5528.25
921.405	5510.25
921.639	5554.25
921.873	5467.25
922.108	5440.25
922.342	5493.25
922.576	5387.25
922.811	5408.25
923.045	5405.25
923.279	5430.25
923.513	5297.25
923.747	5383.25
923.981	5299.25
924.215	5287.25
924.449	5276.25
924.683	5176.25
924.917	5176.25
925.151	5184.25
925.385	5234.25
925.618	5147.25
925.852	5184.25
926.086	5050.25
926.319	5122.25
926.553	5130.25
926.786	5186.25
927.02	5074.25
927.253	5120.25
927.486	5147.25
927.72	5090.25
927.953	5112.25
928.186	5039.25
928.42	5113.25
928.653	5055.25
928.886	4948.25
929.119	5005.25
929.352	5013.25
929.585	4974.25
929.818	4888.25
930.051	4968.25
930.284	4934.25
930.516	4801.25
930.749	4759.25
930.982	4813.25
931.215	4847.25
931.447	4670.25
931.68	4735.25
931.912	4731.25
932.145	4687.25
932.377	4782.25
932.61	4875.25
932.842	4686.25
933.074	4772.25
933.307	4687.25
933.539	4864.25
933.771	4765.25
934.003	4735.25
934.236	4787.25
934.468	4835.25
934.7	4699.25
934.932	4768.25
935.164	4695.25
935.395	4670.25
935.627	4682.25
935.859	4688.25
936.091	4589.25
936.323	4682.25
936.554	4722.25
936.786	4627.25
937.017	4561.25
937.249	4624.25
937.481	4593.25
937.712	4603.25
937.943	4576.25
938.175	4537.25
938.406	4531.25
938.637	4577.25
938.869	4512.25
939.1	4524.25
939.331	4516.25
939.562	4512.25
939.793	4532.25
940.024	4566.25
940.255	4553.25
940.486	4480.25
940.717	4445.25
940.948	4418.25
941.179	4377.25
941.409	4406.25
941.64	4393.25
941.871	4398.25
942.102	4427.25
942.332	4348.25
942.563	4411.25
942.793	4445.25
943.024	4319.25
943.254	4350.25
943.484	4408.25
943.715	4442.25
943.945	4383.25
944.175	4358.25
944.405	4338.25
944.636	4300.25
944.866	4350.25
945.096	4361.25
945.326	4342.25
945.556	4344.25
945.786	4313.25
946.016	4308.25
946.245	4232.25
946.475	4195.25
946.705	4208.25
946.935	4174.25
947.164	4207.25
947.394	4137.25
947.624	4147.25
947.853	4148.25
948.083	4168.25
948.312	4080.25
948.542	4059.25
948.771	4030.25
949	4034.25
949.23	4043.25
949.459	4056.25
949.688	4133.25
949.917	4053.25
950.146	4047.25
950.375	4083.25
950.604	3983.25
950.833	4075.25
951.062	4094.25
951.291	4029.25
951.52	3927.25
951.749	3995.25
951.978	3944.25
952.206	3958.25
952.435	3950.25
952.664	4000.25
952.892	3957.25
953.121	3938.25
953.349	3979.25
953.578	3934.25
953.806	3865.25
954.035	3823.25
954.263	3850.25
954.491	3811.25
954.719	3880.25
954.948	3790.25
955.176	3757.25
955.404	3726.25
955.632	3767.25
955.86	3781.25
956.088	3758.25
956.316	3779.25
956.544	3780.25
956.772	3694.25
956.999	3662.25
957.227	3731.25
957.455	3614.25
957.683	3644.25
957.91	3564.25
958.138	3606.25
958.365	3543.25
958.593	3541.25
958.82	3530.25
959.048	3585.25
959.275	3551.25
959.502	3537.25
959.73	3503.25
959.957	3537.25
960.184	3598.25
960.411	3479.25
960.638	3609.25
960.865	3495.25
961.092	3492.25
961.319	3443.25
961.546	3530.25
961.773	3548.25
962	3473.25
962.227	3519.25
962.454	3510.25
962.68	3494.25
962.907	3453.25
963.134	3389.25
963.36	3423.25
963.587	3427.25
963.813	3343.25
964.04	3397.25
964.266	3313.25
964.493	3342.25
964.719	3381.25
964.945	3368.25
965.171	3283.25
965.398	3340.25
965.624	3310.25
965.85	3217.25
966.076	3235.25
966.302	3270.25
966.528	3214.25
966.754	3234.25
966.98	3204.25
967.206	3212.25
967.431	3141.25
967.657	3215.25
967.883	3182.25
968.109	3202.25
968.334	3127.25
968.56	3101.25
968.785	3147.25
969.011	3077.25
969.236	3128.25
969.462	3103.25
969.687	3087.25
969.912	3139.25
970.138	3151.25
970.363	3048.25
970.588	3054.25
970.813	3040.25
971.038	3044.25
971.263	3004.25
971.488	3070.25
971.713	3052.25
971.938	3018.25
972.163	2922.25
972.388	2968.25
972.613	2932.25
972.838	2981.25
973.062	2941.25
973.287	2949.25
973.512	2886.25
973.736	2879.25
973.961	2850.25
974.185	2852.25
974.41	2866.25
974.634	2778.25
974.858	2792.25
975.083	2828.25
975.307	2831.25
975.531	2778.25
975.755	2715.25
975.98	2751.25
976.204	2666.25
976.428	2665.25
976.652	2673.25
976.876	2620.25
977.1	2698.25
977.324	2629.25
977.547	2714.25
977.771	2698.25
977.995	2655.25
978.219	2586.25
978.442	2714.25
978.666	2659.25
978.89	2627.25
979.113	2660.25
979.337	2659.25
979.56	2581.25
979.783	2682.25
980.007	2589.25
980.23	2542.25
980.453	2549.25
980.677	2585.25
980.9	2534.25
981.123	2484.25
981.346	2562.25
981.569	2547.25
981.792	2529.25
982.015	2502.25
982.238	2477.25
982.461	2502.25
982.684	2477.25
982.907	2429.25
983.129	2431.25
983.352	2462.25
983.575	2406.25
983.797	2473.25
984.02	2383.25
984.242	2370.25
984.465	2382.25
984.687	2408.25
984.91	2418.25
985.132	2406.25
985.354	2409.25
985.577	2380.25
985.799	2361.25
986.021	2262.25
986.243	2303.25
986.465	2328.25
986.687	2356.25
986.909	2408.25
987.131	2318.25
987.353	2266.25
987.575	2313.25
987.797	2339.25
988.019	2238.25
988.241	2266.25
988.462	2236.25
988.684	2320.25
988.906	2317.25
989.127	2347.25
989.349	2229.25
989.57	2250.25
989.792	2274.25
990.013	2274.25
990.234	2291.25
990.456	2316.25
990.677	2277.25
990.898	2232.25
991.119	2225.25
991.341	2242.25
991.562	2183.25
991.783	2215.25
992.004	2172.25
992.225	2145.25
992.446	2209.25
992.667	2099.25
992.887	2189.25
993.108	2091.25
993.329	2171.25
993.55	2129.25
993.77	2069.25
993.991	2082.25
994.212	2095.25
994.432	2088.25
994.653	2087.25
994.873	2069.25
995.093	1989.25
995.314	2013.25
995.534	2076.25
995.754	2111.25
995.975	2097.25
996.195	2007.25
996.415	2034.25
996.635	2057.25
996.855	2040.25
997.075	2002.25
997.295	2024.25
997.515	1997.25
997.735	2067.25
997.955	2013.25
998.174	2020.25
998.394	2001.25
998.614	2026.25
998.834	2003.25
999.053	2041.25
999.273	2015.25
999.492	2052.25
999.712	1991.25
999.931	1962.25
1000.151	1988.25
1000.37	1975.25
1000.589	2035.25
1000.809	1915.25
1001.028	2053.25
1001.247	1989.25
1001.466	1867.25
1001.685	1997.25
1001.904	1935.25
1002.123	1914.25
1002.342	1930.25
1002.561	1869.25
1002.78	1912.25
1002.999	1974.25
1003.218	1893.25
1003.436	1899.25
1003.655	1934.25
1003.874	1872.25
1004.092	1856.25
1004.311	1913.25
1004.53	1870.25
1004.748	1974.25
1004.966	1834.25
1005.185	1898.25
1005.403	1898.25
1005.622	1849.25
1005.84	1955.25
1006.058	1856.25
1006.276	1852.25
1006.494	2371.25
1006.712	1879.25
1006.931	1954.25
1007.149	1869.25
1007.367	1857.25
1007.584	1919.25
1007.802	1958.25
1008.02	1911.25
1008.238	2019.25
1008.456	2022.25
1008.673	1896.25
1008.891	2043.25
1009.109	1983.25
1009.326	2064.25
1009.544	2148.25
1009.761	2128.25
1009.979	2264.25
1010.196	2284.25
1010.413	2415.25
1010.631	2504.25
1010.848	2590.25
1011.065	2658.25
1011.282	2612.25
1011.5	2530.25
1011.717	2626.25
1011.934	2565.25
1012.151	2626.25
1012.368	2592.25
1012.585	2509.25
1012.801	2572.25
1013.018	2583.25
1013.235	2544.25
1013.452	2612.25
1013.669	2597.25
1013.885	2617.25
1014.102	2669.25
1014.318	2607.25
1014.535	2582.25
1014.751	2628.25
1014.968	2600.25
1015.184	2625.25
1015.401	2518.25
1015.617	2544.25
1015.833	2517.25
1016.049	2506.25
1016.266	2462.25
1016.482	2471.25
1016.698	2366.25
1016.914	2387.25
1017.13	2373.25
1017.346	2347.25
1017.562	2408.25
1017.778	2402.25
1017.993	2354.25
1018.209	2400.25
1018.425	2378.25
1018.641	2367.25
1018.856	2340.25
1019.072	2345.25
1019.288	2410.25
1019.503	2353.25
1019.719	2242.25
1019.934	2271.25
1020.149	2344.25
1020.365	2275.25
1020.58	2198.25
1020.795	2213.25
1021.011	2125.25
1021.226	2052.25
1021.441	2081.25
1021.656	1979.25
1021.871	1901.25
1022.086	1903.25
1022.301	1879.25
1022.516	1819.25
1022.731	1909.25
1022.946	1777.25
1023.16	1734.25
1023.375	1730.25
1023.59	1647.25
1023.804	1621.25
1024.019	1693.25
1024.234	1562.25
1024.448	1577.25
1024.663	1509.25
1024.877	1508.25
1025.092	1484.25
1025.306	1476.25
1025.52	1373.25
1025.734	1438.25
1025.949	1341.25
1026.163	1298.25
1026.377	1227.25
1026.591	1282.25
1026.805	1178.25
1027.019	1206.25
1027.233	1167.25
1027.447	1098.25
1027.661	1186.25
1027.875	1139.25
1028.088	1129.25
1028.302	1047.25
1028.516	1028.25
1028.73	1029.25
1028.943	983.25
1029.157	935.25
1029.37	869.25
1029.584	-2.75
1029.797	-4.75
1030.011	-0.75
1030.224	0.25
