Data from QEP037381__26__14-33-03-471.txt Node

Date: Wed Dec 21 14:33:03 EST 2022
User: dcclab
Spectrometer: QEP03738
Trigger mode: 4
Integration Time (sec): 1.000000E1
Scans to average: 1
Electric dark correction enabled: true
Nonlinearity correction enabled: false
Boxcar width: 0
XAxis mode: Wavelengths
Number of Pixels in Spectrum: 1044
>>>>>Begin Spectral Data<<<<<
784.041	14
784.3	0
784.558	-4
784.817	-1
785.075	84938
785.334	14846
785.592	7089
785.851	4870
786.109	3706
786.368	2920
786.626	2369
786.884	1963
787.143	1679
787.401	1392
787.659	1248
787.917	1078
788.175	985
788.433	880
788.691	780
788.949	721
789.207	684
789.465	607
789.723	561
789.98	549
790.238	593
790.496	542
790.753	504
791.011	569
791.268	490
791.526	492
791.783	508
792.041	484
792.298	407
792.556	473
792.813	456
793.07	452
793.327	421
793.584	508
793.841	427
794.099	442
794.356	494
794.613	389
794.869	432
795.126	398
795.383	373
795.64	406
795.897	361
796.153	422
796.41	403
796.667	393
796.923	409
797.18	391
797.436	402
797.693	387
797.949	425
798.206	457
798.462	379
798.718	460
798.974	416
799.231	442
799.487	428
799.743	442
799.999	457
800.255	461
800.511	439
800.767	465
801.023	451
801.279	481
801.534	503
801.79	543
802.046	546
802.302	648
802.557	701
802.813	856
803.068	985
803.324	1342
803.579	1741
803.835	2312
804.09	3169
804.345	4110
804.601	5055
804.856	6077
805.111	6990
805.366	7708
805.621	8242
805.876	8557
806.131	8825
806.386	8971
806.641	9101
806.896	9336
807.151	9533
807.406	9669
807.661	9731
807.915	9969
808.17	10112
808.425	10254
808.679	10355
808.934	10558
809.188	10639
809.443	10708
809.697	10946
809.951	10987
810.206	10975
810.46	11196
810.714	11238
810.968	11407
811.223	11494
811.477	11578
811.731	11674
811.985	11686
812.239	11710
812.493	11837
812.747	11934
813	11933
813.254	12098
813.508	12065
813.762	12183
814.015	12164
814.269	12298
814.522	12399
814.776	12594
815.03	12735
815.283	12972
815.536	13151
815.79	13290
816.043	13491
816.296	13687
816.55	13856
816.803	14050
817.056	14358
817.309	14399
817.562	14552
817.815	14686
818.068	14831
818.321	14991
818.574	15137
818.827	15371
819.079	15557
819.332	15906
819.585	16117
819.838	16343
820.09	16368
820.343	16475
820.595	16474
820.848	16666
821.1	16701
821.353	16791
821.605	16726
821.857	16686
822.11	16554
822.362	16508
822.614	16492
822.866	16542
823.118	16547
823.37	16721
823.622	16791
823.874	16863
824.126	16886
824.378	16927
824.63	16997
824.882	17070
825.134	16912
825.385	16867
825.637	16846
825.888	16811
826.14	16809
826.392	16818
826.643	16628
826.895	16615
827.146	16556
827.397	16489
827.649	16561
827.9	16474
828.151	16569
828.402	16649
828.653	16667
828.905	16685
829.156	16710
829.407	16684
829.658	16809
829.909	16868
830.159	16932
830.41	16900
830.661	16677
830.912	16692
831.162	16593
831.413	16612
831.664	16684
831.914	16698
832.165	16581
832.415	16632
832.666	16567
832.916	16510
833.167	16624
833.417	16612
833.667	16509
833.917	16450
834.168	16602
834.418	16496
834.668	16475
834.918	16328
835.168	16235
835.418	16120
835.668	16110
835.918	16050
836.167	16103
836.417	16014
836.667	16086
836.917	15960
837.166	16111
837.416	16088
837.666	16192
837.915	15998
838.165	16039
838.414	15976
838.663	15921
838.913	16001
839.162	15940
839.411	16065
839.661	15930
839.91	15946
840.159	15978
840.408	15953
840.657	15983
840.906	16014
841.155	15970
841.404	15987
841.653	15985
841.902	16050
842.15	16051
842.399	16129
842.648	16029
842.897	16010
843.145	15888
843.394	15777
843.642	15764
843.891	15691
844.139	15666
844.388	15515
844.636	15485
844.884	15490
845.133	15379
845.381	15452
845.629	15525
845.877	15397
846.125	15469
846.373	15468
846.621	15458
846.869	15355
847.117	15225
847.365	15211
847.613	15055
847.861	15082
848.108	15133
848.356	15147
848.604	15030
848.851	15114
849.099	15091
849.346	15162
849.594	15246
849.841	15346
850.089	15316
850.336	15407
850.583	15574
850.831	15367
851.078	15378
851.325	15491
851.572	15572
851.819	15405
852.066	15001
852.313	14587
852.56	14491
852.807	14444
853.054	14425
853.301	14462
853.548	14502
853.794	14650
854.041	14642
854.288	14665
854.534	14862
854.781	14794
855.028	14717
855.274	14701
855.52	14683
855.767	14642
856.013	14786
856.26	14965
856.506	14605
856.752	14497
856.998	14595
857.244	14533
857.49	14663
857.736	14629
857.982	14648
858.228	14685
858.474	14537
858.72	14364
858.966	14289
859.212	14078
859.458	13980
859.703	13758
859.949	13717
860.195	13574
860.44	13619
860.686	13582
860.931	13602
861.177	13443
861.422	13346
861.667	13245
861.913	13244
862.158	13292
862.403	13318
862.648	13371
862.893	13416
863.138	13393
863.384	13257
863.629	13321
863.873	13332
864.118	13291
864.363	13183
864.608	13237
864.853	13251
865.098	13124
865.342	12985
865.587	12975
865.832	13079
866.076	13022
866.321	13005
866.565	12940
866.81	12859
867.054	12924
867.298	12832
867.543	12818
867.787	12760
868.031	12815
868.275	12812
868.519	12821
868.764	12836
869.008	12822
869.252	12870
869.496	12765
869.739	12779
869.983	12909
870.227	12886
870.471	12875
870.715	12984
870.958	12994
871.202	13080
871.446	13114
871.689	13040
871.933	12983
872.176	12985
872.42	12934
872.663	12924
872.906	13020
873.15	12907
873.393	12892
873.636	12956
873.879	12878
874.122	12700
874.366	12490
874.609	12450
874.852	12341
875.095	12178
875.337	12128
875.58	11975
875.823	11976
876.066	12021
876.309	12047
876.551	11938
876.794	11937
877.037	11924
877.279	11702
877.522	11743
877.764	11810
878.007	11676
878.249	11637
878.491	11561
878.734	11614
878.976	11591
879.218	11427
879.46	11567
879.702	11426
879.945	11357
880.187	11218
880.429	11114
880.671	11068
880.912	10969
881.154	11039
881.396	10968
881.638	11040
881.88	11025
882.121	10882
882.363	11027
882.605	11005
882.846	10989
883.088	11010
883.329	11019
883.571	11046
883.812	11380
884.053	11582
884.295	11981
884.536	12219
884.777	12072
885.018	12097
885.259	11945
885.5	11854
885.742	12099
885.982	11798
886.223	11638
886.464	11505
886.705	11316
886.946	11183
887.187	10853
887.428	10813
887.668	10501
887.909	10436
888.15	10230
888.39	10157
888.631	10144
888.871	10025
889.111	9915
889.352	9826
889.592	9721
889.833	9669
890.073	9599
890.313	9613
890.553	9441
890.793	9467
891.033	9431
891.273	9381
891.513	9288
891.753	9400
891.993	9327
892.233	9390
892.473	9445
892.713	9424
892.952	9346
893.192	9430
893.432	9456
893.671	9395
893.911	9358
894.15	9335
894.39	9220
894.629	9145
894.869	9178
895.108	9135
895.347	9044
895.587	9101
895.826	9027
896.065	9013
896.304	9042
896.543	9087
896.782	8916
897.021	8963
897.26	8958
897.499	9045
897.738	9022
897.977	8951
898.216	8920
898.454	8864
898.693	8733
898.932	8817
899.17	8708
899.409	8751
899.647	8695
899.886	8712
900.124	8758
900.363	8762
900.601	8826
900.839	8842
901.078	8955
901.316	9034
901.554	9108
901.792	9169
902.03	9207
902.268	9274
902.506	9308
902.744	9057
902.982	8983
903.22	8830
903.458	8653
903.695	8520
903.933	8381
904.171	8127
904.409	8028
904.646	7966
904.884	7794
905.121	7707
905.359	7603
905.596	7488
905.833	7485
906.071	7378
906.308	7427
906.545	7400
906.783	7230
907.02	7328
907.257	7253
907.494	7273
907.731	7283
907.968	7249
908.205	7194
908.442	7142
908.679	7119
908.915	7039
909.152	7039
909.389	6863
909.626	6883
909.862	6845
910.099	6789
910.335	6820
910.572	6712
910.808	6704
911.045	6674
911.281	6648
911.518	6694
911.754	6588
911.99	6605
912.226	6524
912.463	6457
912.699	6410
912.935	6431
913.171	6306
913.407	6272
913.643	6281
913.879	6206
914.114	6167
914.35	6103
914.586	6015
914.822	5944
915.057	6008
915.293	5885
915.529	5873
915.764	5925
916	5918
916.235	5891
916.471	5947
916.706	5815
916.941	5812
917.177	5793
917.412	5795
917.647	5824
917.882	5809
918.117	5825
918.352	5808
918.588	5820
918.823	5672
919.057	5631
919.292	5571
919.527	5647
919.762	5486
919.997	5496
920.232	5381
920.466	5508
920.701	5266
920.935	5339
921.17	5286
921.405	5245
921.639	5237
921.873	5258
922.108	5260
922.342	5220
922.576	5152
922.811	5173
923.045	5190
923.279	5181
923.513	5014
923.747	5112
923.981	5071
924.215	5029
924.449	4984
924.683	4913
924.917	4957
925.151	4905
925.385	4943
925.618	4934
925.852	4892
926.086	4800
926.319	4878
926.553	4850
926.786	4849
927.02	4841
927.253	4871
927.486	4866
927.72	4816
927.953	4832
928.186	4758
928.42	4805
928.653	4781
928.886	4659
929.119	4746
929.352	4681
929.585	4722
929.818	4619
930.051	4597
930.284	4604
930.516	4488
930.749	4474
930.982	4585
931.215	4496
931.447	4422
931.68	4442
931.912	4400
932.145	4386
932.377	4449
932.61	4610
932.842	4390
933.074	4428
933.307	4422
933.539	4528
933.771	4466
934.003	4384
934.236	4462
934.468	4485
934.7	4365
934.932	4389
935.164	4385
935.395	4348
935.627	4352
935.859	4380
936.091	4265
936.323	4350
936.554	4374
936.786	4312
937.017	4214
937.249	4311
937.481	4179
937.712	4290
937.943	4207
938.175	4208
938.406	4199
938.637	4254
938.869	4197
939.1	4223
939.331	4144
939.562	4200
939.793	4183
940.024	4143
940.255	4115
940.486	4105
940.717	4106
940.948	4054
941.179	4031
941.409	4039
941.64	4052
941.871	4103
942.102	4024
942.332	4034
942.563	4083
942.793	4064
943.024	3988
943.254	4027
943.484	4049
943.715	4056
943.945	4033
944.175	3966
944.405	3955
944.636	3977
944.866	4009
945.096	4000
945.326	3920
945.556	3964
945.786	3983
946.016	3938
946.245	3835
946.475	3841
946.705	3815
946.935	3845
947.164	3859
947.394	3759
947.624	3813
947.853	3818
948.083	3768
948.312	3751
948.542	3707
948.771	3681
949	3681
949.23	3680
949.459	3655
949.688	3708
949.917	3657
950.146	3681
950.375	3714
950.604	3624
950.833	3702
951.062	3695
951.291	3629
951.52	3647
951.749	3588
951.978	3573
952.206	3563
952.435	3624
952.664	3583
952.892	3584
953.121	3589
953.349	3566
953.578	3580
953.806	3530
954.035	3464
954.263	3506
954.491	3424
954.719	3485
954.948	3437
955.176	3456
955.404	3339
955.632	3390
955.86	3388
956.088	3364
956.316	3383
956.544	3389
956.772	3324
956.999	3298
957.227	3370
957.455	3260
957.683	3306
957.91	3227
958.138	3221
958.365	3216
958.593	3187
958.82	3157
959.048	3251
959.275	3213
959.502	3154
959.73	3180
959.957	3167
960.184	3238
960.411	3131
960.638	3168
960.865	3161
961.092	3172
961.319	3041
961.546	3147
961.773	3157
962	3133
962.227	3170
962.454	3094
962.68	3091
962.907	3107
963.134	3013
963.36	3054
963.587	3034
963.813	2970
964.04	3046
964.266	2966
964.493	3056
964.719	2981
964.945	2985
965.171	2889
965.398	2944
965.624	2935
965.85	2864
966.076	2855
966.302	2904
966.528	2833
966.754	2907
966.98	2854
967.206	2874
967.431	2792
967.657	2878
967.883	2842
968.109	2835
968.334	2783
968.56	2751
968.785	2791
969.011	2736
969.236	2822
969.462	2740
969.687	2752
969.912	2768
970.138	2808
970.363	2722
970.588	2746
970.813	2707
971.038	2663
971.263	2739
971.488	2709
971.713	2726
971.938	2737
972.163	2626
972.388	2629
972.613	2642
972.838	2629
973.062	2563
973.287	2612
973.512	2503
973.736	2602
973.961	2554
974.185	2542
974.41	2548
974.634	2435
974.858	2491
975.083	2508
975.307	2518
975.531	2430
975.755	2402
975.98	2432
976.204	2352
976.428	2363
976.652	2361
976.876	2315
977.1	2377
977.324	2325
977.547	2360
977.771	2363
977.995	2323
978.219	2283
978.442	2384
978.666	2331
978.89	2332
979.113	2291
979.337	2298
979.56	2281
979.783	2368
980.007	2271
980.23	2287
980.453	2220
980.677	2284
980.9	2249
981.123	2141
981.346	2247
981.569	2231
981.792	2253
982.015	2192
982.238	2166
982.461	2202
982.684	2137
982.907	2143
983.129	2126
983.352	2169
983.575	2160
983.797	2141
984.02	2086
984.242	2078
984.465	2141
984.687	2110
984.91	2118
985.132	2069
985.354	2113
985.577	2084
985.799	2050
986.021	1971
986.243	1988
986.465	2039
986.687	2062
986.909	2086
987.131	2055
987.353	2006
987.575	2013
987.797	1982
988.019	1937
988.241	2020
988.462	1975
988.684	2006
988.906	2031
989.127	2050
989.349	1915
989.57	1994
989.792	1998
990.013	1989
990.234	2015
990.456	2028
990.677	2022
990.898	1930
991.119	1941
991.341	1990
991.562	1907
991.783	1960
992.004	1852
992.225	1832
992.446	1920
992.667	1815
992.887	1901
993.108	1787
993.329	1938
993.55	1868
993.77	1807
993.991	1796
994.212	1821
994.432	1816
994.653	1834
994.873	1846
995.093	1690
995.314	1773
995.534	1841
995.754	1823
995.975	1860
996.195	1758
996.415	1799
996.635	1793
996.855	1824
997.075	1777
997.295	1745
997.515	1782
997.735	1810
997.955	1783
998.174	1776
998.394	1731
998.614	1779
998.834	1744
999.053	1799
999.273	1782
999.492	1809
999.712	1771
999.931	1709
1000.151	1733
1000.37	1746
1000.589	1764
1000.809	1693
1001.028	1793
1001.247	1733
1001.466	1652
1001.685	1764
1001.904	1696
1002.123	1693
1002.342	1681
1002.561	1642
1002.78	1669
1002.999	1728
1003.218	1658
1003.436	1649
1003.655	1702
1003.874	1645
1004.092	1653
1004.311	1699
1004.53	1650
1004.748	1684
1004.966	1627
1005.185	1676
1005.403	1700
1005.622	1617
1005.84	1724
1006.058	1619
1006.276	1657
1006.494	2152
1006.712	1644
1006.931	1724
1007.149	1632
1007.367	1620
1007.584	1677
1007.802	1732
1008.02	1680
1008.238	1768
1008.456	1775
1008.673	1654
1008.891	1811
1009.109	1762
1009.326	1826
1009.544	1932
1009.761	1852
1009.979	1978
1010.196	2008
1010.413	2137
1010.631	2240
1010.848	2295
1011.065	2336
1011.282	2295
1011.5	2216
1011.717	2328
1011.934	2247
1012.151	2295
1012.368	2257
1012.585	2210
1012.801	2267
1013.018	2256
1013.235	2248
1013.452	2277
1013.669	2264
1013.885	2254
1014.102	2350
1014.318	2279
1014.535	2249
1014.751	2264
1014.968	2257
1015.184	2270
1015.401	2220
1015.617	2222
1015.833	2153
1016.049	2186
1016.266	2134
1016.482	2110
1016.698	2085
1016.914	2094
1017.13	2059
1017.346	2038
1017.562	2115
1017.778	2048
1017.993	2022
1018.209	2067
1018.425	2043
1018.641	1999
1018.856	1995
1019.072	2006
1019.288	2078
1019.503	2019
1019.719	1939
1019.934	1950
1020.149	2044
1020.365	1956
1020.58	1881
1020.795	1874
1021.011	1819
1021.226	1781
1021.441	1783
1021.656	1653
1021.871	1589
1022.086	1620
1022.301	1592
1022.516	1554
1022.731	1619
1022.946	1518
1023.16	1468
1023.375	1427
1023.59	1421
1023.804	1366
1024.019	1440
1024.234	1332
1024.448	1335
1024.663	1246
1024.877	1264
1025.092	1279
1025.306	1237
1025.52	1135
1025.734	1220
1025.949	1135
1026.163	1113
1026.377	1023
1026.591	1108
1026.805	1004
1027.019	976
1027.233	939
1027.447	915
1027.661	1017
1027.875	940
1028.088	943
1028.302	877
1028.516	834
1028.73	814
1028.943	823
1029.157	753
1029.37	724
1029.584	-4
1029.797	0
1030.011	-3
1030.224	-2
