Data from QEP037381__124__15-07-56-081.txt Node

Date: Wed Dec 21 15:07:56 EST 2022
User: dcclab
Spectrometer: QEP03738
Trigger mode: 4
Integration Time (sec): 1.000000E1
Scans to average: 1
Electric dark correction enabled: true
Nonlinearity correction enabled: false
Boxcar width: 0
XAxis mode: Wavelengths
Number of Pixels in Spectrum: 1044
>>>>>Begin Spectral Data<<<<<
784.041	12.88
784.3	0.88
784.558	-1.12
784.817	-3.12
785.075	83112.88
785.334	14574.88
785.592	6899.88
785.851	4823.88
786.109	3690.88
786.368	2872.88
786.626	2311.88
786.884	1951.88
787.143	1662.88
787.401	1355.88
787.659	1225.88
787.917	1068.88
788.175	969.88
788.433	854.88
788.691	772.88
788.949	730.88
789.207	691.88
789.465	607.88
789.723	587.88
789.98	546.88
790.238	572.88
790.496	537.88
790.753	514.88
791.011	579.88
791.268	511.88
791.526	491.88
791.783	496.88
792.041	490.88
792.298	407.88
792.556	473.88
792.813	450.88
793.07	439.88
793.327	430.88
793.584	493.88
793.841	431.88
794.099	448.88
794.356	513.88
794.613	406.88
794.869	447.88
795.126	420.88
795.383	393.88
795.64	401.88
795.897	367.88
796.153	422.88
796.41	409.88
796.667	390.88
796.923	388.88
797.18	398.88
797.436	426.88
797.693	385.88
797.949	442.88
798.206	461.88
798.462	382.88
798.718	449.88
798.974	421.88
799.231	439.88
799.487	436.88
799.743	447.88
799.999	477.88
800.255	463.88
800.511	453.88
800.767	493.88
801.023	461.88
801.279	489.88
801.534	521.88
801.79	532.88
802.046	549.88
802.302	652.88
802.557	718.88
802.813	862.88
803.068	995.88
803.324	1353.88
803.579	1736.88
803.835	2390.88
804.09	3251.88
804.345	4189.88
804.601	5328.88
804.856	6474.88
805.111	7455.88
805.366	8283.88
805.621	8796.88
805.876	9144.88
806.131	9459.88
806.386	9537.88
806.641	9736.88
806.896	9994.88
807.151	10181.88
807.406	10302.88
807.661	10534.88
807.915	10658.88
808.17	10880.88
808.425	11074.88
808.679	11055.88
808.934	11281.88
809.188	11408.88
809.443	11561.88
809.697	11710.88
809.951	11823.88
810.206	11974.88
810.46	12040.88
810.714	12145.88
810.968	12301.88
811.223	12347.88
811.477	12581.88
811.731	12639.88
811.985	12607.88
812.239	12727.88
812.493	12761.88
812.747	12864.88
813	12906.88
813.254	13036.88
813.508	13086.88
813.762	13121.88
814.015	13298.88
814.269	13328.88
814.522	13517.88
814.776	13668.88
815.03	13823.88
815.283	14060.88
815.536	14248.88
815.79	14530.88
816.043	14806.88
816.296	14996.88
816.55	15130.88
816.803	15348.88
817.056	15633.88
817.309	15828.88
817.562	15927.88
817.815	16147.88
818.068	16292.88
818.321	16409.88
818.574	16668.88
818.827	16892.88
819.079	17127.88
819.332	17511.88
819.585	17657.88
819.838	17929.88
820.09	17994.88
820.343	18227.88
820.595	18200.88
820.848	18337.88
821.1	18398.88
821.353	18516.88
821.605	18422.88
821.857	18611.88
822.11	18464.88
822.362	18250.88
822.614	18332.88
822.866	18425.88
823.118	18363.88
823.37	18460.88
823.622	18547.88
823.874	18696.88
824.126	18748.88
824.378	18788.88
824.63	18818.88
824.882	18901.88
825.134	18816.88
825.385	18829.88
825.637	18928.88
825.888	18779.88
826.14	18806.88
826.392	18666.88
826.643	18631.88
826.895	18629.88
827.146	18468.88
827.397	18450.88
827.649	18473.88
827.9	18444.88
828.151	18528.88
828.402	18627.88
828.653	18584.88
828.905	18675.88
829.156	18786.88
829.407	18710.88
829.658	18729.88
829.909	18968.88
830.159	18824.88
830.41	18807.88
830.661	18695.88
830.912	18664.88
831.162	18613.88
831.413	18571.88
831.664	18588.88
831.914	18547.88
832.165	18506.88
832.415	18450.88
832.666	18530.88
832.916	18603.88
833.167	18634.88
833.417	18660.88
833.667	18473.88
833.917	18433.88
834.168	18412.88
834.418	18477.88
834.668	18353.88
834.918	18266.88
835.168	18361.88
835.418	18146.88
835.668	18159.88
835.918	18139.88
836.167	18072.88
836.417	18071.88
836.667	18149.88
836.917	18130.88
837.166	18058.88
837.416	18127.88
837.666	18120.88
837.915	18005.88
838.165	18159.88
838.414	17995.88
838.663	17998.88
838.913	17976.88
839.162	18047.88
839.411	18046.88
839.661	17854.88
839.91	17901.88
840.159	17920.88
840.408	17910.88
840.657	17975.88
840.906	18071.88
841.155	18031.88
841.404	17988.88
841.653	17981.88
841.902	18151.88
842.15	18141.88
842.399	18250.88
842.648	18139.88
842.897	18031.88
843.145	17856.88
843.394	17821.88
843.642	17794.88
843.891	17688.88
844.139	17646.88
844.388	17453.88
844.636	17391.88
844.884	17410.88
845.133	17423.88
845.381	17449.88
845.629	17440.88
845.877	17322.88
846.125	17400.88
846.373	17475.88
846.621	17397.88
846.869	17429.88
847.117	17296.88
847.365	17167.88
847.613	17177.88
847.861	17141.88
848.108	17115.88
848.356	16997.88
848.604	17039.88
848.851	17101.88
849.099	17064.88
849.346	17179.88
849.594	17346.88
849.841	17378.88
850.089	17439.88
850.336	17541.88
850.583	17480.88
850.831	17511.88
851.078	17545.88
851.325	17573.88
851.572	17758.88
851.819	17483.88
852.066	16926.88
852.313	16610.88
852.56	16442.88
852.807	16416.88
853.054	16421.88
853.301	16430.88
853.548	16493.88
853.794	16696.88
854.041	16688.88
854.288	16768.88
854.534	16981.88
854.781	16926.88
855.028	16866.88
855.274	16841.88
855.52	16829.88
855.767	16702.88
856.013	16749.88
856.26	17071.88
856.506	16516.88
856.752	16605.88
856.998	16586.88
857.244	16683.88
857.49	16699.88
857.736	16789.88
857.982	16761.88
858.228	16684.88
858.474	16543.88
858.72	16498.88
858.966	16251.88
859.212	16175.88
859.458	15870.88
859.703	15861.88
859.949	15719.88
860.195	15652.88
860.44	15564.88
860.686	15562.88
860.931	15476.88
861.177	15444.88
861.422	15318.88
861.667	15250.88
861.913	15169.88
862.158	15300.88
862.403	15340.88
862.648	15422.88
862.893	15378.88
863.138	15417.88
863.384	15394.88
863.629	15319.88
863.873	15408.88
864.118	15291.88
864.363	15272.88
864.608	15279.88
864.853	15263.88
865.098	15159.88
865.342	15032.88
865.587	14984.88
865.832	15045.88
866.076	15030.88
866.321	14881.88
866.565	14932.88
866.81	14911.88
867.054	14830.88
867.298	14886.88
867.543	14791.88
867.787	14812.88
868.031	14765.88
868.275	14762.88
868.519	14711.88
868.764	14805.88
869.008	14749.88
869.252	14768.88
869.496	14745.88
869.739	14779.88
869.983	14761.88
870.227	14835.88
870.471	14847.88
870.715	14991.88
870.958	14903.88
871.202	15033.88
871.446	15042.88
871.689	15042.88
871.933	14973.88
872.176	14970.88
872.42	14937.88
872.663	14844.88
872.906	14946.88
873.15	14943.88
873.393	14737.88
873.636	14932.88
873.879	14790.88
874.122	14595.88
874.366	14363.88
874.609	14255.88
874.852	14134.88
875.095	14086.88
875.337	14011.88
875.58	13864.88
875.823	13933.88
876.066	13918.88
876.309	13863.88
876.551	13678.88
876.794	13760.88
877.037	13712.88
877.279	13669.88
877.522	13648.88
877.764	13714.88
878.007	13589.88
878.249	13561.88
878.491	13479.88
878.734	13500.88
878.976	13455.88
879.218	13380.88
879.46	13401.88
879.702	13231.88
879.945	13169.88
880.187	13011.88
880.429	12906.88
880.671	12846.88
880.912	12939.88
881.154	12822.88
881.396	12859.88
881.638	12868.88
881.88	12912.88
882.121	12799.88
882.363	12778.88
882.605	12839.88
882.846	12807.88
883.088	12774.88
883.329	12803.88
883.571	12908.88
883.812	13064.88
884.053	13404.88
884.295	13774.88
884.536	13921.88
884.777	13949.88
885.018	13787.88
885.259	13737.88
885.5	13553.88
885.742	13832.88
885.982	13504.88
886.223	13368.88
886.464	13289.88
886.705	13071.88
886.946	12969.88
887.187	12724.88
887.428	12602.88
887.668	12454.88
887.909	12114.88
888.15	12031.88
888.39	11935.88
888.631	11846.88
888.871	11746.88
889.111	11742.88
889.352	11691.88
889.592	11564.88
889.833	11364.88
890.073	11374.88
890.313	11351.88
890.553	11113.88
890.793	11223.88
891.033	11129.88
891.273	11073.88
891.513	11102.88
891.753	11135.88
891.993	10980.88
892.233	11043.88
892.473	11154.88
892.713	11126.88
892.952	11050.88
893.192	11157.88
893.432	11132.88
893.671	11177.88
893.911	11038.88
894.15	11006.88
894.39	10918.88
894.629	10870.88
894.869	10891.88
895.108	10803.88
895.347	10740.88
895.587	10785.88
895.826	10746.88
896.065	10712.88
896.304	10739.88
896.543	10708.88
896.782	10563.88
897.021	10705.88
897.26	10739.88
897.499	10718.88
897.738	10753.88
897.977	10616.88
898.216	10507.88
898.454	10464.88
898.693	10409.88
898.932	10433.88
899.17	10311.88
899.409	10256.88
899.647	10317.88
899.886	10267.88
900.124	10346.88
900.363	10353.88
900.601	10381.88
900.839	10389.88
901.078	10487.88
901.316	10560.88
901.554	10661.88
901.792	10832.88
902.03	10834.88
902.268	10704.88
902.506	10756.88
902.744	10611.88
902.982	10572.88
903.22	10346.88
903.458	10177.88
903.695	10087.88
903.933	9818.88
904.171	9626.88
904.409	9544.88
904.646	9461.88
904.884	9255.88
905.121	9185.88
905.359	9115.88
905.596	9039.88
905.833	8878.88
906.071	8886.88
906.308	8827.88
906.545	8844.88
906.783	8682.88
907.02	8699.88
907.257	8674.88
907.494	8688.88
907.731	8676.88
907.968	8653.88
908.205	8571.88
908.442	8497.88
908.679	8575.88
908.915	8454.88
909.152	8309.88
909.389	8226.88
909.626	8216.88
909.862	8162.88
910.099	8160.88
910.335	8144.88
910.572	8089.88
910.808	8091.88
911.045	8047.88
911.281	8024.88
911.518	8049.88
911.754	7941.88
911.99	7914.88
912.226	7843.88
912.463	7792.88
912.699	7760.88
912.935	7678.88
913.171	7620.88
913.407	7553.88
913.643	7605.88
913.879	7433.88
914.114	7458.88
914.35	7313.88
914.586	7270.88
914.822	7247.88
915.057	7290.88
915.293	7074.88
915.529	7051.88
915.764	7131.88
916	7137.88
916.235	7067.88
916.471	7124.88
916.706	7035.88
916.941	7084.88
917.177	7009.88
917.412	7030.88
917.647	7040.88
917.882	6963.88
918.117	7034.88
918.352	6972.88
918.588	6975.88
918.823	6893.88
919.057	6862.88
919.292	6691.88
919.527	6744.88
919.762	6618.88
919.997	6604.88
920.232	6610.88
920.466	6545.88
920.701	6403.88
920.935	6421.88
921.17	6370.88
921.405	6342.88
921.639	6346.88
921.873	6289.88
922.108	6324.88
922.342	6301.88
922.576	6221.88
922.811	6240.88
923.045	6212.88
923.279	6203.88
923.513	6082.88
923.747	6136.88
923.981	6063.88
924.215	6040.88
924.449	5996.88
924.683	5959.88
924.917	5940.88
925.151	5911.88
925.385	5948.88
925.618	5926.88
925.852	5906.88
926.086	5842.88
926.319	5861.88
926.553	5866.88
926.786	5858.88
927.02	5842.88
927.253	5913.88
927.486	5816.88
927.72	5831.88
927.953	5818.88
928.186	5815.88
928.42	5831.88
928.653	5742.88
928.886	5709.88
929.119	5721.88
929.352	5683.88
929.585	5696.88
929.818	5587.88
930.051	5628.88
930.284	5557.88
930.516	5486.88
930.749	5458.88
930.982	5482.88
931.215	5467.88
931.447	5400.88
931.68	5342.88
931.912	5348.88
932.145	5351.88
932.377	5346.88
932.61	5495.88
932.842	5310.88
933.074	5429.88
933.307	5320.88
933.539	5412.88
933.771	5440.88
934.003	5338.88
934.236	5402.88
934.468	5429.88
934.7	5328.88
934.932	5346.88
935.164	5292.88
935.395	5308.88
935.627	5291.88
935.859	5303.88
936.091	5225.88
936.323	5284.88
936.554	5290.88
936.786	5227.88
937.017	5174.88
937.249	5201.88
937.481	5117.88
937.712	5173.88
937.943	5137.88
938.175	5136.88
938.406	5117.88
938.637	5175.88
938.869	4983.88
939.1	5075.88
939.331	5117.88
939.562	5088.88
939.793	5068.88
940.024	5081.88
940.255	5048.88
940.486	4996.88
940.717	5005.88
940.948	4942.88
941.179	4953.88
941.409	4975.88
941.64	4958.88
941.871	4952.88
942.102	4913.88
942.332	4966.88
942.563	4961.88
942.793	4971.88
943.024	4899.88
943.254	4941.88
943.484	4949.88
943.715	4956.88
943.945	4930.88
944.175	4845.88
944.405	4826.88
944.636	4868.88
944.866	4879.88
945.096	4909.88
945.326	4790.88
945.556	4840.88
945.786	4874.88
946.016	4834.88
946.245	4743.88
946.475	4785.88
946.705	4714.88
946.935	4736.88
947.164	4699.88
947.394	4634.88
947.624	4589.88
947.853	4655.88
948.083	4666.88
948.312	4568.88
948.542	4547.88
948.771	4509.88
949	4499.88
949.23	4504.88
949.459	4504.88
949.688	4542.88
949.917	4541.88
950.146	4507.88
950.375	4577.88
950.604	4456.88
950.833	4538.88
951.062	4562.88
951.291	4530.88
951.52	4416.88
951.749	4466.88
951.978	4407.88
952.206	4404.88
952.435	4410.88
952.664	4401.88
952.892	4433.88
953.121	4427.88
953.349	4393.88
953.578	4367.88
953.806	4335.88
954.035	4270.88
954.263	4344.88
954.491	4239.88
954.719	4271.88
954.948	4227.88
955.176	4214.88
955.404	4165.88
955.632	4212.88
955.86	4219.88
956.088	4174.88
956.316	4184.88
956.544	4179.88
956.772	4114.88
956.999	4114.88
957.227	4159.88
957.455	4028.88
957.683	4011.88
957.91	4001.88
958.138	3976.88
958.365	3981.88
958.593	3994.88
958.82	3957.88
959.048	4006.88
959.275	3906.88
959.502	3892.88
959.73	3859.88
959.957	3952.88
960.184	3921.88
960.411	3879.88
960.638	3945.88
960.865	3892.88
961.092	3874.88
961.319	3824.88
961.546	3939.88
961.773	3911.88
962	3838.88
962.227	3911.88
962.454	3836.88
962.68	3831.88
962.907	3820.88
963.134	3796.88
963.36	3749.88
963.587	3763.88
963.813	3746.88
964.04	3765.88
964.266	3641.88
964.493	3742.88
964.719	3729.88
964.945	3697.88
965.171	3582.88
965.398	3624.88
965.624	3631.88
965.85	3523.88
966.076	3560.88
966.302	3563.88
966.528	3543.88
966.754	3574.88
966.98	3507.88
967.206	3519.88
967.431	3425.88
967.657	3595.88
967.883	3533.88
968.109	3518.88
968.334	3417.88
968.56	3421.88
968.785	3436.88
969.011	3401.88
969.236	3426.88
969.462	3365.88
969.687	3389.88
969.912	3399.88
970.138	3424.88
970.363	3322.88
970.588	3385.88
970.813	3335.88
971.038	3305.88
971.263	3373.88
971.488	3355.88
971.713	3330.88
971.938	3351.88
972.163	3252.88
972.388	3274.88
972.613	3235.88
972.838	3189.88
973.062	3216.88
973.287	3212.88
973.512	3174.88
973.736	3166.88
973.961	3193.88
974.185	3166.88
974.41	3163.88
974.634	3043.88
974.858	3070.88
975.083	3082.88
975.307	3143.88
975.531	3073.88
975.755	3001.88
975.98	3017.88
976.204	2914.88
976.428	2883.88
976.652	2934.88
976.876	2858.88
977.1	2949.88
977.324	2891.88
977.547	2915.88
977.771	2926.88
977.995	2891.88
978.219	2839.88
978.442	2924.88
978.666	2844.88
978.89	2865.88
979.113	2873.88
979.337	2867.88
979.56	2798.88
979.783	2892.88
980.007	2836.88
980.23	2809.88
980.453	2750.88
980.677	2795.88
980.9	2806.88
981.123	2723.88
981.346	2762.88
981.569	2720.88
981.792	2772.88
982.015	2743.88
982.238	2674.88
982.461	2731.88
982.684	2671.88
982.907	2634.88
983.129	2616.88
983.352	2656.88
983.575	2626.88
983.797	2651.88
984.02	2579.88
984.242	2554.88
984.465	2547.88
984.687	2587.88
984.91	2583.88
985.132	2582.88
985.354	2635.88
985.577	2534.88
985.799	2542.88
986.021	2461.88
986.243	2475.88
986.465	2488.88
986.687	2533.88
986.909	2608.88
987.131	2507.88
987.353	2458.88
987.575	2505.88
987.797	2468.88
988.019	2382.88
988.241	2477.88
988.462	2439.88
988.684	2444.88
988.906	2487.88
989.127	2510.88
989.349	2388.88
989.57	2413.88
989.792	2476.88
990.013	2454.88
990.234	2457.88
990.456	2442.88
990.677	2463.88
990.898	2395.88
991.119	2408.88
991.341	2415.88
991.562	2335.88
991.783	2363.88
992.004	2291.88
992.225	2266.88
992.446	2333.88
992.667	2233.88
992.887	2315.88
993.108	2226.88
993.329	2316.88
993.55	2293.88
993.77	2215.88
993.991	2206.88
994.212	2262.88
994.432	2207.88
994.653	2217.88
994.873	2220.88
995.093	2117.88
995.314	2170.88
995.534	2230.88
995.754	2195.88
995.975	2225.88
996.195	2152.88
996.415	2193.88
996.635	2134.88
996.855	2164.88
997.075	2153.88
997.295	2133.88
997.515	2111.88
997.735	2198.88
997.955	2158.88
998.174	2134.88
998.394	2130.88
998.614	2160.88
998.834	2112.88
999.053	2194.88
999.273	2076.88
999.492	2179.88
999.712	2148.88
999.931	2072.88
1000.151	2100.88
1000.37	2058.88
1000.589	2128.88
1000.809	2021.88
1001.028	2117.88
1001.247	2048.88
1001.466	1970.88
1001.685	2096.88
1001.904	2027.88
1002.123	2018.88
1002.342	2015.88
1002.561	1969.88
1002.78	1991.88
1002.999	2041.88
1003.218	1996.88
1003.436	1930.88
1003.655	1987.88
1003.874	1943.88
1004.092	1969.88
1004.311	1994.88
1004.53	1962.88
1004.748	2020.88
1004.966	1930.88
1005.185	1984.88
1005.403	1983.88
1005.622	1937.88
1005.84	2032.88
1006.058	1945.88
1006.276	1971.88
1006.494	2469.88
1006.712	1935.88
1006.931	2022.88
1007.149	1947.88
1007.367	1986.88
1007.584	1997.88
1007.802	2035.88
1008.02	1974.88
1008.238	2099.88
1008.456	2102.88
1008.673	1989.88
1008.891	2082.88
1009.109	2107.88
1009.326	2112.88
1009.544	2265.88
1009.761	2210.88
1009.979	2310.88
1010.196	2402.88
1010.413	2531.88
1010.631	2626.88
1010.848	2720.88
1011.065	2759.88
1011.282	2732.88
1011.5	2652.88
1011.717	2733.88
1011.934	2733.88
1012.151	2713.88
1012.368	2676.88
1012.585	2630.88
1012.801	2680.88
1013.018	2649.88
1013.235	2643.88
1013.452	2699.88
1013.669	2710.88
1013.885	2725.88
1014.102	2740.88
1014.318	2718.88
1014.535	2717.88
1014.751	2704.88
1014.968	2676.88
1015.184	2689.88
1015.401	2623.88
1015.617	2632.88
1015.833	2589.88
1016.049	2555.88
1016.266	2543.88
1016.482	2538.88
1016.698	2457.88
1016.914	2494.88
1017.13	2439.88
1017.346	2453.88
1017.562	2503.88
1017.778	2433.88
1017.993	2413.88
1018.209	2468.88
1018.425	2432.88
1018.641	2402.88
1018.856	2400.88
1019.072	2414.88
1019.288	2464.88
1019.503	2382.88
1019.719	2325.88
1019.934	2336.88
1020.149	2375.88
1020.365	2288.88
1020.58	2216.88
1020.795	2288.88
1021.011	2159.88
1021.226	2091.88
1021.441	2106.88
1021.656	1988.88
1021.871	1903.88
1022.086	1896.88
1022.301	1882.88
1022.516	1855.88
1022.731	1877.88
1022.946	1807.88
1023.16	1763.88
1023.375	1701.88
1023.59	1689.88
1023.804	1654.88
1024.019	1704.88
1024.234	1565.88
1024.448	1571.88
1024.663	1485.88
1024.877	1489.88
1025.092	1471.88
1025.306	1463.88
1025.52	1361.88
1025.734	1450.88
1025.949	1343.88
1026.163	1296.88
1026.377	1232.88
1026.591	1249.88
1026.805	1201.88
1027.019	1157.88
1027.233	1130.88
1027.447	1071.88
1027.661	1165.88
1027.875	1105.88
1028.088	1123.88
1028.302	1006.88
1028.516	992.88
1028.73	996.88
1028.943	979.88
1029.157	895.88
1029.37	842.88
1029.584	-0.12
1029.797	-3.12
1030.011	-3.12
1030.224	-3.12
