Data from QEP037381__113__15-06-06-078.txt Node

Date: Wed Dec 21 15:06:06 EST 2022
User: dcclab
Spectrometer: QEP03738
Trigger mode: 4
Integration Time (sec): 1.000000E1
Scans to average: 1
Electric dark correction enabled: true
Nonlinearity correction enabled: false
Boxcar width: 0
XAxis mode: Wavelengths
Number of Pixels in Spectrum: 1044
>>>>>Begin Spectral Data<<<<<
784.041	9.88
784.3	0.88
784.558	-1.12
784.817	-6.12
785.075	91903.88
785.334	15559.88
785.592	7147.88
785.851	4889.88
786.109	3750.88
786.368	2920.88
786.626	2361.88
786.884	1977.88
787.143	1647.88
787.401	1357.88
787.659	1213.88
787.917	1071.88
788.175	980.88
788.433	875.88
788.691	776.88
788.949	738.88
789.207	699.88
789.465	626.88
789.723	598.88
789.98	566.88
790.238	584.88
790.496	560.88
790.753	530.88
791.011	587.88
791.268	520.88
791.526	511.88
791.783	515.88
792.041	493.88
792.298	408.88
792.556	490.88
792.813	457.88
793.07	449.88
793.327	432.88
793.584	504.88
793.841	442.88
794.099	460.88
794.356	524.88
794.613	422.88
794.869	461.88
795.126	408.88
795.383	400.88
795.64	440.88
795.897	382.88
796.153	438.88
796.41	422.88
796.667	401.88
796.923	407.88
797.18	420.88
797.436	446.88
797.693	395.88
797.949	454.88
798.206	479.88
798.462	392.88
798.718	465.88
798.974	437.88
799.231	477.88
799.487	461.88
799.743	470.88
799.999	500.88
800.255	494.88
800.511	482.88
800.767	531.88
801.023	500.88
801.279	538.88
801.534	558.88
801.79	602.88
802.046	625.88
802.302	734.88
802.557	842.88
802.813	1028.88
803.068	1222.88
803.324	1699.88
803.579	2256.88
803.835	3078.88
804.09	4235.88
804.345	5486.88
804.601	6971.88
804.856	8468.88
805.111	9796.88
805.366	10895.88
805.621	11679.88
805.876	12257.88
806.131	12608.88
806.386	12849.88
806.641	13109.88
806.896	13427.88
807.151	13632.88
807.406	13877.88
807.661	14176.88
807.915	14451.88
808.17	14585.88
808.425	14812.88
808.679	14950.88
808.934	15261.88
809.188	15239.88
809.443	15523.88
809.697	15723.88
809.951	15802.88
810.206	15903.88
810.46	16104.88
810.714	16273.88
810.968	16573.88
811.223	16610.88
811.477	16763.88
811.731	16888.88
811.985	16950.88
812.239	17092.88
812.493	17224.88
812.747	17220.88
813	17222.88
813.254	17368.88
813.508	17601.88
813.762	17633.88
814.015	17572.88
814.269	17832.88
814.522	18079.88
814.776	18283.88
815.03	18585.88
815.283	18823.88
815.536	19086.88
815.79	19400.88
816.043	19719.88
816.296	20005.88
816.55	20448.88
816.803	20490.88
817.056	20868.88
817.309	21015.88
817.562	21291.88
817.815	21500.88
818.068	21632.88
818.321	21968.88
818.574	22146.88
818.827	22478.88
819.079	22778.88
819.332	23406.88
819.585	23527.88
819.838	23872.88
820.09	24075.88
820.343	24239.88
820.595	24280.88
820.848	24436.88
821.1	24625.88
821.353	24687.88
821.605	24545.88
821.857	24696.88
822.11	24493.88
822.362	24478.88
822.614	24400.88
822.866	24548.88
823.118	24335.88
823.37	24575.88
823.622	24626.88
823.874	24692.88
824.126	24857.88
824.378	24851.88
824.63	25029.88
824.882	25103.88
825.134	25015.88
825.385	25151.88
825.637	25038.88
825.888	24897.88
826.14	24924.88
826.392	24722.88
826.643	24576.88
826.895	24715.88
827.146	24580.88
827.397	24565.88
827.649	24651.88
827.9	24603.88
828.151	24640.88
828.402	24707.88
828.653	24884.88
828.905	24800.88
829.156	25046.88
829.407	25007.88
829.658	24915.88
829.909	25066.88
830.159	25121.88
830.41	25074.88
830.661	24782.88
830.912	24813.88
831.162	24787.88
831.413	24689.88
831.664	24669.88
831.914	24598.88
832.165	24660.88
832.415	24602.88
832.666	24629.88
832.916	24800.88
833.167	24653.88
833.417	24763.88
833.667	24610.88
833.917	24478.88
834.168	24583.88
834.418	24432.88
834.668	24502.88
834.918	24265.88
835.168	24228.88
835.418	24095.88
835.668	24056.88
835.918	24092.88
836.167	23986.88
836.417	23994.88
836.667	23849.88
836.917	24009.88
837.166	24073.88
837.416	24018.88
837.666	24014.88
837.915	24033.88
838.165	23799.88
838.414	23796.88
838.663	23850.88
838.913	23824.88
839.162	23815.88
839.411	23881.88
839.661	23694.88
839.91	23661.88
840.159	23602.88
840.408	23681.88
840.657	23723.88
840.906	23788.88
841.155	23826.88
841.404	23745.88
841.653	23770.88
841.902	23801.88
842.15	23878.88
842.399	24007.88
842.648	23934.88
842.897	23845.88
843.145	23768.88
843.394	23617.88
843.642	23424.88
843.891	23348.88
844.139	23159.88
844.388	23169.88
844.636	22968.88
844.884	23039.88
845.133	23036.88
845.381	22902.88
845.629	23012.88
845.877	23074.88
846.125	23004.88
846.373	22995.88
846.621	22935.88
846.869	22880.88
847.117	22719.88
847.365	22678.88
847.613	22514.88
847.861	22536.88
848.108	22606.88
848.356	22397.88
848.604	22503.88
848.851	22502.88
849.099	22496.88
849.346	22560.88
849.594	22680.88
849.841	22843.88
850.089	22834.88
850.336	23030.88
850.583	23060.88
850.831	23009.88
851.078	22923.88
851.325	22860.88
851.572	22909.88
851.819	22695.88
852.066	22255.88
852.313	21817.88
852.56	21696.88
852.807	21709.88
853.054	21644.88
853.301	21629.88
853.548	21669.88
853.794	21824.88
854.041	21864.88
854.288	22000.88
854.534	22230.88
854.781	22051.88
855.028	22023.88
855.274	22058.88
855.52	21858.88
855.767	21789.88
856.013	21900.88
856.26	22207.88
856.506	21762.88
856.752	21612.88
856.998	21642.88
857.244	21783.88
857.49	21938.88
857.736	21876.88
857.982	21896.88
858.228	21872.88
858.474	21682.88
858.72	21518.88
858.966	21293.88
859.212	21091.88
859.458	20965.88
859.703	20692.88
859.949	20586.88
860.195	20340.88
860.44	20293.88
860.686	20269.88
860.931	20306.88
861.177	20108.88
861.422	19999.88
861.667	19931.88
861.913	19996.88
862.158	19996.88
862.403	20026.88
862.648	20186.88
862.893	20096.88
863.138	20150.88
863.384	20060.88
863.629	20105.88
863.873	20118.88
864.118	20071.88
864.363	19902.88
864.608	19866.88
864.853	19844.88
865.098	19609.88
865.342	19759.88
865.587	19546.88
865.832	19630.88
866.076	19610.88
866.321	19522.88
866.565	19506.88
866.81	19351.88
867.054	19348.88
867.298	19349.88
867.543	19213.88
867.787	19148.88
868.031	19192.88
868.275	19159.88
868.519	19125.88
868.764	19119.88
869.008	19178.88
869.252	19161.88
869.496	19021.88
869.739	19139.88
869.983	19094.88
870.227	19104.88
870.471	19071.88
870.715	19260.88
870.958	19285.88
871.202	19295.88
871.446	19332.88
871.689	19383.88
871.933	19373.88
872.176	19260.88
872.42	19218.88
872.663	19273.88
872.906	19119.88
873.15	19188.88
873.393	19109.88
873.636	19152.88
873.879	18974.88
874.122	18680.88
874.366	18420.88
874.609	18356.88
874.852	18124.88
875.095	18098.88
875.337	17987.88
875.58	17908.88
875.823	17850.88
876.066	17828.88
876.309	17859.88
876.551	17687.88
876.794	17628.88
877.037	17684.88
877.279	17384.88
877.522	17585.88
877.764	17495.88
878.007	17481.88
878.249	17525.88
878.491	17422.88
878.734	17524.88
878.976	17397.88
879.218	17172.88
879.46	17208.88
879.702	17063.88
879.945	16986.88
880.187	16789.88
880.429	16707.88
880.671	16654.88
880.912	16611.88
881.154	16576.88
881.396	16509.88
881.638	16532.88
881.88	16524.88
882.121	16482.88
882.363	16456.88
882.605	16543.88
882.846	16480.88
883.088	16518.88
883.329	16458.88
883.571	16523.88
883.812	16700.88
884.053	17052.88
884.295	17398.88
884.536	17674.88
884.777	17421.88
885.018	17342.88
885.259	17329.88
885.5	17168.88
885.742	17410.88
885.982	17098.88
886.223	16942.88
886.464	16924.88
886.705	16558.88
886.946	16594.88
887.187	16227.88
887.428	16134.88
887.668	15739.88
887.909	15639.88
888.15	15357.88
888.39	15314.88
888.631	15304.88
888.871	15126.88
889.111	14983.88
889.352	14947.88
889.592	14758.88
889.833	14582.88
890.073	14533.88
890.313	14552.88
890.553	14280.88
890.793	14261.88
891.033	14254.88
891.273	14204.88
891.513	14186.88
891.753	14153.88
891.993	14045.88
892.233	14154.88
892.473	14296.88
892.713	14195.88
892.952	14146.88
893.192	14182.88
893.432	14197.88
893.671	14192.88
893.911	14069.88
894.15	13995.88
894.39	13881.88
894.629	13874.88
894.869	13842.88
895.108	13751.88
895.347	13649.88
895.587	13727.88
895.826	13486.88
896.065	13594.88
896.304	13553.88
896.543	13596.88
896.782	13514.88
897.021	13577.88
897.26	13514.88
897.499	13534.88
897.738	13557.88
897.977	13404.88
898.216	13302.88
898.454	13079.88
898.693	13115.88
898.932	13068.88
899.17	12986.88
899.409	13024.88
899.647	12896.88
899.886	12991.88
900.124	12937.88
900.363	12934.88
900.601	13001.88
900.839	13009.88
901.078	13100.88
901.316	13192.88
901.554	13207.88
901.792	13292.88
902.03	13283.88
902.268	13338.88
902.506	13350.88
902.744	13171.88
902.982	13085.88
903.22	12885.88
903.458	12725.88
903.695	12550.88
903.933	12436.88
904.171	12116.88
904.409	12007.88
904.646	11833.88
904.884	11631.88
905.121	11566.88
905.359	11463.88
905.596	11351.88
905.833	11196.88
906.071	11188.88
906.308	11232.88
906.545	11095.88
906.783	11053.88
907.02	10988.88
907.257	10960.88
907.494	10983.88
907.731	10934.88
907.968	10864.88
908.205	10870.88
908.442	10762.88
908.679	10688.88
908.915	10656.88
909.152	10625.88
909.389	10349.88
909.626	10395.88
909.862	10295.88
910.099	10320.88
910.335	10312.88
910.572	10153.88
910.808	10211.88
911.045	10158.88
911.281	10094.88
911.518	10084.88
911.754	9996.88
911.99	10032.88
912.226	9851.88
912.463	9786.88
912.699	9781.88
912.935	9683.88
913.171	9606.88
913.407	9518.88
913.643	9523.88
913.879	9450.88
914.114	9368.88
914.35	9256.88
914.586	9133.88
914.822	9127.88
915.057	9121.88
915.293	8960.88
915.529	8925.88
915.764	9029.88
916	8879.88
916.235	8873.88
916.471	8905.88
916.706	8851.88
916.941	8810.88
917.177	8840.88
917.412	8835.88
917.647	8823.88
917.882	8750.88
918.117	8799.88
918.352	8755.88
918.588	8763.88
918.823	8622.88
919.057	8587.88
919.292	8470.88
919.527	8492.88
919.762	8317.88
919.997	8277.88
920.232	8194.88
920.466	8138.88
920.701	7977.88
920.935	7941.88
921.17	7914.88
921.405	7818.88
921.639	7913.88
921.873	7889.88
922.108	7816.88
922.342	7847.88
922.576	7706.88
922.811	7769.88
923.045	7788.88
923.279	7773.88
923.513	7612.88
923.747	7636.88
923.981	7584.88
924.215	7500.88
924.449	7445.88
924.683	7399.88
924.917	7411.88
925.151	7359.88
925.385	7437.88
925.618	7356.88
925.852	7350.88
926.086	7210.88
926.319	7306.88
926.553	7294.88
926.786	7283.88
927.02	7266.88
927.253	7255.88
927.486	7286.88
927.72	7176.88
927.953	7226.88
928.186	7146.88
928.42	7171.88
928.653	7131.88
928.886	7095.88
929.119	7114.88
929.352	7012.88
929.585	6987.88
929.818	6929.88
930.051	6856.88
930.284	6858.88
930.516	6741.88
930.749	6705.88
930.982	6763.88
931.215	6697.88
931.447	6581.88
931.68	6592.88
931.912	6593.88
932.145	6607.88
932.377	6658.88
932.61	6709.88
932.842	6536.88
933.074	6654.88
933.307	6486.88
933.539	6693.88
933.771	6570.88
934.003	6595.88
934.236	6601.88
934.468	6627.88
934.7	6560.88
934.932	6515.88
935.164	6509.88
935.395	6399.88
935.627	6471.88
935.859	6483.88
936.091	6400.88
936.323	6422.88
936.554	6477.88
936.786	6343.88
937.017	6321.88
937.249	6335.88
937.481	6266.88
937.712	6336.88
937.943	6273.88
938.175	6270.88
938.406	6269.88
938.637	6258.88
938.869	6151.88
939.1	6212.88
939.331	6189.88
939.562	6192.88
939.793	6215.88
940.024	6175.88
940.255	6146.88
940.486	6074.88
940.717	6065.88
940.948	6024.88
941.179	5950.88
941.409	6044.88
941.64	5920.88
941.871	5953.88
942.102	5927.88
942.332	5928.88
942.563	6026.88
942.793	6028.88
943.024	5913.88
943.254	5926.88
943.484	5979.88
943.715	5948.88
943.945	5910.88
944.175	5897.88
944.405	5874.88
944.636	5845.88
944.866	5915.88
945.096	5912.88
945.326	5852.88
945.556	5859.88
945.786	5852.88
946.016	5766.88
946.245	5698.88
946.475	5698.88
946.705	5650.88
946.935	5633.88
947.164	5605.88
947.394	5553.88
947.624	5559.88
947.853	5553.88
948.083	5471.88
948.312	5492.88
948.542	5408.88
948.771	5373.88
949	5407.88
949.23	5407.88
949.459	5371.88
949.688	5456.88
949.917	5419.88
950.146	5447.88
950.375	5430.88
950.604	5334.88
950.833	5420.88
951.062	5444.88
951.291	5325.88
951.52	5275.88
951.749	5348.88
951.978	5283.88
952.206	5267.88
952.435	5214.88
952.664	5265.88
952.892	5288.88
953.121	5224.88
953.349	5224.88
953.578	5258.88
953.806	5154.88
954.035	5094.88
954.263	5156.88
954.491	5069.88
954.719	5087.88
954.948	5032.88
955.176	4980.88
955.404	4917.88
955.632	4951.88
955.86	4946.88
956.088	4914.88
956.316	4961.88
956.544	4987.88
956.772	4854.88
956.999	4912.88
957.227	4883.88
957.455	4813.88
957.683	4823.88
957.91	4742.88
958.138	4718.88
958.365	4687.88
958.593	4686.88
958.82	4601.88
959.048	4666.88
959.275	4662.88
959.502	4609.88
959.73	4593.88
959.957	4581.88
960.184	4616.88
960.411	4587.88
960.638	4615.88
960.865	4579.88
961.092	4593.88
961.319	4444.88
961.546	4569.88
961.773	4596.88
962	4551.88
962.227	4618.88
962.454	4535.88
962.68	4479.88
962.907	4521.88
963.134	4405.88
963.36	4435.88
963.587	4385.88
963.813	4336.88
964.04	4399.88
964.266	4302.88
964.493	4370.88
964.719	4259.88
964.945	4315.88
965.171	4193.88
965.398	4253.88
965.624	4232.88
965.85	4166.88
966.076	4120.88
966.302	4179.88
966.528	4152.88
966.754	4161.88
966.98	4120.88
967.206	4097.88
967.431	4022.88
967.657	4083.88
967.883	4030.88
968.109	4066.88
968.334	4000.88
968.56	3990.88
968.785	4009.88
969.011	3931.88
969.236	3981.88
969.462	3930.88
969.687	3946.88
969.912	3970.88
970.138	3997.88
970.363	3868.88
970.588	3943.88
970.813	3866.88
971.038	3873.88
971.263	3839.88
971.488	3897.88
971.713	3908.88
971.938	3908.88
972.163	3721.88
972.388	3768.88
972.613	3730.88
972.838	3749.88
973.062	3735.88
973.287	3699.88
973.512	3617.88
973.736	3709.88
973.961	3650.88
974.185	3598.88
974.41	3610.88
974.634	3534.88
974.858	3557.88
975.083	3568.88
975.307	3524.88
975.531	3479.88
975.755	3452.88
975.98	3428.88
976.204	3375.88
976.428	3328.88
976.652	3353.88
976.876	3340.88
977.1	3372.88
977.324	3325.88
977.547	3364.88
977.771	3319.88
977.995	3317.88
978.219	3262.88
978.442	3394.88
978.666	3273.88
978.89	3289.88
979.113	3280.88
979.337	3285.88
979.56	3243.88
979.783	3338.88
980.007	3163.88
980.23	3204.88
980.453	3179.88
980.677	3157.88
980.9	3155.88
981.123	3115.88
981.346	3182.88
981.569	3159.88
981.792	3169.88
982.015	3110.88
982.238	3040.88
982.461	3060.88
982.684	3022.88
982.907	3009.88
983.129	3015.88
983.352	3008.88
983.575	2985.88
983.797	2989.88
984.02	2918.88
984.242	2932.88
984.465	2917.88
984.687	2933.88
984.91	2953.88
985.132	2895.88
985.354	2925.88
985.577	2915.88
985.799	2859.88
986.021	2756.88
986.243	2827.88
986.465	2836.88
986.687	2901.88
986.909	2868.88
987.131	2831.88
987.353	2741.88
987.575	2830.88
987.797	2772.88
988.019	2671.88
988.241	2751.88
988.462	2691.88
988.684	2765.88
988.906	2772.88
989.127	2784.88
989.349	2668.88
989.57	2667.88
989.792	2714.88
990.013	2765.88
990.234	2720.88
990.456	2698.88
990.677	2715.88
990.898	2614.88
991.119	2627.88
991.341	2680.88
991.562	2589.88
991.783	2589.88
992.004	2549.88
992.225	2594.88
992.446	2562.88
992.667	2488.88
992.887	2569.88
993.108	2470.88
993.329	2547.88
993.55	2491.88
993.77	2442.88
993.991	2438.88
994.212	2469.88
994.432	2459.88
994.653	2434.88
994.873	2438.88
995.093	2331.88
995.314	2349.88
995.534	2423.88
995.754	2406.88
995.975	2444.88
996.195	2337.88
996.415	2391.88
996.635	2345.88
996.855	2361.88
997.075	2353.88
997.295	2356.88
997.515	2323.88
997.735	2413.88
997.955	2342.88
998.174	2308.88
998.394	2273.88
998.614	2349.88
998.834	2270.88
999.053	2377.88
999.273	2297.88
999.492	2352.88
999.712	2302.88
999.931	2238.88
1000.151	2272.88
1000.37	2249.88
1000.589	2284.88
1000.809	2183.88
1001.028	2316.88
1001.247	2228.88
1001.466	2107.88
1001.685	2251.88
1001.904	2158.88
1002.123	2201.88
1002.342	2194.88
1002.561	2103.88
1002.78	2110.88
1002.999	2176.88
1003.218	2129.88
1003.436	2105.88
1003.655	2125.88
1003.874	2057.88
1004.092	2113.88
1004.311	2156.88
1004.53	2119.88
1004.748	2148.88
1004.966	2080.88
1005.185	2107.88
1005.403	2143.88
1005.622	2085.88
1005.84	2155.88
1006.058	2052.88
1006.276	2069.88
1006.494	2585.88
1006.712	2066.88
1006.931	2146.88
1007.149	2069.88
1007.367	2052.88
1007.584	2107.88
1007.802	2124.88
1008.02	2103.88
1008.238	2217.88
1008.456	2182.88
1008.673	2063.88
1008.891	2164.88
1009.109	2152.88
1009.326	2231.88
1009.544	2307.88
1009.761	2200.88
1009.979	2349.88
1010.196	2415.88
1010.413	2532.88
1010.631	2641.88
1010.848	2686.88
1011.065	2726.88
1011.282	2658.88
1011.5	2617.88
1011.717	2658.88
1011.934	2626.88
1012.151	2659.88
1012.368	2623.88
1012.585	2586.88
1012.801	2608.88
1013.018	2621.88
1013.235	2583.88
1013.452	2611.88
1013.669	2647.88
1013.885	2606.88
1014.102	2671.88
1014.318	2608.88
1014.535	2578.88
1014.751	2604.88
1014.968	2601.88
1015.184	2594.88
1015.401	2498.88
1015.617	2528.88
1015.833	2454.88
1016.049	2440.88
1016.266	2422.88
1016.482	2422.88
1016.698	2338.88
1016.914	2381.88
1017.13	2338.88
1017.346	2343.88
1017.562	2390.88
1017.778	2319.88
1017.993	2280.88
1018.209	2362.88
1018.425	2288.88
1018.641	2253.88
1018.856	2241.88
1019.072	2252.88
1019.288	2330.88
1019.503	2275.88
1019.719	2159.88
1019.934	2170.88
1020.149	2278.88
1020.365	2178.88
1020.58	2123.88
1020.795	2145.88
1021.011	2075.88
1021.226	1995.88
1021.441	1996.88
1021.656	1925.88
1021.871	1843.88
1022.086	1831.88
1022.301	1778.88
1022.516	1742.88
1022.731	1793.88
1022.946	1710.88
1023.16	1682.88
1023.375	1624.88
1023.59	1622.88
1023.804	1602.88
1024.019	1640.88
1024.234	1504.88
1024.448	1530.88
1024.663	1404.88
1024.877	1401.88
1025.092	1433.88
1025.306	1446.88
1025.52	1300.88
1025.734	1410.88
1025.949	1303.88
1026.163	1250.88
1026.377	1195.88
1026.591	1213.88
1026.805	1140.88
1027.019	1144.88
1027.233	1098.88
1027.447	1039.88
1027.661	1143.88
1027.875	1070.88
1028.088	1065.88
1028.302	983.88
1028.516	980.88
1028.73	964.88
1028.943	917.88
1029.157	863.88
1029.37	820.88
1029.584	-2.12
1029.797	0.88
1030.011	-1.12
1030.224	-1.12
