Data from QEP037381__100__15-03-56-079.txt Node

Date: Wed Dec 21 15:03:56 EST 2022
User: dcclab
Spectrometer: QEP03738
Trigger mode: 4
Integration Time (sec): 1.000000E1
Scans to average: 1
Electric dark correction enabled: true
Nonlinearity correction enabled: false
Boxcar width: 0
XAxis mode: Wavelengths
Number of Pixels in Spectrum: 1044
>>>>>Begin Spectral Data<<<<<
784.041	14
784.3	-1
784.558	-3
784.817	-5
785.075	84455
785.334	14887
785.592	7083
785.851	4938
786.109	3767
786.368	2962
786.626	2379
786.884	1994
787.143	1699
787.401	1399
787.659	1272
787.917	1094
788.175	1020
788.433	887
788.691	788
788.949	730
789.207	732
789.465	615
789.723	605
789.98	564
790.238	584
790.496	557
790.753	540
791.011	574
791.268	523
791.526	520
791.783	522
792.041	507
792.298	442
792.556	482
792.813	477
793.07	452
793.327	435
793.584	533
793.841	441
794.099	469
794.356	542
794.613	432
794.869	465
795.126	423
795.383	418
795.64	431
795.897	377
796.153	456
796.41	430
796.667	416
796.923	415
797.18	430
797.436	458
797.693	423
797.949	475
798.206	492
798.462	415
798.718	494
798.974	449
799.231	483
799.487	482
799.743	476
799.999	522
800.255	506
800.511	496
800.767	545
801.023	549
801.279	570
801.534	604
801.79	664
802.046	697
802.302	836
802.557	977
802.813	1209
803.068	1458
803.324	2047
803.579	2750
803.835	3835
804.09	5224
804.345	6830
804.601	8630
804.856	10434
805.111	12195
805.366	13325
805.621	14296
805.876	14991
806.131	15355
806.386	15675
806.641	15976
806.896	16243
807.151	16580
807.406	16907
807.661	17238
807.915	17567
808.17	17784
808.425	17918
808.679	18045
808.934	18321
809.188	18445
809.443	18721
809.697	18955
809.951	19071
810.206	19247
810.46	19503
810.714	19578
810.968	19808
811.223	19870
811.477	20089
811.731	20279
811.985	20432
812.239	20508
812.493	20602
812.747	20734
813	20795
813.254	20844
813.508	20896
813.762	21128
814.015	21107
814.269	21384
814.522	21561
814.776	21834
815.03	22173
815.283	22418
815.536	22820
815.79	23112
816.043	23484
816.296	23931
816.55	24081
816.803	24414
817.056	24791
817.309	25042
817.562	25239
817.815	25535
818.068	25629
818.321	26059
818.574	26208
818.827	26739
819.079	26988
819.332	27515
819.585	27797
819.838	28202
820.09	28265
820.343	28629
820.595	28695
820.848	28891
821.1	29057
821.353	28973
821.605	28850
821.857	28901
822.11	28752
822.362	28847
822.614	28695
822.866	28686
823.118	28608
823.37	28909
823.622	28915
823.874	29085
824.126	29085
824.378	29219
824.63	29367
824.882	29501
825.134	29454
825.385	29490
825.637	29189
825.888	29222
826.14	29232
826.392	28963
826.643	28871
826.895	28896
827.146	28779
827.397	28803
827.649	28857
827.9	28707
828.151	28701
828.402	28782
828.653	28945
828.905	29039
829.156	29011
829.407	29168
829.658	29251
829.909	29167
830.159	29177
830.41	29041
830.661	28945
830.912	28621
831.162	28650
831.413	28559
831.664	28690
831.914	28625
832.165	28438
832.415	28566
832.666	28494
832.916	28617
833.167	28508
833.417	28601
833.667	28532
833.917	28450
834.168	28409
834.418	28277
834.668	28222
834.918	28034
835.168	28033
835.418	27759
835.668	27747
835.918	27641
836.167	27717
836.417	27725
836.667	27700
836.917	27709
837.166	27587
837.416	27620
837.666	27647
837.915	27484
838.165	27491
838.414	27430
838.663	27435
838.913	27373
839.162	27228
839.411	27304
839.661	27196
839.91	27171
840.159	27143
840.408	27179
840.657	27176
840.906	27162
841.155	27248
841.404	27244
841.653	27244
841.902	27187
842.15	27417
842.399	27305
842.648	27356
842.897	27061
843.145	27065
843.394	26939
843.642	26771
843.891	26585
844.139	26524
844.388	26238
844.636	26286
844.884	26322
845.133	26236
845.381	26276
845.629	26263
845.877	26234
846.125	26231
846.373	26137
846.621	26067
846.869	25968
847.117	25941
847.365	25598
847.613	25637
847.861	25466
848.108	25561
848.356	25474
848.604	25400
848.851	25386
849.099	25499
849.346	25562
849.594	25643
849.841	25849
850.089	25828
850.336	26011
850.583	26056
850.831	25945
851.078	25786
851.325	25765
851.572	25843
851.819	25711
852.066	25105
852.313	24797
852.56	24481
852.807	24388
853.054	24254
853.301	24266
853.548	24321
853.794	24523
854.041	24612
854.288	24761
854.534	24934
854.781	24756
855.028	24742
855.274	24667
855.52	24617
855.767	24510
856.013	24423
856.26	24747
856.506	24174
856.752	24240
856.998	24270
857.244	24268
857.49	24472
857.736	24399
857.982	24621
858.228	24396
858.474	24135
858.72	24148
858.966	23791
859.212	23601
859.458	23324
859.703	23169
859.949	22821
860.195	22816
860.44	22744
860.686	22506
860.931	22592
861.177	22580
861.422	22500
861.667	22361
861.913	22293
862.158	22317
862.403	22446
862.648	22506
862.893	22509
863.138	22554
863.384	22431
863.629	22503
863.873	22368
864.118	22425
864.363	22218
864.608	22175
864.853	22176
865.098	21890
865.342	22009
865.587	21878
865.832	21767
866.076	21747
866.321	21631
866.565	21656
866.81	21633
867.054	21439
867.298	21510
867.543	21469
867.787	21434
868.031	21263
868.275	21377
868.519	21284
868.764	21231
869.008	21170
869.252	21132
869.496	21115
869.739	21102
869.983	21172
870.227	21273
870.471	21055
870.715	21325
870.958	21263
871.202	21353
871.446	21383
871.689	21232
871.933	21291
872.176	21271
872.42	21249
872.663	21137
872.906	21081
873.15	20988
873.393	20869
873.636	20994
873.879	20648
874.122	20592
874.366	20215
874.609	20204
874.852	20049
875.095	19871
875.337	19822
875.58	19769
875.823	19667
876.066	19654
876.309	19582
876.551	19553
876.794	19417
877.037	19409
877.279	19279
877.522	19216
877.764	19338
878.007	19270
878.249	19159
878.491	19139
878.734	19163
878.976	19101
879.218	18929
879.46	18889
879.702	18757
879.945	18518
880.187	18448
880.429	18458
880.671	18240
880.912	18328
881.154	18217
881.396	18192
881.638	18223
881.88	18078
882.121	18089
882.363	18031
882.605	18121
882.846	18036
883.088	18048
883.329	17896
883.571	18002
883.812	18064
884.053	18415
884.295	18817
884.536	19014
884.777	18799
885.018	18831
885.259	18741
885.5	18484
885.742	18921
885.982	18465
886.223	18308
886.464	18176
886.705	18105
886.946	17979
887.187	17546
887.428	17389
887.668	17112
887.909	16879
888.15	16720
888.39	16760
888.631	16565
888.871	16529
889.111	16412
889.352	16271
889.592	16024
889.833	15995
890.073	15807
890.313	15885
890.553	15702
890.793	15608
891.033	15514
891.273	15484
891.513	15394
891.753	15429
891.993	15319
892.233	15449
892.473	15461
892.713	15455
892.952	15489
893.192	15401
893.432	15384
893.671	15503
893.911	15433
894.15	15345
894.39	15083
894.629	15099
894.869	15068
895.108	14942
895.347	14895
895.587	14883
895.826	14834
896.065	14844
896.304	14792
896.543	14666
896.782	14565
897.021	14611
897.26	14610
897.499	14649
897.738	14613
897.977	14487
898.216	14362
898.454	14249
898.693	14176
898.932	14087
899.17	14006
899.409	14143
899.647	14061
899.886	14029
900.124	14069
900.363	14033
900.601	14136
900.839	14064
901.078	14132
901.316	14171
901.554	14208
901.792	14320
902.03	14276
902.268	14386
902.506	14271
902.744	14253
902.982	14037
903.22	13870
903.458	13624
903.695	13515
903.933	13292
904.171	13083
904.409	12882
904.646	12709
904.884	12612
905.121	12514
905.359	12352
905.596	12169
905.833	12061
906.071	11944
906.308	11992
906.545	11990
906.783	11899
907.02	11854
907.257	11829
907.494	11776
907.731	11804
907.968	11776
908.205	11662
908.442	11533
908.679	11474
908.915	11375
909.152	11305
909.389	11250
909.626	11215
909.862	11026
910.099	10986
910.335	11018
910.572	10906
910.808	10892
911.045	10842
911.281	10755
911.518	10817
911.754	10719
911.99	10617
912.226	10571
912.463	10511
912.699	10396
912.935	10364
913.171	10292
913.407	10189
913.643	10143
913.879	10049
914.114	9985
914.35	9885
914.586	9766
914.822	9719
915.057	9749
915.293	9540
915.529	9546
915.764	9565
916	9523
916.235	9561
916.471	9494
916.706	9420
916.941	9422
917.177	9412
917.412	9381
917.647	9366
917.882	9382
918.117	9355
918.352	9341
918.588	9352
918.823	9204
919.057	9111
919.292	8912
919.527	8991
919.762	8843
919.997	8892
920.232	8701
920.466	8655
920.701	8524
920.935	8524
921.17	8446
921.405	8377
921.639	8452
921.873	8425
922.108	8331
922.342	8329
922.576	8251
922.811	8191
923.045	8264
923.279	8248
923.513	8098
923.747	8081
923.981	7983
924.215	7962
924.449	7938
924.683	7828
924.917	7823
925.151	7802
925.385	7808
925.618	7781
925.852	7734
926.086	7714
926.319	7732
926.553	7707
926.786	7693
927.02	7656
927.253	7734
927.486	7687
927.72	7574
927.953	7598
928.186	7588
928.42	7644
928.653	7536
928.886	7492
929.119	7491
929.352	7382
929.585	7396
929.818	7302
930.051	7309
930.284	7271
930.516	7136
930.749	7121
930.982	7106
931.215	7103
931.447	7007
931.68	6979
931.912	6957
932.145	6963
932.377	7008
932.61	7026
932.842	6908
933.074	6980
933.307	6914
933.539	7035
933.771	6930
934.003	6877
934.236	6987
934.468	6983
934.7	6882
934.932	6902
935.164	6849
935.395	6825
935.627	6831
935.859	6812
936.091	6709
936.323	6765
936.554	6765
936.786	6725
937.017	6618
937.249	6678
937.481	6531
937.712	6603
937.943	6561
938.175	6625
938.406	6583
938.637	6634
938.869	6537
939.1	6494
939.331	6521
939.562	6534
939.793	6470
940.024	6464
940.255	6407
940.486	6379
940.717	6367
940.948	6302
941.179	6256
941.409	6294
941.64	6278
941.871	6243
942.102	6255
942.332	6292
942.563	6268
942.793	6246
943.024	6220
943.254	6199
943.484	6266
943.715	6239
943.945	6214
944.175	6158
944.405	6103
944.636	6180
944.866	6167
945.096	6198
945.326	6105
945.556	6117
945.786	6135
946.016	6041
946.245	5989
946.475	5958
946.705	5889
946.935	5876
947.164	5849
947.394	5846
947.624	5799
947.853	5852
948.083	5788
948.312	5749
948.542	5639
948.771	5664
949	5676
949.23	5596
949.459	5683
949.688	5745
949.917	5691
950.146	5604
950.375	5705
950.604	5617
950.833	5644
951.062	5688
951.291	5588
951.52	5554
951.749	5643
951.978	5531
952.206	5491
952.435	5522
952.664	5468
952.892	5464
953.121	5472
953.349	5423
953.578	5409
953.806	5378
954.035	5284
954.263	5339
954.491	5246
954.719	5252
954.948	5231
955.176	5178
955.404	5137
955.632	5157
955.86	5176
956.088	5166
956.316	5153
956.544	5137
956.772	5074
956.999	4984
957.227	5053
957.455	4985
957.683	5025
957.91	4895
958.138	4909
958.365	4883
958.593	4852
958.82	4809
959.048	4840
959.275	4769
959.502	4763
959.73	4799
959.957	4786
960.184	4793
960.411	4758
960.638	4820
960.865	4773
961.092	4720
961.319	4649
961.546	4753
961.773	4778
962	4735
962.227	4719
962.454	4674
962.68	4666
962.907	4636
963.134	4562
963.36	4568
963.587	4626
963.813	4513
964.04	4521
964.266	4416
964.493	4539
964.719	4467
964.945	4453
965.171	4301
965.398	4387
965.624	4386
965.85	4302
966.076	4296
966.302	4276
966.528	4259
966.754	4300
966.98	4284
967.206	4248
967.431	4138
967.657	4247
967.883	4218
968.109	4189
968.334	4178
968.56	4113
968.785	4147
969.011	4117
969.236	4157
969.462	4029
969.687	4064
969.912	4088
970.138	4137
970.363	4043
970.588	4040
970.813	4018
971.038	3970
971.263	3988
971.488	4000
971.713	4013
971.938	3945
972.163	3863
972.388	3878
972.613	3831
972.838	3866
973.062	3835
973.287	3814
973.512	3692
973.736	3762
973.961	3795
974.185	3740
974.41	3741
974.634	3649
974.858	3693
975.083	3708
975.307	3635
975.531	3585
975.755	3504
975.98	3536
976.204	3494
976.428	3502
976.652	3499
976.876	3410
977.1	3477
977.324	3441
977.547	3445
977.771	3451
977.995	3439
978.219	3354
978.442	3494
978.666	3347
978.89	3436
979.113	3370
979.337	3324
979.56	3316
979.783	3406
980.007	3269
980.23	3302
980.453	3248
980.677	3287
980.9	3268
981.123	3173
981.346	3223
981.569	3256
981.792	3293
982.015	3216
982.238	3120
982.461	3162
982.684	3072
982.907	3046
983.129	3057
983.352	3107
983.575	3086
983.797	3048
984.02	2998
984.242	3018
984.465	2997
984.687	3048
984.91	3013
985.132	2990
985.354	3005
985.577	2934
985.799	2924
986.021	2849
986.243	2893
986.465	2896
986.687	2915
986.909	2977
987.131	2883
987.353	2818
987.575	2858
987.797	2831
988.019	2743
988.241	2813
988.462	2765
988.684	2830
988.906	2838
989.127	2870
989.349	2737
989.57	2773
989.792	2820
990.013	2793
990.234	2755
990.456	2771
990.677	2766
990.898	2701
991.119	2713
991.341	2737
991.562	2642
991.783	2708
992.004	2614
992.225	2570
992.446	2634
992.667	2537
992.887	2592
993.108	2484
993.329	2647
993.55	2564
993.77	2509
993.991	2512
994.212	2502
994.432	2494
994.653	2488
994.873	2480
995.093	2375
995.314	2414
995.534	2467
995.754	2456
995.975	2494
996.195	2408
996.415	2432
996.635	2389
996.855	2427
997.075	2394
997.295	2363
997.515	2364
997.735	2405
997.955	2375
998.174	2376
998.394	2335
998.614	2363
998.834	2303
999.053	2402
999.273	2366
999.492	2381
999.712	2359
999.931	2275
1000.151	2311
1000.37	2256
1000.589	2356
1000.809	2241
1001.028	2354
1001.247	2277
1001.466	2150
1001.685	2320
1001.904	2216
1002.123	2235
1002.342	2206
1002.561	2165
1002.78	2185
1002.999	2228
1003.218	2195
1003.436	2123
1003.655	2190
1003.874	2107
1004.092	2134
1004.311	2161
1004.53	2152
1004.748	2159
1004.966	2124
1005.185	2183
1005.403	2117
1005.622	2102
1005.84	2195
1006.058	2096
1006.276	2079
1006.494	2589
1006.712	2101
1006.931	2157
1007.149	2071
1007.367	2061
1007.584	2116
1007.802	2128
1008.02	2079
1008.238	2219
1008.456	2183
1008.673	2077
1008.891	2188
1009.109	2127
1009.326	2214
1009.544	2270
1009.761	2249
1009.979	2361
1010.196	2347
1010.413	2519
1010.631	2561
1010.848	2665
1011.065	2625
1011.282	2593
1011.5	2543
1011.717	2649
1011.934	2599
1012.151	2614
1012.368	2597
1012.585	2522
1012.801	2590
1013.018	2535
1013.235	2567
1013.452	2543
1013.669	2562
1013.885	2559
1014.102	2558
1014.318	2587
1014.535	2540
1014.751	2556
1014.968	2535
1015.184	2590
1015.401	2474
1015.617	2451
1015.833	2426
1016.049	2407
1016.266	2402
1016.482	2374
1016.698	2301
1016.914	2384
1017.13	2310
1017.346	2281
1017.562	2361
1017.778	2243
1017.993	2259
1018.209	2298
1018.425	2323
1018.641	2243
1018.856	2255
1019.072	2279
1019.288	2295
1019.503	2239
1019.719	2138
1019.934	2150
1020.149	2235
1020.365	2139
1020.58	2084
1020.795	2093
1021.011	2010
1021.226	1978
1021.441	2006
1021.656	1887
1021.871	1820
1022.086	1780
1022.301	1806
1022.516	1771
1022.731	1833
1022.946	1716
1023.16	1705
1023.375	1618
1023.59	1605
1023.804	1591
1024.019	1630
1024.234	1505
1024.448	1534
1024.663	1432
1024.877	1436
1025.092	1446
1025.306	1459
1025.52	1345
1025.734	1409
1025.949	1318
1026.163	1267
1026.377	1212
1026.591	1239
1026.805	1164
1027.019	1133
1027.233	1117
1027.447	1053
1027.661	1144
1027.875	1110
1028.088	1068
1028.302	1012
1028.516	966
1028.73	960
1028.943	949
1029.157	866
1029.37	835
1029.584	-1
1029.797	0
1030.011	-3
1030.224	-1
