Data from QEP037381__109__15-05-26-079.txt Node

Date: Wed Dec 21 15:05:26 EST 2022
User: dcclab
Spectrometer: QEP03738
Trigger mode: 4
Integration Time (sec): 1.000000E1
Scans to average: 1
Electric dark correction enabled: true
Nonlinearity correction enabled: false
Boxcar width: 0
XAxis mode: Wavelengths
Number of Pixels in Spectrum: 1044
>>>>>Begin Spectral Data<<<<<
784.041	11
784.3	1
784.558	-2
784.817	-3
785.075	90839
785.334	16403
785.592	7887
785.851	5580
786.109	4251
786.368	3300
786.626	2658
786.884	2238
787.143	1840
787.401	1511
787.659	1376
787.917	1161
788.175	1065
788.433	944
788.691	854
788.949	779
789.207	744
789.465	665
789.723	639
789.98	572
790.238	607
790.496	553
790.753	556
791.011	597
791.268	526
791.526	500
791.783	529
792.041	516
792.298	439
792.556	481
792.813	466
793.07	458
793.327	415
793.584	504
793.841	444
794.099	467
794.356	501
794.613	423
794.869	457
795.126	409
795.383	403
795.64	414
795.897	368
796.153	444
796.41	429
796.667	403
796.923	402
797.18	415
797.436	433
797.693	390
797.949	453
798.206	482
798.462	390
798.718	450
798.974	420
799.231	472
799.487	455
799.743	461
799.999	469
800.255	475
800.511	476
800.767	511
801.023	497
801.279	523
801.534	563
801.79	595
802.046	618
802.302	753
802.557	825
802.813	1023
803.068	1210
803.324	1666
803.579	2215
803.835	3035
804.09	4144
804.345	5320
804.601	6716
804.856	8037
805.111	9273
805.366	10277
805.621	10913
805.876	11496
806.131	11705
806.386	11999
806.641	12148
806.896	12491
807.151	12755
807.406	12859
807.661	13256
807.915	13422
808.17	13651
808.425	13779
808.679	13875
808.934	14142
809.188	14181
809.443	14351
809.697	14614
809.951	14713
810.206	14741
810.46	14952
810.714	15036
810.968	15185
811.223	15334
811.477	15498
811.731	15699
811.985	15681
812.239	15792
812.493	15817
812.747	15954
813	15975
813.254	16039
813.508	16131
813.762	16118
814.015	16319
814.269	16539
814.522	16539
814.776	16763
815.03	17056
815.283	17226
815.536	17599
815.79	17813
816.043	18163
816.296	18339
816.55	18615
816.803	18901
817.056	19129
817.309	19293
817.562	19498
817.815	19678
818.068	19845
818.321	20086
818.574	20301
818.827	20614
819.079	20917
819.332	21338
819.585	21635
819.838	21772
820.09	21821
820.343	22219
820.595	22187
820.848	22348
821.1	22356
821.353	22377
821.605	22384
821.857	22434
822.11	22154
822.362	22098
822.614	22290
822.866	22243
823.118	22238
823.37	22328
823.622	22439
823.874	22519
824.126	22785
824.378	22626
824.63	22757
824.882	22836
825.134	22840
825.385	22848
825.637	22722
825.888	22538
826.14	22571
826.392	22514
826.643	22393
826.895	22384
827.146	22294
827.397	22144
827.649	22281
827.9	22241
828.151	22254
828.402	22350
828.653	22382
828.905	22396
829.156	22591
829.407	22511
829.658	22553
829.909	22634
830.159	22627
830.41	22551
830.661	22471
830.912	22250
831.162	22178
831.413	22278
831.664	22232
831.914	22202
832.165	22190
832.415	22209
832.666	22139
832.916	22178
833.167	22303
833.417	22257
833.667	22157
833.917	22004
834.168	22104
834.418	22043
834.668	21962
834.918	21806
835.168	21738
835.418	21645
835.668	21643
835.918	21571
836.167	21569
836.417	21573
836.667	21603
836.917	21398
837.166	21403
837.416	21492
837.666	21377
837.915	21395
838.165	21384
838.414	21355
838.663	21270
838.913	21379
839.162	21351
839.411	21435
839.661	21294
839.91	21199
840.159	21306
840.408	21175
840.657	21332
840.906	21299
841.155	21220
841.404	21267
841.653	21370
841.902	21389
842.15	21512
842.399	21368
842.648	21399
842.897	21274
843.145	21119
843.394	20988
843.642	20962
843.891	20843
844.139	20838
844.388	20714
844.636	20485
844.884	20497
845.133	20468
845.381	20455
845.629	20525
845.877	20556
846.125	20416
846.373	20562
846.621	20355
846.869	20338
847.117	20237
847.365	20194
847.613	20092
847.861	20054
848.108	20114
848.356	19996
848.604	19970
848.851	19954
849.099	20039
849.346	20127
849.594	20252
849.841	20402
850.089	20471
850.336	20498
850.583	20509
850.831	20411
851.078	20384
851.325	20400
851.572	20467
851.819	20257
852.066	19826
852.313	19451
852.56	19304
852.807	19172
853.054	19228
853.301	19256
853.548	19283
853.794	19424
854.041	19486
854.288	19408
854.534	19688
854.781	19563
855.028	19577
855.274	19550
855.52	19503
855.767	19380
856.013	19472
856.26	19733
856.506	19302
856.752	19209
856.998	19265
857.244	19298
857.49	19402
857.736	19467
857.982	19484
858.228	19388
858.474	19102
858.72	19030
858.966	18961
859.212	18707
859.458	18494
859.703	18274
859.949	18239
860.195	18072
860.44	18037
860.686	18014
860.931	18027
861.177	17834
861.422	17744
861.667	17710
861.913	17770
862.158	17611
862.403	17710
862.648	17779
862.893	17813
863.138	17807
863.384	17814
863.629	17682
863.873	17807
864.118	17717
864.363	17555
864.608	17576
864.853	17518
865.098	17515
865.342	17430
865.587	17315
865.832	17264
866.076	17343
866.321	17278
866.565	17251
866.81	17053
867.054	17137
867.298	16997
867.543	16956
867.787	16910
868.031	17003
868.275	16873
868.519	16883
868.764	16920
869.008	16898
869.252	16918
869.496	16881
869.739	16919
869.983	16848
870.227	16865
870.471	16942
870.715	17007
870.958	17036
871.202	17024
871.446	17071
871.689	17131
871.933	17183
872.176	16987
872.42	16945
872.663	16972
872.906	16959
873.15	16961
873.393	16910
873.636	16940
873.879	16800
874.122	16625
874.366	16262
874.609	16177
874.852	16089
875.095	16056
875.337	15861
875.58	15708
875.823	15864
876.066	15789
876.309	15789
876.551	15657
876.794	15584
877.037	15636
877.279	15490
877.522	15455
877.764	15518
878.007	15400
878.249	15325
878.491	15334
878.734	15345
878.976	15261
879.218	15153
879.46	15133
879.702	15036
879.945	14983
880.187	14765
880.429	14696
880.671	14555
880.912	14604
881.154	14484
881.396	14511
881.638	14512
881.88	14525
882.121	14479
882.363	14476
882.605	14441
882.846	14483
883.088	14409
883.329	14456
883.571	14516
883.812	14653
884.053	14984
884.295	15264
884.536	15587
884.777	15438
885.018	15327
885.259	15364
885.5	15186
885.742	15295
885.982	15068
886.223	14862
886.464	14879
886.705	14615
886.946	14471
887.187	14255
887.428	14061
887.668	13844
887.909	13610
888.15	13496
888.39	13367
888.631	13413
888.871	13193
889.111	13074
889.352	13027
889.592	12896
889.833	12843
890.073	12730
890.313	12644
890.553	12496
890.793	12458
891.033	12414
891.273	12398
891.513	12332
891.753	12344
891.993	12342
892.233	12331
892.473	12374
892.713	12344
892.952	12353
893.192	12397
893.432	12394
893.671	12372
893.911	12299
894.15	12240
894.39	12094
894.629	12061
894.869	11998
895.108	11979
895.347	11866
895.587	11924
895.826	11858
896.065	11801
896.304	11880
896.543	11853
896.782	11718
897.021	11800
897.26	11724
897.499	11800
897.738	11723
897.977	11674
898.216	11581
898.454	11471
898.693	11359
898.932	11341
899.17	11265
899.409	11299
899.647	11288
899.886	11285
900.124	11348
900.363	11201
900.601	11244
900.839	11327
901.078	11415
901.316	11371
901.554	11533
901.792	11671
902.03	11570
902.268	11641
902.506	11603
902.744	11461
902.982	11493
903.22	11245
903.458	10983
903.695	10913
903.933	10749
904.171	10534
904.409	10328
904.646	10208
904.884	10115
905.121	10008
905.359	9849
905.596	9792
905.833	9713
906.071	9574
906.308	9703
906.545	9598
906.783	9467
907.02	9524
907.257	9477
907.494	9435
907.731	9470
907.968	9397
908.205	9378
908.442	9258
908.679	9204
908.915	9157
909.152	9102
909.389	9046
909.626	8977
909.862	8897
910.099	8861
910.335	8910
910.572	8710
910.808	8766
911.045	8664
911.281	8674
911.518	8686
911.754	8589
911.99	8569
912.226	8467
912.463	8413
912.699	8403
912.935	8266
913.171	8268
913.407	8142
913.643	8167
913.879	8039
914.114	8044
914.35	7913
914.586	7846
914.822	7794
915.057	7855
915.293	7671
915.529	7678
915.764	7701
916	7638
916.235	7669
916.471	7677
916.706	7546
916.941	7558
917.177	7532
917.412	7560
917.647	7596
917.882	7503
918.117	7538
918.352	7500
918.588	7504
918.823	7363
919.057	7319
919.292	7183
919.527	7220
919.762	7079
919.997	7148
920.232	6997
920.466	7014
920.701	6828
920.935	6857
921.17	6868
921.405	6712
921.639	6785
921.873	6652
922.108	6645
922.342	6659
922.576	6602
922.811	6554
923.045	6604
923.279	6603
923.513	6477
923.747	6517
923.981	6423
924.215	6383
924.449	6391
924.683	6333
924.917	6326
925.151	6261
925.385	6296
925.618	6254
925.852	6261
926.086	6149
926.319	6195
926.553	6169
926.786	6188
927.02	6208
927.253	6251
927.486	6202
927.72	6120
927.953	6183
928.186	6123
928.42	6090
928.653	5995
928.886	6006
929.119	6048
929.352	6013
929.585	5924
929.818	5889
930.051	5859
930.284	5817
930.516	5737
930.749	5713
930.982	5750
931.215	5697
931.447	5617
931.68	5634
931.912	5638
932.145	5596
932.377	5667
932.61	5725
932.842	5549
933.074	5623
933.307	5484
933.539	5691
933.771	5616
934.003	5597
934.236	5631
934.468	5676
934.7	5572
934.932	5548
935.164	5466
935.395	5469
935.627	5515
935.859	5489
936.091	5363
936.323	5461
936.554	5486
936.786	5404
937.017	5309
937.249	5420
937.481	5279
937.712	5328
937.943	5288
938.175	5288
938.406	5252
938.637	5313
938.869	5288
939.1	5288
939.331	5225
939.562	5220
939.793	5206
940.024	5232
940.255	5217
940.486	5127
940.717	5173
940.948	5086
941.179	5036
941.409	5097
941.64	5032
941.871	5074
942.102	5031
942.332	5053
942.563	5108
942.793	5024
943.024	5006
943.254	5001
943.484	5022
943.715	5065
943.945	5049
944.175	4983
944.405	4930
944.636	4966
944.866	5014
945.096	4987
945.326	4966
945.556	4986
945.786	4960
946.016	4892
946.245	4802
946.475	4836
946.705	4777
946.935	4793
947.164	4758
947.394	4702
947.624	4688
947.853	4740
948.083	4661
948.312	4671
948.542	4578
948.771	4592
949	4586
949.23	4609
949.459	4557
949.688	4689
949.917	4536
950.146	4617
950.375	4646
950.604	4461
950.833	4573
951.062	4571
951.291	4532
951.52	4496
951.749	4472
951.978	4433
952.206	4455
952.435	4426
952.664	4494
952.892	4457
953.121	4415
953.349	4427
953.578	4439
953.806	4367
954.035	4300
954.263	4388
954.491	4271
954.719	4304
954.948	4244
955.176	4194
955.404	4126
955.632	4225
955.86	4212
956.088	4205
956.316	4208
956.544	4169
956.772	4110
956.999	4116
957.227	4170
957.455	4060
957.683	4014
957.91	4029
958.138	3985
958.365	3995
958.593	3953
958.82	3916
959.048	3973
959.275	3897
959.502	3918
959.73	3876
959.957	3893
960.184	3951
960.411	3817
960.638	3960
960.865	3834
961.092	3905
961.319	3789
961.546	3861
961.773	3896
962	3877
962.227	3841
962.454	3808
962.68	3829
962.907	3809
963.134	3725
963.36	3740
963.587	3726
963.813	3677
964.04	3697
964.266	3637
964.493	3659
964.719	3654
964.945	3637
965.171	3484
965.398	3605
965.624	3603
965.85	3499
966.076	3525
966.302	3520
966.528	3496
966.754	3460
966.98	3498
967.206	3443
967.431	3442
967.657	3454
967.883	3477
968.109	3400
968.334	3398
968.56	3347
968.785	3396
969.011	3338
969.236	3383
969.462	3326
969.687	3328
969.912	3392
970.138	3399
970.363	3249
970.588	3301
970.813	3284
971.038	3229
971.263	3247
971.488	3265
971.713	3280
971.938	3274
972.163	3187
972.388	3185
972.613	3195
972.838	3175
973.062	3148
973.287	3168
973.512	3048
973.736	3161
973.961	3100
974.185	3094
974.41	3119
974.634	2959
974.858	2972
975.083	3033
975.307	3031
975.531	3001
975.755	2889
975.98	2947
976.204	2834
976.428	2832
976.652	2829
976.876	2823
977.1	2831
977.324	2776
977.547	2839
977.771	2832
977.995	2812
978.219	2751
978.442	2907
978.666	2746
978.89	2809
979.113	2783
979.337	2729
979.56	2735
979.783	2835
980.007	2682
980.23	2714
980.453	2673
980.677	2727
980.9	2684
981.123	2573
981.346	2694
981.569	2688
981.792	2684
982.015	2618
982.238	2599
982.461	2611
982.684	2551
982.907	2551
983.129	2557
983.352	2560
983.575	2554
983.797	2559
984.02	2498
984.242	2469
984.465	2493
984.687	2505
984.91	2509
985.132	2518
985.354	2484
985.577	2453
985.799	2433
986.021	2393
986.243	2403
986.465	2423
986.687	2435
986.909	2449
987.131	2414
987.353	2358
987.575	2422
987.797	2381
988.019	2276
988.241	2356
988.462	2298
988.684	2387
988.906	2391
989.127	2413
989.349	2246
989.57	2315
989.792	2344
990.013	2337
990.234	2328
990.456	2371
990.677	2310
990.898	2277
991.119	2257
991.341	2273
991.562	2244
991.783	2274
992.004	2162
992.225	2171
992.446	2210
992.667	2144
992.887	2188
993.108	2084
993.329	2205
993.55	2181
993.77	2091
993.991	2099
994.212	2114
994.432	2112
994.653	2105
994.873	2098
995.093	1998
995.314	2035
995.534	2080
995.754	2089
995.975	2138
996.195	1989
996.415	2053
996.635	2080
996.855	2054
997.075	2040
997.295	2025
997.515	2009
997.735	2072
997.955	2017
998.174	2006
998.394	1995
998.614	2063
998.834	1988
999.053	2050
999.273	2004
999.492	2067
999.712	1980
999.931	1972
1000.151	1977
1000.37	1935
1000.589	1988
1000.809	1927
1001.028	2051
1001.247	1944
1001.466	1820
1001.685	1983
1001.904	1942
1002.123	1923
1002.342	1892
1002.561	1826
1002.78	1883
1002.999	1927
1003.218	1870
1003.436	1852
1003.655	1878
1003.874	1841
1004.092	1842
1004.311	1880
1004.53	1812
1004.748	1909
1004.966	1828
1005.185	1883
1005.403	1859
1005.622	1835
1005.84	1925
1006.058	1826
1006.276	1812
1006.494	2319
1006.712	1842
1006.931	1875
1007.149	1801
1007.367	1800
1007.584	1815
1007.802	1889
1008.02	1827
1008.238	1907
1008.456	1939
1008.673	1794
1008.891	1903
1009.109	1915
1009.326	1932
1009.544	2031
1009.761	1971
1009.979	2057
1010.196	2085
1010.413	2219
1010.631	2282
1010.848	2340
1011.065	2338
1011.282	2294
1011.5	2263
1011.717	2349
1011.934	2314
1012.151	2267
1012.368	2307
1012.585	2216
1012.801	2311
1013.018	2272
1013.235	2256
1013.452	2275
1013.669	2295
1013.885	2291
1014.102	2302
1014.318	2244
1014.535	2233
1014.751	2274
1014.968	2275
1015.184	2241
1015.401	2202
1015.617	2199
1015.833	2131
1016.049	2138
1016.266	2092
1016.482	2125
1016.698	2041
1016.914	2082
1017.13	2005
1017.346	2021
1017.562	2103
1017.778	2014
1017.993	1965
1018.209	2044
1018.425	2000
1018.641	1978
1018.856	1960
1019.072	1991
1019.288	2017
1019.503	1960
1019.719	1889
1019.934	1884
1020.149	1967
1020.365	1899
1020.58	1829
1020.795	1874
1021.011	1771
1021.226	1759
1021.441	1737
1021.656	1655
1021.871	1591
1022.086	1601
1022.301	1575
1022.516	1565
1022.731	1613
1022.946	1506
1023.16	1493
1023.375	1455
1023.59	1446
1023.804	1366
1024.019	1465
1024.234	1326
1024.448	1348
1024.663	1258
1024.877	1281
1025.092	1292
1025.306	1273
1025.52	1175
1025.734	1240
1025.949	1149
1026.163	1116
1026.377	1058
1026.591	1102
1026.805	1033
1027.019	999
1027.233	978
1027.447	924
1027.661	1034
1027.875	961
1028.088	966
1028.302	875
1028.516	843
1028.73	863
1028.943	846
1029.157	771
1029.37	742
1029.584	-1
1029.797	-4
1030.011	0
1030.224	-2
