Data from QEP037381__111__15-05-46-078.txt Node

Date: Wed Dec 21 15:05:46 EST 2022
User: dcclab
Spectrometer: QEP03738
Trigger mode: 4
Integration Time (sec): 1.000000E1
Scans to average: 1
Electric dark correction enabled: true
Nonlinearity correction enabled: false
Boxcar width: 0
XAxis mode: Wavelengths
Number of Pixels in Spectrum: 1044
>>>>>Begin Spectral Data<<<<<
784.041	10.5
784.3	-0.5
784.558	-0.5
784.817	-3.5
785.075	88323.5
785.334	15202.5
785.592	7171.5
785.851	4988.5
786.109	3823.5
786.368	2998.5
786.626	2449.5
786.884	2129.5
787.143	1747.5
787.401	1447.5
787.659	1306.5
787.917	1125.5
788.175	1033.5
788.433	916.5
788.691	804.5
788.949	776.5
789.207	737.5
789.465	650.5
789.723	610.5
789.98	554.5
790.238	601.5
790.496	571.5
790.753	534.5
791.011	578.5
791.268	519.5
791.526	503.5
791.783	518.5
792.041	499.5
792.298	432.5
792.556	493.5
792.813	454.5
793.07	463.5
793.327	436.5
793.584	508.5
793.841	433.5
794.099	449.5
794.356	507.5
794.613	418.5
794.869	473.5
795.126	397.5
795.383	407.5
795.64	415.5
795.897	388.5
796.153	418.5
796.41	420.5
796.667	400.5
796.923	396.5
797.18	410.5
797.436	435.5
797.693	403.5
797.949	448.5
798.206	479.5
798.462	383.5
798.718	460.5
798.974	438.5
799.231	478.5
799.487	483.5
799.743	455.5
799.999	490.5
800.255	492.5
800.511	483.5
800.767	515.5
801.023	496.5
801.279	528.5
801.534	562.5
801.79	613.5
802.046	628.5
802.302	736.5
802.557	830.5
802.813	1019.5
803.068	1190.5
803.324	1663.5
803.579	2229.5
803.835	3050.5
804.09	4168.5
804.345	5419.5
804.601	6878.5
804.856	8238.5
805.111	9566.5
805.366	10515.5
805.621	11303.5
805.876	11842.5
806.131	12179.5
806.386	12409.5
806.641	12609.5
806.896	12862.5
807.151	13098.5
807.406	13359.5
807.661	13613.5
807.915	13897.5
808.17	14040.5
808.425	14217.5
808.679	14301.5
808.934	14531.5
809.188	14690.5
809.443	14939.5
809.697	15013.5
809.951	15110.5
810.206	15296.5
810.46	15463.5
810.714	15561.5
810.968	15735.5
811.223	15867.5
811.477	16073.5
811.731	16089.5
811.985	16132.5
812.239	16308.5
812.493	16357.5
812.747	16445.5
813	16452.5
813.254	16613.5
813.508	16732.5
813.762	16869.5
814.015	16882.5
814.269	17001.5
814.522	17200.5
814.776	17348.5
815.03	17556.5
815.283	17830.5
815.536	18144.5
815.79	18463.5
816.043	18806.5
816.296	18939.5
816.55	19262.5
816.803	19504.5
817.056	19807.5
817.309	20007.5
817.562	20131.5
817.815	20469.5
818.068	20515.5
818.321	20841.5
818.574	21018.5
818.827	21256.5
819.079	21653.5
819.332	21969.5
819.585	22244.5
819.838	22563.5
820.09	22661.5
820.343	22789.5
820.595	22898.5
820.848	23131.5
821.1	23186.5
821.353	23193.5
821.605	23142.5
821.857	23286.5
822.11	23053.5
822.362	23061.5
822.614	22974.5
822.866	23047.5
823.118	23012.5
823.37	23102.5
823.622	23397.5
823.874	23413.5
824.126	23431.5
824.378	23416.5
824.63	23664.5
824.882	23623.5
825.134	23536.5
825.385	23625.5
825.637	23479.5
825.888	23452.5
826.14	23298.5
826.392	23269.5
826.643	23147.5
826.895	23188.5
827.146	23015.5
827.397	22989.5
827.649	23084.5
827.9	22933.5
828.151	22992.5
828.402	23061.5
828.653	23245.5
828.905	23247.5
829.156	23300.5
829.407	23224.5
829.658	23271.5
829.909	23453.5
830.159	23460.5
830.41	23290.5
830.661	23183.5
830.912	23117.5
831.162	22982.5
831.413	23123.5
831.664	23049.5
831.914	22944.5
832.165	22975.5
832.415	22917.5
832.666	22974.5
832.916	23029.5
833.167	22993.5
833.417	23089.5
833.667	22866.5
833.917	22820.5
834.168	22833.5
834.418	22786.5
834.668	22689.5
834.918	22540.5
835.168	22619.5
835.418	22374.5
835.668	22416.5
835.918	22347.5
836.167	22272.5
836.417	22267.5
836.667	22381.5
836.917	22287.5
837.166	22203.5
837.416	22296.5
837.666	22206.5
837.915	22216.5
838.165	22151.5
838.414	22067.5
838.663	22085.5
838.913	22210.5
839.162	22044.5
839.411	22093.5
839.661	21983.5
839.91	21985.5
840.159	21950.5
840.408	22048.5
840.657	21965.5
840.906	21938.5
841.155	22024.5
841.404	22021.5
841.653	21988.5
841.902	22044.5
842.15	22170.5
842.399	22218.5
842.648	22178.5
842.897	22060.5
843.145	21931.5
843.394	21755.5
843.642	21671.5
843.891	21545.5
844.139	21496.5
844.388	21303.5
844.636	21232.5
844.884	21196.5
845.133	21157.5
845.381	21190.5
845.629	21196.5
845.877	21279.5
846.125	21310.5
846.373	21257.5
846.621	21073.5
846.869	21071.5
847.117	20908.5
847.365	20815.5
847.613	20825.5
847.861	20761.5
848.108	20752.5
848.356	20710.5
848.604	20720.5
848.851	20698.5
849.099	20827.5
849.346	20851.5
849.594	20938.5
849.841	21196.5
850.089	21128.5
850.336	21058.5
850.583	21159.5
850.831	21053.5
851.078	20975.5
851.325	21108.5
851.572	21149.5
851.819	20832.5
852.066	20400.5
852.313	20078.5
852.56	20065.5
852.807	19860.5
853.054	19744.5
853.301	19773.5
853.548	19795.5
853.794	20053.5
854.041	20159.5
854.288	20168.5
854.534	20329.5
854.781	20150.5
855.028	20237.5
855.274	20247.5
855.52	20189.5
855.767	20066.5
856.013	20060.5
856.26	20382.5
856.506	19827.5
856.752	19914.5
856.998	19929.5
857.244	19895.5
857.49	19990.5
857.736	20007.5
857.982	20033.5
858.228	20055.5
858.474	19894.5
858.72	19716.5
858.966	19476.5
859.212	19237.5
859.458	19116.5
859.703	18914.5
859.949	18687.5
860.195	18565.5
860.44	18597.5
860.686	18623.5
860.931	18521.5
861.177	18363.5
861.422	18286.5
861.667	18165.5
861.913	18159.5
862.158	18144.5
862.403	18271.5
862.648	18341.5
862.893	18301.5
863.138	18391.5
863.384	18149.5
863.629	18358.5
863.873	18334.5
864.118	18190.5
864.363	18145.5
864.608	18122.5
864.853	18089.5
865.098	17915.5
865.342	17901.5
865.587	17762.5
865.832	17868.5
866.076	17811.5
866.321	17753.5
866.565	17729.5
866.81	17551.5
867.054	17527.5
867.298	17427.5
867.543	17429.5
867.787	17522.5
868.031	17462.5
868.275	17475.5
868.519	17322.5
868.764	17367.5
869.008	17298.5
869.252	17397.5
869.496	17379.5
869.739	17328.5
869.983	17441.5
870.227	17579.5
870.471	17353.5
870.715	17517.5
870.958	17596.5
871.202	17569.5
871.446	17567.5
871.689	17718.5
871.933	17687.5
872.176	17600.5
872.42	17469.5
872.663	17507.5
872.906	17517.5
873.15	17484.5
873.393	17496.5
873.636	17539.5
873.879	17248.5
874.122	17137.5
874.366	16850.5
874.609	16748.5
874.852	16567.5
875.095	16418.5
875.337	16419.5
875.58	16250.5
875.823	16277.5
876.066	16282.5
876.309	16201.5
876.551	16036.5
876.794	16003.5
877.037	16092.5
877.279	15860.5
877.522	15925.5
877.764	15867.5
878.007	15838.5
878.249	15793.5
878.491	15721.5
878.734	15847.5
878.976	15719.5
879.218	15565.5
879.46	15463.5
879.702	15496.5
879.945	15321.5
880.187	15180.5
880.429	15164.5
880.671	15035.5
880.912	14949.5
881.154	14919.5
881.396	14848.5
881.638	14991.5
881.88	14876.5
882.121	14954.5
882.363	14795.5
882.605	14874.5
882.846	14863.5
883.088	14839.5
883.329	14948.5
883.571	14928.5
883.812	15212.5
884.053	15494.5
884.295	15857.5
884.536	16060.5
884.777	15994.5
885.018	15900.5
885.259	15771.5
885.5	15606.5
885.742	15847.5
885.982	15644.5
886.223	15380.5
886.464	15363.5
886.705	15099.5
886.946	14923.5
887.187	14559.5
887.428	14492.5
887.668	14228.5
887.909	13936.5
888.15	13807.5
888.39	13811.5
888.631	13648.5
888.871	13601.5
889.111	13448.5
889.352	13267.5
889.592	13158.5
889.833	13120.5
890.073	12976.5
890.313	13012.5
890.553	12790.5
890.793	12714.5
891.033	12721.5
891.273	12640.5
891.513	12734.5
891.753	12626.5
891.993	12635.5
892.233	12637.5
892.473	12747.5
892.713	12651.5
892.952	12667.5
893.192	12780.5
893.432	12700.5
893.671	12708.5
893.911	12709.5
894.15	12559.5
894.39	12409.5
894.629	12358.5
894.869	12372.5
895.108	12284.5
895.347	12277.5
895.587	12294.5
895.826	12176.5
896.065	12124.5
896.304	12230.5
896.543	12111.5
896.782	12003.5
897.021	12128.5
897.26	11976.5
897.499	12120.5
897.738	12067.5
897.977	11965.5
898.216	11787.5
898.454	11795.5
898.693	11740.5
898.932	11696.5
899.17	11603.5
899.409	11638.5
899.647	11507.5
899.886	11529.5
900.124	11615.5
900.363	11557.5
900.601	11652.5
900.839	11677.5
901.078	11756.5
901.316	11821.5
901.554	11865.5
901.792	11966.5
902.03	11977.5
902.268	11966.5
902.506	11991.5
902.744	11871.5
902.982	11834.5
903.22	11619.5
903.458	11360.5
903.695	11249.5
903.933	11101.5
904.171	10860.5
904.409	10615.5
904.646	10556.5
904.884	10333.5
905.121	10296.5
905.359	10160.5
905.596	10013.5
905.833	9894.5
906.071	9890.5
906.308	9886.5
906.545	9835.5
906.783	9792.5
907.02	9847.5
907.257	9722.5
907.494	9759.5
907.731	9778.5
907.968	9664.5
908.205	9562.5
908.442	9574.5
908.679	9503.5
908.915	9367.5
909.152	9371.5
909.389	9249.5
909.626	9159.5
909.862	9132.5
910.099	9073.5
910.335	9167.5
910.572	8929.5
910.808	8986.5
911.045	8973.5
911.281	8901.5
911.518	8966.5
911.754	8806.5
911.99	8834.5
912.226	8766.5
912.463	8673.5
912.699	8574.5
912.935	8520.5
913.171	8504.5
913.407	8395.5
913.643	8437.5
913.879	8237.5
914.114	8256.5
914.35	8125.5
914.586	8080.5
914.822	7952.5
915.057	7999.5
915.293	7831.5
915.529	7870.5
915.764	7945.5
916	7890.5
916.235	7815.5
916.471	7861.5
916.706	7729.5
916.941	7800.5
917.177	7778.5
917.412	7856.5
917.647	7837.5
917.882	7766.5
918.117	7764.5
918.352	7701.5
918.588	7711.5
918.823	7590.5
919.057	7527.5
919.292	7436.5
919.527	7414.5
919.762	7349.5
919.997	7289.5
920.232	7194.5
920.466	7176.5
920.701	6992.5
920.935	7074.5
921.17	6990.5
921.405	6950.5
921.639	6991.5
921.873	6924.5
922.108	6887.5
922.342	6859.5
922.576	6803.5
922.811	6834.5
923.045	6782.5
923.279	6825.5
923.513	6642.5
923.747	6677.5
923.981	6656.5
924.215	6590.5
924.449	6587.5
924.683	6483.5
924.917	6494.5
925.151	6443.5
925.385	6567.5
925.618	6442.5
925.852	6403.5
926.086	6345.5
926.319	6397.5
926.553	6401.5
926.786	6366.5
927.02	6390.5
927.253	6378.5
927.486	6393.5
927.72	6289.5
927.953	6359.5
928.186	6317.5
928.42	6339.5
928.653	6281.5
928.886	6211.5
929.119	6223.5
929.352	6185.5
929.585	6122.5
929.818	6103.5
930.051	6049.5
930.284	6022.5
930.516	5880.5
930.749	5878.5
930.982	5947.5
931.215	5895.5
931.447	5810.5
931.68	5823.5
931.912	5779.5
932.145	5779.5
932.377	5769.5
932.61	5943.5
932.842	5701.5
933.074	5719.5
933.307	5782.5
933.539	5792.5
933.771	5832.5
934.003	5743.5
934.236	5854.5
934.468	5856.5
934.7	5712.5
934.932	5789.5
935.164	5654.5
935.395	5668.5
935.627	5632.5
935.859	5675.5
936.091	5583.5
936.323	5628.5
936.554	5671.5
936.786	5616.5
937.017	5518.5
937.249	5560.5
937.481	5453.5
937.712	5519.5
937.943	5437.5
938.175	5503.5
938.406	5435.5
938.637	5520.5
938.869	5392.5
939.1	5443.5
939.331	5422.5
939.562	5392.5
939.793	5362.5
940.024	5397.5
940.255	5432.5
940.486	5300.5
940.717	5351.5
940.948	5246.5
941.179	5257.5
941.409	5207.5
941.64	5201.5
941.871	5211.5
942.102	5214.5
942.332	5233.5
942.563	5246.5
942.793	5216.5
943.024	5150.5
943.254	5204.5
943.484	5269.5
943.715	5235.5
943.945	5217.5
944.175	5167.5
944.405	5112.5
944.636	5116.5
944.866	5173.5
945.096	5124.5
945.326	5075.5
945.556	5112.5
945.786	5141.5
946.016	5026.5
946.245	4933.5
946.475	4944.5
946.705	4932.5
946.935	4959.5
947.164	4948.5
947.394	4865.5
947.624	4866.5
947.853	4889.5
948.083	4881.5
948.312	4833.5
948.542	4779.5
948.771	4739.5
949	4758.5
949.23	4763.5
949.459	4745.5
949.688	4790.5
949.917	4732.5
950.146	4753.5
950.375	4770.5
950.604	4710.5
950.833	4820.5
951.062	4735.5
951.291	4698.5
951.52	4641.5
951.749	4643.5
951.978	4609.5
952.206	4577.5
952.435	4576.5
952.664	4628.5
952.892	4646.5
953.121	4545.5
953.349	4596.5
953.578	4553.5
953.806	4527.5
954.035	4489.5
954.263	4536.5
954.491	4458.5
954.719	4472.5
954.948	4411.5
955.176	4342.5
955.404	4338.5
955.632	4354.5
955.86	4350.5
956.088	4317.5
956.316	4369.5
956.544	4342.5
956.772	4272.5
956.999	4215.5
957.227	4336.5
957.455	4188.5
957.683	4217.5
957.91	4106.5
958.138	4088.5
958.365	4110.5
958.593	4076.5
958.82	4091.5
959.048	4120.5
959.275	4058.5
959.502	4051.5
959.73	4051.5
959.957	4083.5
960.184	4078.5
960.411	3970.5
960.638	4080.5
960.865	3993.5
961.092	4046.5
961.319	3906.5
961.546	3997.5
961.773	3992.5
962	3975.5
962.227	4053.5
962.454	3949.5
962.68	3886.5
962.907	3930.5
963.134	3857.5
963.36	3887.5
963.587	3889.5
963.813	3826.5
964.04	3805.5
964.266	3748.5
964.493	3826.5
964.719	3779.5
964.945	3781.5
965.171	3683.5
965.398	3719.5
965.624	3742.5
965.85	3647.5
966.076	3596.5
966.302	3653.5
966.528	3592.5
966.754	3642.5
966.98	3608.5
967.206	3605.5
967.431	3545.5
967.657	3600.5
967.883	3578.5
968.109	3595.5
968.334	3492.5
968.56	3489.5
968.785	3508.5
969.011	3416.5
969.236	3501.5
969.462	3439.5
969.687	3478.5
969.912	3469.5
970.138	3490.5
970.363	3416.5
970.588	3431.5
970.813	3428.5
971.038	3390.5
971.263	3438.5
971.488	3396.5
971.713	3399.5
971.938	3369.5
972.163	3279.5
972.388	3328.5
972.613	3272.5
972.838	3293.5
973.062	3274.5
973.287	3253.5
973.512	3198.5
973.736	3220.5
973.961	3213.5
974.185	3157.5
974.41	3216.5
974.634	3116.5
974.858	3158.5
975.083	3116.5
975.307	3148.5
975.531	3100.5
975.755	3037.5
975.98	3035.5
976.204	2991.5
976.428	2962.5
976.652	2970.5
976.876	2937.5
977.1	2927.5
977.324	2954.5
977.547	2962.5
977.771	2957.5
977.995	2902.5
978.219	2880.5
978.442	2986.5
978.666	2900.5
978.89	2906.5
979.113	2896.5
979.337	2865.5
979.56	2806.5
979.783	2904.5
980.007	2818.5
980.23	2814.5
980.453	2801.5
980.677	2826.5
980.9	2772.5
981.123	2712.5
981.346	2783.5
981.569	2760.5
981.792	2776.5
982.015	2741.5
982.238	2670.5
982.461	2708.5
982.684	2684.5
982.907	2653.5
983.129	2593.5
983.352	2689.5
983.575	2647.5
983.797	2649.5
984.02	2591.5
984.242	2596.5
984.465	2585.5
984.687	2612.5
984.91	2631.5
985.132	2574.5
985.354	2597.5
985.577	2579.5
985.799	2543.5
986.021	2476.5
986.243	2460.5
986.465	2487.5
986.687	2538.5
986.909	2554.5
987.131	2493.5
987.353	2433.5
987.575	2527.5
987.797	2431.5
988.019	2410.5
988.241	2438.5
988.462	2378.5
988.684	2455.5
988.906	2477.5
989.127	2498.5
989.349	2353.5
989.57	2404.5
989.792	2413.5
990.013	2408.5
990.234	2453.5
990.456	2471.5
990.677	2435.5
990.898	2383.5
991.119	2372.5
991.341	2423.5
991.562	2310.5
991.783	2371.5
992.004	2275.5
992.225	2250.5
992.446	2290.5
992.667	2225.5
992.887	2283.5
993.108	2149.5
993.329	2316.5
993.55	2227.5
993.77	2191.5
993.991	2166.5
994.212	2219.5
994.432	2192.5
994.653	2191.5
994.873	2197.5
995.093	2050.5
995.314	2103.5
995.534	2180.5
995.754	2197.5
995.975	2192.5
996.195	2095.5
996.415	2157.5
996.635	2114.5
996.855	2135.5
997.075	2126.5
997.295	2100.5
997.515	2076.5
997.735	2130.5
997.955	2106.5
998.174	2075.5
998.394	2090.5
998.614	2104.5
998.834	2048.5
999.053	2138.5
999.273	2085.5
999.492	2111.5
999.712	2062.5
999.931	2049.5
1000.151	2094.5
1000.37	2051.5
1000.589	2075.5
1000.809	2007.5
1001.028	2099.5
1001.247	2048.5
1001.466	1930.5
1001.685	2074.5
1001.904	2003.5
1002.123	1964.5
1002.342	1978.5
1002.561	1904.5
1002.78	1951.5
1002.999	2019.5
1003.218	1930.5
1003.436	1890.5
1003.655	1968.5
1003.874	1904.5
1004.092	1920.5
1004.311	1944.5
1004.53	1925.5
1004.748	1979.5
1004.966	1898.5
1005.185	1956.5
1005.403	1934.5
1005.622	1912.5
1005.84	1974.5
1006.058	1881.5
1006.276	1896.5
1006.494	2394.5
1006.712	1904.5
1006.931	1962.5
1007.149	1890.5
1007.367	1882.5
1007.584	1922.5
1007.802	1960.5
1008.02	1892.5
1008.238	2023.5
1008.456	1990.5
1008.673	1911.5
1008.891	2023.5
1009.109	1974.5
1009.326	2042.5
1009.544	2143.5
1009.761	2077.5
1009.979	2196.5
1010.196	2240.5
1010.413	2355.5
1010.631	2430.5
1010.848	2505.5
1011.065	2546.5
1011.282	2467.5
1011.5	2423.5
1011.717	2534.5
1011.934	2467.5
1012.151	2501.5
1012.368	2443.5
1012.585	2405.5
1012.801	2455.5
1013.018	2437.5
1013.235	2414.5
1013.452	2423.5
1013.669	2472.5
1013.885	2449.5
1014.102	2467.5
1014.318	2470.5
1014.535	2432.5
1014.751	2453.5
1014.968	2428.5
1015.184	2426.5
1015.401	2387.5
1015.617	2430.5
1015.833	2323.5
1016.049	2273.5
1016.266	2294.5
1016.482	2286.5
1016.698	2179.5
1016.914	2230.5
1017.13	2178.5
1017.346	2152.5
1017.562	2245.5
1017.778	2151.5
1017.993	2162.5
1018.209	2186.5
1018.425	2185.5
1018.641	2140.5
1018.856	2091.5
1019.072	2170.5
1019.288	2206.5
1019.503	2121.5
1019.719	2066.5
1019.934	2034.5
1020.149	2117.5
1020.365	2049.5
1020.58	1980.5
1020.795	2027.5
1021.011	1933.5
1021.226	1892.5
1021.441	1876.5
1021.656	1779.5
1021.871	1723.5
1022.086	1700.5
1022.301	1671.5
1022.516	1656.5
1022.731	1710.5
1022.946	1598.5
1023.16	1581.5
1023.375	1526.5
1023.59	1511.5
1023.804	1461.5
1024.019	1578.5
1024.234	1396.5
1024.448	1438.5
1024.663	1322.5
1024.877	1342.5
1025.092	1363.5
1025.306	1349.5
1025.52	1219.5
1025.734	1340.5
1025.949	1202.5
1026.163	1165.5
1026.377	1120.5
1026.591	1152.5
1026.805	1080.5
1027.019	1057.5
1027.233	1045.5
1027.447	982.5
1027.661	1084.5
1027.875	992.5
1028.088	1016.5
1028.302	913.5
1028.516	915.5
1028.73	920.5
1028.943	873.5
1029.157	818.5
1029.37	771.5
1029.584	0.5
1029.797	-2.5
1030.011	-1.5
1030.224	-2.5
