Data from QEP037381__119__15-07-06-080.txt Node

Date: Wed Dec 21 15:07:06 EST 2022
User: dcclab
Spectrometer: QEP03738
Trigger mode: 4
Integration Time (sec): 1.000000E1
Scans to average: 1
Electric dark correction enabled: true
Nonlinearity correction enabled: false
Boxcar width: 0
XAxis mode: Wavelengths
Number of Pixels in Spectrum: 1044
>>>>>Begin Spectral Data<<<<<
784.041	13.75
784.3	1.75
784.558	-3.25
784.817	-3.25
785.075	93319.75
785.334	16048.75
785.592	7525.75
785.851	5274.75
786.109	3962.75
786.368	3051.75
786.626	2496.75
786.884	2018.75
787.143	1725.75
787.401	1387.75
787.659	1271.75
787.917	1083.75
788.175	1023.75
788.433	886.75
788.691	811.75
788.949	737.75
789.207	726.75
789.465	606.75
789.723	591.75
789.98	573.75
790.238	603.75
790.496	548.75
790.753	538.75
791.011	574.75
791.268	512.75
791.526	503.75
791.783	518.75
792.041	507.75
792.298	430.75
792.556	486.75
792.813	471.75
793.07	442.75
793.327	433.75
793.584	520.75
793.841	436.75
794.099	469.75
794.356	514.75
794.613	412.75
794.869	458.75
795.126	425.75
795.383	406.75
795.64	425.75
795.897	386.75
796.153	445.75
796.41	426.75
796.667	392.75
796.923	425.75
797.18	408.75
797.436	436.75
797.693	415.75
797.949	470.75
798.206	484.75
798.462	396.75
798.718	468.75
798.974	437.75
799.231	478.75
799.487	464.75
799.743	479.75
799.999	524.75
800.255	489.75
800.511	480.75
800.767	524.75
801.023	521.75
801.279	547.75
801.534	582.75
801.79	622.75
802.046	642.75
802.302	772.75
802.557	885.75
802.813	1072.75
803.068	1304.75
803.324	1752.75
803.579	2329.75
803.835	3208.75
804.09	4350.75
804.345	5586.75
804.601	7117.75
804.856	8650.75
805.111	10023.75
805.366	11124.75
805.621	11806.75
805.876	12461.75
806.131	12875.75
806.386	13143.75
806.641	13367.75
806.896	13579.75
807.151	13935.75
807.406	14108.75
807.661	14376.75
807.915	14679.75
808.17	14934.75
808.425	15082.75
808.679	15215.75
808.934	15490.75
809.188	15546.75
809.443	15806.75
809.697	15988.75
809.951	16095.75
810.206	16360.75
810.46	16476.75
810.714	16567.75
810.968	16820.75
811.223	16895.75
811.477	17094.75
811.731	17269.75
811.985	17281.75
812.239	17436.75
812.493	17484.75
812.747	17597.75
813	17630.75
813.254	17844.75
813.508	17850.75
813.762	17970.75
814.015	17992.75
814.269	18257.75
814.522	18426.75
814.776	18696.75
815.03	18917.75
815.283	19098.75
815.536	19514.75
815.79	19804.75
816.043	20283.75
816.296	20462.75
816.55	20677.75
816.803	21035.75
817.056	21335.75
817.309	21463.75
817.562	21778.75
817.815	22136.75
818.068	22152.75
818.321	22488.75
818.574	22657.75
818.827	22991.75
819.079	23180.75
819.332	23776.75
819.585	24140.75
819.838	24505.75
820.09	24538.75
820.343	24619.75
820.595	24826.75
820.848	24901.75
821.1	25274.75
821.353	25146.75
821.605	25131.75
821.857	25192.75
822.11	25088.75
822.362	25119.75
822.614	24948.75
822.866	25046.75
823.118	25130.75
823.37	25202.75
823.622	25347.75
823.874	25325.75
824.126	25514.75
824.378	25520.75
824.63	25599.75
824.882	25760.75
825.134	25687.75
825.385	25690.75
825.637	25453.75
825.888	25487.75
826.14	25630.75
826.392	25404.75
826.643	25276.75
826.895	25311.75
827.146	25216.75
827.397	25205.75
827.649	25267.75
827.9	25081.75
828.151	25219.75
828.402	25221.75
828.653	25488.75
828.905	25519.75
829.156	25511.75
829.407	25620.75
829.658	25661.75
829.909	25703.75
830.159	25724.75
830.41	25483.75
830.661	25345.75
830.912	25188.75
831.162	25207.75
831.413	25262.75
831.664	25348.75
831.914	25294.75
832.165	25180.75
832.415	25234.75
832.666	25282.75
832.916	25284.75
833.167	25285.75
833.417	25270.75
833.667	25235.75
833.917	25178.75
834.168	25161.75
834.418	25065.75
834.668	25015.75
834.918	24929.75
835.168	24828.75
835.418	24731.75
835.668	24638.75
835.918	24660.75
836.167	24554.75
836.417	24574.75
836.667	24473.75
836.917	24676.75
837.166	24574.75
837.416	24726.75
837.666	24669.75
837.915	24546.75
838.165	24425.75
838.414	24457.75
838.663	24445.75
838.913	24552.75
839.162	24461.75
839.411	24417.75
839.661	24387.75
839.91	24234.75
840.159	24342.75
840.408	24348.75
840.657	24436.75
840.906	24460.75
841.155	24446.75
841.404	24514.75
841.653	24498.75
841.902	24573.75
842.15	24649.75
842.399	24661.75
842.648	24584.75
842.897	24552.75
843.145	24296.75
843.394	24169.75
843.642	24053.75
843.891	23963.75
844.139	23849.75
844.388	23775.75
844.636	23744.75
844.884	23691.75
845.133	23682.75
845.381	23588.75
845.629	23699.75
845.877	23699.75
846.125	23605.75
846.373	23639.75
846.621	23474.75
846.869	23572.75
847.117	23345.75
847.365	23225.75
847.613	23203.75
847.861	23099.75
848.108	23227.75
848.356	23209.75
848.604	23033.75
848.851	23094.75
849.099	23259.75
849.346	23263.75
849.594	23416.75
849.841	23499.75
850.089	23562.75
850.336	23697.75
850.583	23695.75
850.831	23610.75
851.078	23413.75
851.325	23495.75
851.572	23547.75
851.819	23311.75
852.066	22820.75
852.313	22538.75
852.56	22422.75
852.807	22306.75
853.054	22202.75
853.301	22329.75
853.548	22388.75
853.794	22472.75
854.041	22653.75
854.288	22562.75
854.534	23022.75
854.781	22838.75
855.028	22863.75
855.274	22909.75
855.52	22662.75
855.767	22516.75
856.013	22655.75
856.26	22915.75
856.506	22382.75
856.752	22410.75
856.998	22445.75
857.244	22515.75
857.49	22701.75
857.736	22632.75
857.982	22681.75
858.228	22643.75
858.474	22471.75
858.72	22255.75
858.966	22102.75
859.212	21890.75
859.458	21713.75
859.703	21414.75
859.949	21258.75
860.195	21135.75
860.44	21074.75
860.686	21050.75
860.931	20992.75
861.177	20908.75
861.422	20877.75
861.667	20743.75
861.913	20765.75
862.158	20823.75
862.403	20895.75
862.648	20871.75
862.893	21068.75
863.138	20892.75
863.384	20972.75
863.629	20890.75
863.873	20815.75
864.118	20832.75
864.363	20714.75
864.608	20745.75
864.853	20575.75
865.098	20555.75
865.342	20587.75
865.587	20479.75
865.832	20589.75
866.076	20443.75
866.321	20388.75
866.565	20288.75
866.81	20185.75
867.054	20247.75
867.298	20156.75
867.543	20119.75
867.787	20138.75
868.031	20063.75
868.275	20040.75
868.519	19991.75
868.764	19904.75
869.008	19973.75
869.252	19934.75
869.496	19851.75
869.739	19824.75
869.983	19993.75
870.227	19948.75
870.471	19945.75
870.715	20032.75
870.958	20200.75
871.202	20106.75
871.446	20230.75
871.689	20113.75
871.933	20173.75
872.176	20188.75
872.42	20112.75
872.663	20084.75
872.906	20134.75
873.15	20072.75
873.393	20055.75
873.636	20038.75
873.879	19811.75
874.122	19694.75
874.366	19361.75
874.609	19332.75
874.852	19113.75
875.095	19069.75
875.337	18917.75
875.58	18805.75
875.823	18759.75
876.066	18746.75
876.309	18659.75
876.551	18532.75
876.794	18487.75
877.037	18512.75
877.279	18438.75
877.522	18378.75
877.764	18473.75
878.007	18340.75
878.249	18310.75
878.491	18237.75
878.734	18327.75
878.976	18224.75
879.218	18214.75
879.46	18111.75
879.702	18038.75
879.945	17819.75
880.187	17697.75
880.429	17591.75
880.671	17538.75
880.912	17466.75
881.154	17406.75
881.396	17397.75
881.638	17416.75
881.88	17366.75
882.121	17281.75
882.363	17353.75
882.605	17393.75
882.846	17288.75
883.088	17339.75
883.329	17306.75
883.571	17466.75
883.812	17661.75
884.053	17932.75
884.295	18384.75
884.536	18563.75
884.777	18461.75
885.018	18232.75
885.259	18195.75
885.5	18099.75
885.742	18306.75
885.982	18099.75
886.223	17892.75
886.464	17675.75
886.705	17515.75
886.946	17440.75
887.187	17048.75
887.428	16962.75
887.668	16719.75
887.909	16486.75
888.15	16263.75
888.39	16252.75
888.631	16164.75
888.871	15915.75
889.111	15916.75
889.352	15784.75
889.592	15638.75
889.833	15418.75
890.073	15366.75
890.313	15346.75
890.553	15187.75
890.793	15133.75
891.033	15110.75
891.273	15011.75
891.513	14973.75
891.753	15042.75
891.993	14944.75
892.233	15018.75
892.473	15041.75
892.713	15086.75
892.952	14999.75
893.192	15037.75
893.432	14968.75
893.671	15049.75
893.911	14968.75
894.15	14759.75
894.39	14647.75
894.629	14697.75
894.869	14678.75
895.108	14513.75
895.347	14529.75
895.587	14563.75
895.826	14453.75
896.065	14347.75
896.304	14423.75
896.543	14310.75
896.782	14260.75
897.021	14256.75
897.26	14307.75
897.499	14255.75
897.738	14254.75
897.977	14182.75
898.216	13946.75
898.454	13838.75
898.693	13797.75
898.932	13808.75
899.17	13683.75
899.409	13618.75
899.647	13647.75
899.886	13674.75
900.124	13774.75
900.363	13640.75
900.601	13671.75
900.839	13709.75
901.078	13786.75
901.316	13815.75
901.554	13898.75
901.792	13945.75
902.03	13971.75
902.268	13962.75
902.506	13984.75
902.744	13831.75
902.982	13778.75
903.22	13507.75
903.458	13446.75
903.695	13197.75
903.933	13052.75
904.171	12734.75
904.409	12629.75
904.646	12420.75
904.884	12373.75
905.121	12246.75
905.359	12004.75
905.596	11939.75
905.833	11864.75
906.071	11746.75
906.308	11779.75
906.545	11726.75
906.783	11702.75
907.02	11654.75
907.257	11599.75
907.494	11681.75
907.731	11584.75
907.968	11615.75
908.205	11475.75
908.442	11450.75
908.679	11366.75
908.915	11242.75
909.152	11179.75
909.389	10945.75
909.626	10958.75
909.862	10964.75
910.099	10886.75
910.335	10884.75
910.572	10755.75
910.808	10864.75
911.045	10755.75
911.281	10645.75
911.518	10680.75
911.754	10593.75
911.99	10519.75
912.226	10474.75
912.463	10435.75
912.699	10361.75
912.935	10249.75
913.171	10203.75
913.407	10115.75
913.643	10090.75
913.879	9989.75
914.114	9900.75
914.35	9749.75
914.586	9687.75
914.822	9654.75
915.057	9648.75
915.293	9504.75
915.529	9446.75
915.764	9482.75
916	9496.75
916.235	9435.75
916.471	9448.75
916.706	9322.75
916.941	9393.75
917.177	9319.75
917.412	9407.75
917.647	9348.75
917.882	9312.75
918.117	9316.75
918.352	9249.75
918.588	9335.75
918.823	9102.75
919.057	9109.75
919.292	8907.75
919.527	8955.75
919.762	8873.75
919.997	8837.75
920.232	8587.75
920.466	8670.75
920.701	8555.75
920.935	8504.75
921.17	8417.75
921.405	8434.75
921.639	8426.75
921.873	8344.75
922.108	8364.75
922.342	8328.75
922.576	8214.75
922.811	8214.75
923.045	8242.75
923.279	8253.75
923.513	8032.75
923.747	8082.75
923.981	8096.75
924.215	8000.75
924.449	7968.75
924.683	7860.75
924.917	7879.75
925.151	7846.75
925.385	7870.75
925.618	7784.75
925.852	7740.75
926.086	7690.75
926.319	7741.75
926.553	7681.75
926.786	7737.75
927.02	7734.75
927.253	7734.75
927.486	7667.75
927.72	7639.75
927.953	7670.75
928.186	7622.75
928.42	7602.75
928.653	7577.75
928.886	7534.75
929.119	7585.75
929.352	7477.75
929.585	7418.75
929.818	7419.75
930.051	7357.75
930.284	7276.75
930.516	7135.75
930.749	7135.75
930.982	7151.75
931.215	7113.75
931.447	7068.75
931.68	7075.75
931.912	7003.75
932.145	6991.75
932.377	7036.75
932.61	7175.75
932.842	6961.75
933.074	6988.75
933.307	6952.75
933.539	7037.75
933.771	7034.75
934.003	6961.75
934.236	7025.75
934.468	7062.75
934.7	6894.75
934.932	6905.75
935.164	6876.75
935.395	6803.75
935.627	6904.75
935.859	6815.75
936.091	6802.75
936.323	6824.75
936.554	6791.75
936.786	6759.75
937.017	6732.75
937.249	6719.75
937.481	6640.75
937.712	6694.75
937.943	6710.75
938.175	6569.75
938.406	6642.75
938.637	6689.75
938.869	6590.75
939.1	6595.75
939.331	6495.75
939.562	6564.75
939.793	6515.75
940.024	6546.75
940.255	6507.75
940.486	6438.75
940.717	6428.75
940.948	6421.75
941.179	6326.75
941.409	6353.75
941.64	6340.75
941.871	6353.75
942.102	6275.75
942.332	6344.75
942.563	6342.75
942.793	6352.75
943.024	6269.75
943.254	6330.75
943.484	6296.75
943.715	6313.75
943.945	6224.75
944.175	6266.75
944.405	6220.75
944.636	6225.75
944.866	6206.75
945.096	6273.75
945.326	6235.75
945.556	6176.75
945.786	6174.75
946.016	6150.75
946.245	6103.75
946.475	6042.75
946.705	6008.75
946.935	6008.75
947.164	6015.75
947.394	5902.75
947.624	5946.75
947.853	5959.75
948.083	5924.75
948.312	5791.75
948.542	5805.75
948.771	5705.75
949	5735.75
949.23	5738.75
949.459	5750.75
949.688	5777.75
949.917	5766.75
950.146	5775.75
950.375	5763.75
950.604	5663.75
950.833	5729.75
951.062	5747.75
951.291	5656.75
951.52	5667.75
951.749	5654.75
951.978	5618.75
952.206	5602.75
952.435	5584.75
952.664	5561.75
952.892	5524.75
953.121	5517.75
953.349	5550.75
953.578	5566.75
953.806	5461.75
954.035	5428.75
954.263	5436.75
954.491	5354.75
954.719	5406.75
954.948	5363.75
955.176	5349.75
955.404	5265.75
955.632	5324.75
955.86	5299.75
956.088	5221.75
956.316	5232.75
956.544	5233.75
956.772	5196.75
956.999	5097.75
957.227	5223.75
957.455	5134.75
957.683	5029.75
957.91	5067.75
958.138	4978.75
958.365	4980.75
958.593	4910.75
958.82	4899.75
959.048	4966.75
959.275	4912.75
959.502	4878.75
959.73	4902.75
959.957	4898.75
960.184	4915.75
960.411	4839.75
960.638	4895.75
960.865	4851.75
961.092	4896.75
961.319	4764.75
961.546	4883.75
961.773	4885.75
962	4846.75
962.227	4880.75
962.454	4787.75
962.68	4739.75
962.907	4740.75
963.134	4733.75
963.36	4714.75
963.587	4743.75
963.813	4628.75
964.04	4651.75
964.266	4603.75
964.493	4612.75
964.719	4576.75
964.945	4507.75
965.171	4459.75
965.398	4502.75
965.624	4498.75
965.85	4407.75
966.076	4359.75
966.302	4450.75
966.528	4384.75
966.754	4373.75
966.98	4364.75
967.206	4363.75
967.431	4294.75
967.657	4341.75
967.883	4325.75
968.109	4310.75
968.334	4224.75
968.56	4226.75
968.785	4218.75
969.011	4194.75
969.236	4219.75
969.462	4129.75
969.687	4165.75
969.912	4210.75
970.138	4238.75
970.363	4124.75
970.588	4163.75
970.813	4121.75
971.038	4066.75
971.263	4102.75
971.488	4044.75
971.713	4096.75
971.938	4088.75
972.163	3955.75
972.388	3955.75
972.613	3949.75
972.838	3935.75
973.062	3940.75
973.287	3913.75
973.512	3842.75
973.736	3918.75
973.961	3843.75
974.185	3758.75
974.41	3841.75
974.634	3758.75
974.858	3784.75
975.083	3760.75
975.307	3791.75
975.531	3712.75
975.755	3604.75
975.98	3652.75
976.204	3577.75
976.428	3576.75
976.652	3554.75
976.876	3538.75
977.1	3566.75
977.324	3515.75
977.547	3559.75
977.771	3579.75
977.995	3486.75
978.219	3441.75
978.442	3543.75
978.666	3514.75
978.89	3498.75
979.113	3446.75
979.337	3441.75
979.56	3377.75
979.783	3481.75
980.007	3403.75
980.23	3360.75
980.453	3386.75
980.677	3380.75
980.9	3390.75
981.123	3248.75
981.346	3358.75
981.569	3348.75
981.792	3324.75
982.015	3276.75
982.238	3234.75
982.461	3220.75
982.684	3207.75
982.907	3166.75
983.129	3149.75
983.352	3194.75
983.575	3156.75
983.797	3130.75
984.02	3075.75
984.242	3087.75
984.465	3054.75
984.687	3114.75
984.91	3123.75
985.132	3074.75
985.354	3097.75
985.577	3039.75
985.799	3009.75
986.021	2918.75
986.243	2936.75
986.465	2950.75
986.687	2998.75
986.909	3035.75
987.131	2939.75
987.353	2901.75
987.575	2952.75
987.797	2900.75
988.019	2840.75
988.241	2840.75
988.462	2848.75
988.684	2901.75
988.906	2928.75
989.127	2945.75
989.349	2828.75
989.57	2858.75
989.792	2869.75
990.013	2885.75
990.234	2869.75
990.456	2879.75
990.677	2843.75
990.898	2802.75
991.119	2770.75
991.341	2829.75
991.562	2745.75
991.783	2717.75
992.004	2707.75
992.225	2649.75
992.446	2709.75
992.667	2571.75
992.887	2693.75
993.108	2574.75
993.329	2699.75
993.55	2637.75
993.77	2538.75
993.991	2556.75
994.212	2590.75
994.432	2583.75
994.653	2586.75
994.873	2572.75
995.093	2443.75
995.314	2479.75
995.534	2526.75
995.754	2542.75
995.975	2557.75
996.195	2444.75
996.415	2496.75
996.635	2477.75
996.855	2502.75
997.075	2440.75
997.295	2436.75
997.515	2451.75
997.735	2448.75
997.955	2424.75
998.174	2428.75
998.394	2394.75
998.614	2406.75
998.834	2381.75
999.053	2492.75
999.273	2401.75
999.492	2448.75
999.712	2383.75
999.931	2357.75
1000.151	2400.75
1000.37	2340.75
1000.589	2357.75
1000.809	2326.75
1001.028	2409.75
1001.247	2352.75
1001.466	2224.75
1001.685	2361.75
1001.904	2277.75
1002.123	2274.75
1002.342	2263.75
1002.561	2216.75
1002.78	2235.75
1002.999	2271.75
1003.218	2217.75
1003.436	2180.75
1003.655	2219.75
1003.874	2177.75
1004.092	2163.75
1004.311	2256.75
1004.53	2164.75
1004.748	2234.75
1004.966	2150.75
1005.185	2223.75
1005.403	2214.75
1005.622	2158.75
1005.84	2240.75
1006.058	2126.75
1006.276	2148.75
1006.494	2625.75
1006.712	2118.75
1006.931	2220.75
1007.149	2105.75
1007.367	2157.75
1007.584	2149.75
1007.802	2194.75
1008.02	2144.75
1008.238	2252.75
1008.456	2219.75
1008.673	2146.75
1008.891	2219.75
1009.109	2216.75
1009.326	2249.75
1009.544	2314.75
1009.761	2282.75
1009.979	2398.75
1010.196	2447.75
1010.413	2537.75
1010.631	2627.75
1010.848	2698.75
1011.065	2680.75
1011.282	2660.75
1011.5	2574.75
1011.717	2711.75
1011.934	2604.75
1012.151	2660.75
1012.368	2615.75
1012.585	2541.75
1012.801	2612.75
1013.018	2582.75
1013.235	2560.75
1013.452	2581.75
1013.669	2553.75
1013.885	2526.75
1014.102	2604.75
1014.318	2535.75
1014.535	2514.75
1014.751	2578.75
1014.968	2505.75
1015.184	2582.75
1015.401	2425.75
1015.617	2475.75
1015.833	2392.75
1016.049	2400.75
1016.266	2364.75
1016.482	2380.75
1016.698	2300.75
1016.914	2311.75
1017.13	2281.75
1017.346	2263.75
1017.562	2296.75
1017.778	2256.75
1017.993	2196.75
1018.209	2293.75
1018.425	2225.75
1018.641	2198.75
1018.856	2194.75
1019.072	2188.75
1019.288	2260.75
1019.503	2196.75
1019.719	2128.75
1019.934	2138.75
1020.149	2176.75
1020.365	2107.75
1020.58	2014.75
1020.795	2083.75
1021.011	1983.75
1021.226	1934.75
1021.441	1968.75
1021.656	1837.75
1021.871	1805.75
1022.086	1783.75
1022.301	1719.75
1022.516	1731.75
1022.731	1760.75
1022.946	1685.75
1023.16	1648.75
1023.375	1639.75
1023.59	1582.75
1023.804	1550.75
1024.019	1636.75
1024.234	1487.75
1024.448	1518.75
1024.663	1416.75
1024.877	1400.75
1025.092	1429.75
1025.306	1393.75
1025.52	1300.75
1025.734	1379.75
1025.949	1305.75
1026.163	1237.75
1026.377	1195.75
1026.591	1231.75
1026.805	1143.75
1027.019	1136.75
1027.233	1075.75
1027.447	1036.75
1027.661	1132.75
1027.875	1057.75
1028.088	1053.75
1028.302	975.75
1028.516	958.75
1028.73	956.75
1028.943	931.75
1029.157	862.75
1029.37	804.75
1029.584	-3.25
1029.797	-1.25
1030.011	-1.25
1030.224	-3.25
