Data from QEP037381__112__15-05-56-079.txt Node

Date: Wed Dec 21 15:05:56 EST 2022
User: dcclab
Spectrometer: QEP03738
Trigger mode: 4
Integration Time (sec): 1.000000E1
Scans to average: 1
Electric dark correction enabled: true
Nonlinearity correction enabled: false
Boxcar width: 0
XAxis mode: Wavelengths
Number of Pixels in Spectrum: 1044
>>>>>Begin Spectral Data<<<<<
784.041	13
784.3	0
784.558	-4
784.817	-1
785.075	84321
785.334	15237
785.592	7430
785.851	5196
786.109	3882
786.368	3063
786.626	2460
786.884	2090
787.143	1730
787.401	1383
787.659	1295
787.917	1090
788.175	1003
788.433	888
788.691	819
788.949	764
789.207	730
789.465	650
789.723	598
789.98	549
790.238	582
790.496	559
790.753	528
791.011	572
791.268	519
791.526	508
791.783	531
792.041	507
792.298	426
792.556	493
792.813	455
793.07	434
793.327	430
793.584	511
793.841	438
794.099	448
794.356	513
794.613	419
794.869	442
795.126	430
795.383	404
795.64	405
795.897	367
796.153	436
796.41	426
796.667	401
796.923	402
797.18	398
797.436	433
797.693	391
797.949	446
798.206	481
798.462	389
798.718	438
798.974	425
799.231	459
799.487	433
799.743	455
799.999	478
800.255	467
800.511	456
800.767	490
801.023	478
801.279	499
801.534	518
801.79	571
802.046	570
802.302	692
802.557	734
802.813	887
803.068	1068
803.324	1462
803.579	1917
803.835	2618
804.09	3569
804.345	4626
804.601	5733
804.856	6944
805.111	7988
805.366	8893
805.621	9472
805.876	9887
806.131	10168
806.386	10375
806.641	10567
806.896	10676
807.151	11006
807.406	11079
807.661	11356
807.915	11566
808.17	11690
808.425	11901
808.679	11956
808.934	12183
809.188	12281
809.443	12445
809.697	12543
809.951	12634
810.206	12763
810.46	12876
810.714	13036
810.968	13103
811.223	13291
811.477	13375
811.731	13545
811.985	13481
812.239	13462
812.493	13601
812.747	13651
813	13718
813.254	13799
813.508	13918
813.762	14006
814.015	13958
814.269	14199
814.522	14237
814.776	14358
815.03	14680
815.283	14838
815.536	15102
815.79	15337
816.043	15564
816.296	15726
816.55	15899
816.803	16140
817.056	16417
817.309	16478
817.562	16744
817.815	16956
818.068	17055
818.321	17213
818.574	17335
818.827	17593
819.079	17901
819.332	18300
819.585	18365
819.838	18784
820.09	18810
820.343	18923
820.595	18968
820.848	19151
821.1	19297
821.353	19270
821.605	19135
821.857	19220
822.11	19039
822.362	18956
822.614	18997
822.866	19032
823.118	18998
823.37	19106
823.622	19334
823.874	19280
824.126	19345
824.378	19315
824.63	19457
824.882	19500
825.134	19465
825.385	19359
825.637	19396
825.888	19407
826.14	19255
826.392	19066
826.643	19166
826.895	19109
827.146	19054
827.397	18914
827.649	19063
827.9	18932
828.151	18940
828.402	19025
828.653	19120
828.905	19103
829.156	19105
829.407	19180
829.658	19366
829.909	19426
830.159	19507
830.41	19314
830.661	19178
830.912	19039
831.162	19051
831.413	19077
831.664	18996
831.914	19024
832.165	18899
832.415	18935
832.666	18926
832.916	18973
833.167	19007
833.417	19019
833.667	18883
833.917	18899
834.168	18845
834.418	18830
834.668	18756
834.918	18602
835.168	18589
835.418	18480
835.668	18519
835.918	18434
836.167	18403
836.417	18369
836.667	18387
836.917	18388
837.166	18361
837.416	18444
837.666	18435
837.915	18418
838.165	18320
838.414	18328
838.663	18296
838.913	18303
839.162	18322
839.411	18359
839.661	18235
839.91	18256
840.159	18210
840.408	18244
840.657	18249
840.906	18227
841.155	18292
841.404	18178
841.653	18319
841.902	18217
842.15	18378
842.399	18467
842.648	18373
842.897	18305
843.145	18161
843.394	18008
843.642	18000
843.891	17888
844.139	17795
844.388	17573
844.636	17543
844.884	17585
845.133	17573
845.381	17521
845.629	17661
845.877	17650
846.125	17639
846.373	17534
846.621	17496
846.869	17533
847.117	17367
847.365	17305
847.613	17197
847.861	17140
848.108	17211
848.356	17230
848.604	17166
848.851	17216
849.099	17186
849.346	17209
849.594	17329
849.841	17446
850.089	17397
850.336	17539
850.583	17566
850.831	17493
851.078	17480
851.325	17518
851.572	17647
851.819	17501
852.066	17066
852.313	16650
852.56	16583
852.807	16379
853.054	16356
853.301	16425
853.548	16492
853.794	16663
854.041	16646
854.288	16736
854.534	16956
854.781	16943
855.028	16692
855.274	16776
855.52	16728
855.767	16746
856.013	16729
856.26	17125
856.506	16647
856.752	16559
856.998	16502
857.244	16594
857.49	16761
857.736	16701
857.982	16711
858.228	16630
858.474	16464
858.72	16296
858.966	16131
859.212	16032
859.458	15938
859.703	15653
859.949	15478
860.195	15428
860.44	15370
860.686	15357
860.931	15392
861.177	15221
861.422	15155
861.667	15120
861.913	15012
862.158	15023
862.403	15052
862.648	15086
862.893	15230
863.138	15142
863.384	15053
863.629	15046
863.873	15020
864.118	15022
864.363	14967
864.608	14963
864.853	14893
865.098	14687
865.342	14744
865.587	14634
865.832	14633
866.076	14758
866.321	14683
866.565	14646
866.81	14490
867.054	14481
867.298	14477
867.543	14407
867.787	14392
868.031	14378
868.275	14409
868.519	14433
868.764	14414
869.008	14357
869.252	14433
869.496	14358
869.739	14391
869.983	14384
870.227	14463
870.471	14437
870.715	14565
870.958	14686
871.202	14658
871.446	14720
871.689	14654
871.933	14667
872.176	14629
872.42	14556
872.663	14585
872.906	14703
873.15	14594
873.393	14589
873.636	14664
873.879	14472
874.122	14318
874.366	14049
874.609	13877
874.852	13768
875.095	13669
875.337	13535
875.58	13495
875.823	13515
876.066	13482
876.309	13457
876.551	13311
876.794	13258
877.037	13225
877.279	13161
877.522	13159
877.764	13203
878.007	13039
878.249	13055
878.491	12964
878.734	13001
878.976	12950
879.218	12823
879.46	12821
879.702	12717
879.945	12586
880.187	12581
880.429	12454
880.671	12332
880.912	12318
881.154	12328
881.396	12160
881.638	12284
881.88	12262
882.121	12232
882.363	12192
882.605	12308
882.846	12241
883.088	12336
883.329	12353
883.571	12441
883.812	12734
884.053	13063
884.295	13504
884.536	13719
884.777	13577
885.018	13562
885.259	13468
885.5	13286
885.742	13483
885.982	13230
886.223	12968
886.464	12832
886.705	12634
886.946	12467
887.187	12202
887.428	11997
887.668	11757
887.909	11543
888.15	11421
888.39	11347
888.631	11323
888.871	11137
889.111	11092
889.352	10968
889.592	10833
889.833	10764
890.073	10651
890.313	10688
890.553	10480
890.793	10546
891.033	10353
891.273	10291
891.513	10334
891.753	10380
891.993	10368
892.233	10350
892.473	10477
892.713	10313
892.952	10328
893.192	10368
893.432	10419
893.671	10445
893.911	10349
894.15	10248
894.39	10148
894.629	10129
894.869	10114
895.108	10124
895.347	10014
895.587	10010
895.826	9970
896.065	9905
896.304	9990
896.543	9960
896.782	9844
897.021	9942
897.26	9874
897.499	9963
897.738	9813
897.977	9780
898.216	9782
898.454	9665
898.693	9549
898.932	9604
899.17	9570
899.409	9446
899.647	9502
899.886	9492
900.124	9588
900.363	9539
900.601	9597
900.839	9734
901.078	9851
901.316	9847
901.554	9985
901.792	10054
902.03	10129
902.268	10097
902.506	10131
902.744	9916
902.982	9902
903.22	9718
903.458	9505
903.695	9331
903.933	9222
904.171	8957
904.409	8751
904.646	8700
904.884	8553
905.121	8490
905.359	8368
905.596	8284
905.833	8138
906.071	8155
906.308	8124
906.545	8130
906.783	8042
907.02	8031
907.257	8044
907.494	7992
907.731	7975
907.968	7968
908.205	7887
908.442	7794
908.679	7780
908.915	7760
909.152	7722
909.389	7531
909.626	7503
909.862	7476
910.099	7443
910.335	7423
910.572	7303
910.808	7309
911.045	7288
911.281	7301
911.518	7302
911.754	7213
911.99	7176
912.226	7144
912.463	7092
912.699	7017
912.935	6959
913.171	6939
913.407	6852
913.643	6797
913.879	6781
914.114	6737
914.35	6700
914.586	6554
914.822	6540
915.057	6646
915.293	6415
915.529	6363
915.764	6442
916	6446
916.235	6407
916.471	6478
916.706	6361
916.941	6374
917.177	6349
917.412	6438
917.647	6353
917.882	6291
918.117	6354
918.352	6303
918.588	6355
918.823	6256
919.057	6208
919.292	5982
919.527	6135
919.762	5981
919.997	6046
920.232	5863
920.466	5896
920.701	5760
920.935	5815
921.17	5748
921.405	5682
921.639	5742
921.873	5677
922.108	5688
922.342	5668
922.576	5602
922.811	5519
923.045	5612
923.279	5628
923.513	5421
923.747	5522
923.981	5432
924.215	5394
924.449	5430
924.683	5341
924.917	5316
925.151	5273
925.385	5309
925.618	5322
925.852	5306
926.086	5240
926.319	5261
926.553	5269
926.786	5241
927.02	5251
927.253	5275
927.486	5247
927.72	5218
927.953	5245
928.186	5183
928.42	5162
928.653	5130
928.886	5069
929.119	5142
929.352	5051
929.585	5045
929.818	4951
930.051	5044
930.284	4985
930.516	4862
930.749	4877
930.982	4872
931.215	4878
931.447	4768
931.68	4780
931.912	4747
932.145	4797
932.377	4788
932.61	4953
932.842	4699
933.074	4783
933.307	4716
933.539	4802
933.771	4842
934.003	4759
934.236	4787
934.468	4844
934.7	4705
934.932	4754
935.164	4695
935.395	4658
935.627	4696
935.859	4688
936.091	4656
936.323	4658
936.554	4740
936.786	4613
937.017	4523
937.249	4573
937.481	4492
937.712	4582
937.943	4541
938.175	4553
938.406	4518
938.637	4582
938.869	4456
939.1	4533
939.331	4505
939.562	4472
939.793	4476
940.024	4461
940.255	4468
940.486	4395
940.717	4349
940.948	4403
941.179	4327
941.409	4357
941.64	4354
941.871	4350
942.102	4330
942.332	4329
942.563	4361
942.793	4370
943.024	4274
943.254	4320
943.484	4358
943.715	4388
943.945	4323
944.175	4262
944.405	4254
944.636	4218
944.866	4306
945.096	4272
945.326	4231
945.556	4278
945.786	4246
946.016	4193
946.245	4152
946.475	4122
946.705	4121
946.935	4110
947.164	4103
947.394	4039
947.624	4039
947.853	4089
948.083	4054
948.312	3951
948.542	3926
948.771	3928
949	3940
949.23	3939
949.459	3906
949.688	3992
949.917	3950
950.146	3949
950.375	3981
950.604	3872
950.833	3932
951.062	3926
951.291	3886
951.52	3857
951.749	3891
951.978	3790
952.206	3815
952.435	3838
952.664	3854
952.892	3837
953.121	3792
953.349	3833
953.578	3830
953.806	3812
954.035	3691
954.263	3753
954.491	3709
954.719	3694
954.948	3671
955.176	3664
955.404	3570
955.632	3627
955.86	3641
956.088	3614
956.316	3645
956.544	3640
956.772	3533
956.999	3544
957.227	3590
957.455	3508
957.683	3490
957.91	3435
958.138	3424
958.365	3455
958.593	3430
958.82	3388
959.048	3425
959.275	3399
959.502	3342
959.73	3381
959.957	3325
960.184	3403
960.411	3319
960.638	3412
960.865	3325
961.092	3363
961.319	3265
961.546	3347
961.773	3361
962	3331
962.227	3360
962.454	3319
962.68	3294
962.907	3319
963.134	3262
963.36	3273
963.587	3276
963.813	3182
964.04	3236
964.266	3118
964.493	3222
964.719	3150
964.945	3222
965.171	3073
965.398	3173
965.624	3128
965.85	3069
966.076	3061
966.302	3087
966.528	3025
966.754	3047
966.98	3058
967.206	2998
967.431	2968
967.657	3026
967.883	3045
968.109	3003
968.334	2945
968.56	2911
968.785	2938
969.011	2909
969.236	2949
969.462	2894
969.687	2900
969.912	2950
970.138	2937
970.363	2857
970.588	2904
970.813	2841
971.038	2837
971.263	2856
971.488	2843
971.713	2915
971.938	2900
972.163	2733
972.388	2792
972.613	2740
972.838	2791
973.062	2729
973.287	2746
973.512	2656
973.736	2702
973.961	2714
974.185	2673
974.41	2719
974.634	2603
974.858	2591
975.083	2638
975.307	2681
975.531	2582
975.755	2552
975.98	2556
976.204	2488
976.428	2492
976.652	2485
976.876	2462
977.1	2484
977.324	2469
977.547	2476
977.771	2542
977.995	2484
978.219	2412
978.442	2512
978.666	2474
978.89	2454
979.113	2429
979.337	2454
979.56	2382
979.783	2447
980.007	2344
980.23	2395
980.453	2348
980.677	2390
980.9	2345
981.123	2274
981.346	2423
981.569	2355
981.792	2366
982.015	2307
982.238	2308
982.461	2332
982.684	2282
982.907	2237
983.129	2259
983.352	2290
983.575	2269
983.797	2241
984.02	2190
984.242	2212
984.465	2198
984.687	2257
984.91	2244
985.132	2227
985.354	2230
985.577	2203
985.799	2184
986.021	2122
986.243	2121
986.465	2120
986.687	2176
986.909	2193
987.131	2141
987.353	2099
987.575	2150
987.797	2112
988.019	2043
988.241	2101
988.462	2047
988.684	2097
988.906	2107
989.127	2152
989.349	2025
989.57	2065
989.792	2106
990.013	2090
990.234	2072
990.456	2144
990.677	2109
990.898	2026
991.119	2058
991.341	2047
991.562	1999
991.783	2022
992.004	1987
992.225	1984
992.446	1990
992.667	1901
992.887	1979
993.108	1882
993.329	2029
993.55	1960
993.77	1907
993.991	1921
994.212	1908
994.432	1892
994.653	1905
994.873	1899
995.093	1801
995.314	1851
995.534	1899
995.754	1934
995.975	1938
996.195	1837
996.415	1878
996.635	1852
996.855	1878
997.075	1886
997.295	1870
997.515	1813
997.735	1911
997.955	1890
998.174	1867
998.394	1823
998.614	1872
998.834	1850
999.053	1891
999.273	1854
999.492	1895
999.712	1857
999.931	1793
1000.151	1823
1000.37	1799
1000.589	1865
1000.809	1759
1001.028	1869
1001.247	1831
1001.466	1718
1001.685	1825
1001.904	1757
1002.123	1756
1002.342	1768
1002.561	1713
1002.78	1761
1002.999	1807
1003.218	1745
1003.436	1671
1003.655	1730
1003.874	1676
1004.092	1722
1004.311	1755
1004.53	1718
1004.748	1786
1004.966	1730
1005.185	1749
1005.403	1761
1005.622	1720
1005.84	1774
1006.058	1697
1006.276	1721
1006.494	2258
1006.712	1707
1006.931	1806
1007.149	1692
1007.367	1714
1007.584	1775
1007.802	1796
1008.02	1755
1008.238	1869
1008.456	1879
1008.673	1762
1008.891	1892
1009.109	1866
1009.326	1911
1009.544	2030
1009.761	1970
1009.979	2107
1010.196	2176
1010.413	2330
1010.631	2403
1010.848	2518
1011.065	2524
1011.282	2483
1011.5	2406
1011.717	2518
1011.934	2457
1012.151	2477
1012.368	2450
1012.585	2374
1012.801	2515
1013.018	2471
1013.235	2440
1013.452	2477
1013.669	2490
1013.885	2468
1014.102	2503
1014.318	2516
1014.535	2466
1014.751	2473
1014.968	2472
1015.184	2515
1015.401	2431
1015.617	2411
1015.833	2328
1016.049	2322
1016.266	2334
1016.482	2346
1016.698	2240
1016.914	2277
1017.13	2207
1017.346	2189
1017.562	2260
1017.778	2190
1017.993	2129
1018.209	2221
1018.425	2199
1018.641	2184
1018.856	2149
1019.072	2166
1019.288	2228
1019.503	2167
1019.719	2084
1019.934	2074
1020.149	2176
1020.365	2041
1020.58	1991
1020.795	2010
1021.011	1894
1021.226	1880
1021.441	1865
1021.656	1777
1021.871	1695
1022.086	1691
1022.301	1664
1022.516	1637
1022.731	1671
1022.946	1595
1023.16	1536
1023.375	1501
1023.59	1464
1023.804	1409
1024.019	1531
1024.234	1374
1024.448	1396
1024.663	1294
1024.877	1290
1025.092	1295
1025.306	1295
1025.52	1192
1025.734	1258
1025.949	1136
1026.163	1126
1026.377	1048
1026.591	1102
1026.805	1036
1027.019	1026
1027.233	974
1027.447	914
1027.661	1016
1027.875	973
1028.088	958
1028.302	880
1028.516	857
1028.73	845
1028.943	860
1029.157	768
1029.37	720
1029.584	-3
1029.797	-2
1030.011	-2
1030.224	-1
