Data from QEP037381__101__15-04-06-079.txt Node

Date: Wed Dec 21 15:04:06 EST 2022
User: dcclab
Spectrometer: QEP03738
Trigger mode: 4
Integration Time (sec): 1.000000E1
Scans to average: 1
Electric dark correction enabled: true
Nonlinearity correction enabled: false
Boxcar width: 0
XAxis mode: Wavelengths
Number of Pixels in Spectrum: 1044
>>>>>Begin Spectral Data<<<<<
784.041	13.62
784.3	-1.38
784.558	-4.38
784.817	-2.38
785.075	90153.62
785.334	15706.62
785.592	7468.62
785.851	5212.62
786.109	3921.62
786.368	3091.62
786.626	2502.62
786.884	2084.62
787.143	1769.62
787.401	1476.62
787.659	1336.62
787.917	1150.62
788.175	1035.62
788.433	925.62
788.691	836.62
788.949	775.62
789.207	734.62
789.465	642.62
789.723	616.62
789.98	569.62
790.238	606.62
790.496	581.62
790.753	531.62
791.011	584.62
791.268	518.62
791.526	513.62
791.783	531.62
792.041	513.62
792.298	433.62
792.556	497.62
792.813	472.62
793.07	460.62
793.327	428.62
793.584	517.62
793.841	450.62
794.099	459.62
794.356	519.62
794.613	419.62
794.869	466.62
795.126	432.62
795.383	414.62
795.64	434.62
795.897	396.62
796.153	450.62
796.41	430.62
796.667	410.62
796.923	440.62
797.18	411.62
797.436	448.62
797.693	404.62
797.949	457.62
798.206	503.62
798.462	407.62
798.718	464.62
798.974	445.62
799.231	502.62
799.487	478.62
799.743	496.62
799.999	496.62
800.255	497.62
800.511	480.62
800.767	547.62
801.023	527.62
801.279	574.62
801.534	590.62
801.79	647.62
802.046	675.62
802.302	825.62
802.557	933.62
802.813	1157.62
803.068	1436.62
803.324	1977.62
803.579	2715.62
803.835	3709.62
804.09	5057.62
804.345	6542.62
804.601	8293.62
804.856	9987.62
805.111	11522.62
805.366	12678.62
805.621	13741.62
805.876	14260.62
806.131	14684.62
806.386	14952.62
806.641	15169.62
806.896	15473.62
807.151	15856.62
807.406	16057.62
807.661	16332.62
807.915	16592.62
808.17	16990.62
808.425	17141.62
808.679	17204.62
808.934	17423.62
809.188	17629.62
809.443	17884.62
809.697	18013.62
809.951	18267.62
810.206	18270.62
810.46	18570.62
810.714	18680.62
810.968	18920.62
811.223	19038.62
811.477	19233.62
811.731	19381.62
811.985	19458.62
812.239	19592.62
812.493	19594.62
812.747	19817.62
813	19734.62
813.254	19860.62
813.508	20046.62
813.762	20076.62
814.015	20185.62
814.269	20372.62
814.522	20594.62
814.776	20747.62
815.03	21106.62
815.283	21332.62
815.536	21761.62
815.79	22070.62
816.043	22463.62
816.296	22671.62
816.55	23001.62
816.803	23251.62
817.056	23543.62
817.309	23817.62
817.562	24181.62
817.815	24303.62
818.068	24425.62
818.321	24715.62
818.574	25013.62
818.827	25430.62
819.079	25737.62
819.332	26254.62
819.585	26575.62
819.838	26786.62
820.09	26973.62
820.343	27136.62
820.595	27351.62
820.848	27530.62
821.1	27593.62
821.353	27579.62
821.605	27577.62
821.857	27611.62
822.11	27545.62
822.362	27411.62
822.614	27317.62
822.866	27358.62
823.118	27383.62
823.37	27475.62
823.622	27518.62
823.874	27730.62
824.126	27876.62
824.378	27812.62
824.63	28054.62
824.882	27921.62
825.134	27991.62
825.385	28041.62
825.637	27832.62
825.888	27775.62
826.14	27881.62
826.392	27667.62
826.643	27562.62
826.895	27450.62
827.146	27283.62
827.397	27391.62
827.649	27420.62
827.9	27244.62
828.151	27288.62
828.402	27447.62
828.653	27516.62
828.905	27604.62
829.156	27643.62
829.407	27605.62
829.658	27692.62
829.909	27812.62
830.159	27817.62
830.41	27616.62
830.661	27512.62
830.912	27312.62
831.162	27305.62
831.413	27121.62
831.664	27369.62
831.914	27165.62
832.165	27128.62
832.415	27117.62
832.666	27115.62
832.916	27131.62
833.167	27230.62
833.417	27195.62
833.667	27037.62
833.917	27018.62
834.168	27025.62
834.418	26911.62
834.668	26829.62
834.918	26659.62
835.168	26605.62
835.418	26484.62
835.668	26406.62
835.918	26365.62
836.167	26299.62
836.417	26354.62
836.667	26186.62
836.917	26292.62
837.166	26236.62
837.416	26319.62
837.666	26263.62
837.915	26246.62
838.165	26235.62
838.414	26038.62
838.663	26108.62
838.913	26099.62
839.162	26040.62
839.411	25968.62
839.661	25870.62
839.91	25827.62
840.159	25851.62
840.408	25918.62
840.657	25954.62
840.906	25993.62
841.155	25939.62
841.404	25853.62
841.653	25790.62
841.902	25878.62
842.15	26063.62
842.399	25911.62
842.648	26016.62
842.897	25897.62
843.145	25810.62
843.394	25531.62
843.642	25528.62
843.891	25340.62
844.139	25252.62
844.388	25024.62
844.636	25027.62
844.884	25111.62
845.133	25020.62
845.381	24917.62
845.629	24962.62
845.877	24892.62
846.125	24883.62
846.373	24941.62
846.621	24762.62
846.869	24805.62
847.117	24633.62
847.365	24433.62
847.613	24333.62
847.861	24352.62
848.108	24363.62
848.356	24188.62
848.604	24256.62
848.851	24268.62
849.099	24324.62
849.346	24328.62
849.594	24576.62
849.841	24587.62
850.089	24608.62
850.336	24538.62
850.583	24783.62
850.831	24687.62
851.078	24597.62
851.325	24551.62
851.572	24534.62
851.819	24348.62
852.066	23792.62
852.313	23342.62
852.56	23284.62
852.807	23131.62
853.054	23142.62
853.301	23081.62
853.548	23200.62
853.794	23375.62
854.041	23442.62
854.288	23461.62
854.534	23742.62
854.781	23618.62
855.028	23588.62
855.274	23603.62
855.52	23500.62
855.767	23434.62
856.013	23344.62
856.26	23655.62
856.506	23104.62
856.752	23174.62
856.998	23127.62
857.244	23018.62
857.49	23257.62
857.736	23360.62
857.982	23400.62
858.228	23276.62
858.474	23096.62
858.72	23037.62
858.966	22669.62
859.212	22388.62
859.458	22262.62
859.703	22037.62
859.949	21762.62
860.195	21750.62
860.44	21631.62
860.686	21513.62
860.931	21572.62
861.177	21407.62
861.422	21351.62
861.667	21117.62
861.913	21133.62
862.158	21099.62
862.403	21227.62
862.648	21373.62
862.893	21309.62
863.138	21348.62
863.384	21310.62
863.629	21178.62
863.873	21216.62
864.118	21190.62
864.363	21059.62
864.608	21108.62
864.853	20929.62
865.098	20814.62
865.342	20736.62
865.587	20717.62
865.832	20709.62
866.076	20675.62
866.321	20575.62
866.565	20588.62
866.81	20454.62
867.054	20406.62
867.298	20309.62
867.543	20229.62
867.787	20271.62
868.031	20208.62
868.275	20245.62
868.519	20124.62
868.764	20210.62
869.008	20119.62
869.252	20161.62
869.496	20091.62
869.739	19997.62
869.983	20083.62
870.227	20085.62
870.471	20081.62
870.715	20180.62
870.958	20217.62
871.202	20234.62
871.446	20386.62
871.689	20334.62
871.933	20294.62
872.176	20346.62
872.42	20212.62
872.663	20168.62
872.906	20113.62
873.15	20114.62
873.393	20038.62
873.636	20126.62
873.879	19875.62
874.122	19656.62
874.366	19389.62
874.609	19278.62
874.852	19093.62
875.095	18928.62
875.337	18845.62
875.58	18696.62
875.823	18778.62
876.066	18750.62
876.309	18626.62
876.551	18480.62
876.794	18410.62
877.037	18372.62
877.279	18327.62
877.522	18330.62
877.764	18204.62
878.007	18236.62
878.249	18273.62
878.491	18105.62
878.734	18246.62
878.976	18100.62
879.218	17934.62
879.46	17935.62
879.702	17785.62
879.945	17697.62
880.187	17495.62
880.429	17420.62
880.671	17199.62
880.912	17268.62
881.154	17206.62
881.396	17089.62
881.638	17163.62
881.88	17209.62
882.121	17094.62
882.363	17086.62
882.605	17189.62
882.846	17000.62
883.088	17141.62
883.329	17084.62
883.571	17109.62
883.812	17321.62
884.053	17670.62
884.295	18142.62
884.536	18299.62
884.777	18250.62
885.018	18208.62
885.259	17984.62
885.5	17817.62
885.742	17963.62
885.982	17766.62
886.223	17634.62
886.464	17449.62
886.705	17325.62
886.946	17063.62
887.187	16713.62
887.428	16538.62
887.668	16224.62
887.909	16082.62
888.15	15834.62
888.39	15790.62
888.631	15643.62
888.871	15449.62
889.111	15508.62
889.352	15321.62
889.592	15184.62
889.833	15011.62
890.073	14947.62
890.313	14890.62
890.553	14679.62
890.793	14657.62
891.033	14659.62
891.273	14541.62
891.513	14547.62
891.753	14458.62
891.993	14506.62
892.233	14498.62
892.473	14533.62
892.713	14529.62
892.952	14554.62
893.192	14536.62
893.432	14433.62
893.671	14546.62
893.911	14350.62
894.15	14274.62
894.39	14184.62
894.629	14133.62
894.869	14129.62
895.108	14003.62
895.347	14027.62
895.587	13980.62
895.826	13803.62
896.065	13859.62
896.304	13858.62
896.543	13864.62
896.782	13740.62
897.021	13778.62
897.26	13752.62
897.499	13755.62
897.738	13734.62
897.977	13485.62
898.216	13548.62
898.454	13461.62
898.693	13227.62
898.932	13252.62
899.17	13224.62
899.409	13174.62
899.647	13155.62
899.886	13166.62
900.124	13220.62
900.363	13198.62
900.601	13188.62
900.839	13242.62
901.078	13310.62
901.316	13368.62
901.554	13482.62
901.792	13594.62
902.03	13602.62
902.268	13549.62
902.506	13501.62
902.744	13463.62
902.982	13381.62
903.22	13090.62
903.458	12891.62
903.695	12721.62
903.933	12491.62
904.171	12288.62
904.409	12158.62
904.646	11944.62
904.884	11856.62
905.121	11699.62
905.359	11563.62
905.596	11430.62
905.833	11382.62
906.071	11303.62
906.308	11254.62
906.545	11192.62
906.783	11065.62
907.02	11151.62
907.257	11048.62
907.494	11084.62
907.731	11042.62
907.968	10986.62
908.205	10948.62
908.442	10859.62
908.679	10813.62
908.915	10762.62
909.152	10638.62
909.389	10483.62
909.626	10484.62
909.862	10415.62
910.099	10365.62
910.335	10341.62
910.572	10215.62
910.808	10221.62
911.045	10193.62
911.281	10205.62
911.518	10203.62
911.754	10018.62
911.99	10049.62
912.226	9966.62
912.463	9839.62
912.699	9773.62
912.935	9770.62
913.171	9645.62
913.407	9522.62
913.643	9589.62
913.879	9432.62
914.114	9298.62
914.35	9237.62
914.586	9211.62
914.822	9146.62
915.057	9088.62
915.293	8918.62
915.529	8937.62
915.764	8942.62
916	8954.62
916.235	8924.62
916.471	8920.62
916.706	8818.62
916.941	8870.62
917.177	8825.62
917.412	8891.62
917.647	8852.62
917.882	8810.62
918.117	8806.62
918.352	8733.62
918.588	8733.62
918.823	8671.62
919.057	8599.62
919.292	8423.62
919.527	8399.62
919.762	8328.62
919.997	8251.62
920.232	8174.62
920.466	8116.62
920.701	8046.62
920.935	7998.62
921.17	7957.62
921.405	7820.62
921.639	7911.62
921.873	7790.62
922.108	7814.62
922.342	7772.62
922.576	7644.62
922.811	7683.62
923.045	7748.62
923.279	7699.62
923.513	7560.62
923.747	7637.62
923.981	7545.62
924.215	7420.62
924.449	7436.62
924.683	7353.62
924.917	7318.62
925.151	7345.62
925.385	7369.62
925.618	7235.62
925.852	7242.62
926.086	7233.62
926.319	7264.62
926.553	7317.62
926.786	7176.62
927.02	7200.62
927.253	7183.62
927.486	7237.62
927.72	7169.62
927.953	7188.62
928.186	7116.62
928.42	7146.62
928.653	7076.62
928.886	7051.62
929.119	7039.62
929.352	7011.62
929.585	6944.62
929.818	6904.62
930.051	6852.62
930.284	6774.62
930.516	6666.62
930.749	6670.62
930.982	6675.62
931.215	6660.62
931.447	6581.62
931.68	6535.62
931.912	6553.62
932.145	6518.62
932.377	6508.62
932.61	6661.62
932.842	6508.62
933.074	6546.62
933.307	6504.62
933.539	6539.62
933.771	6508.62
934.003	6467.62
934.236	6566.62
934.468	6554.62
934.7	6430.62
934.932	6492.62
935.164	6384.62
935.395	6365.62
935.627	6356.62
935.859	6358.62
936.091	6305.62
936.323	6314.62
936.554	6337.62
936.786	6289.62
937.017	6225.62
937.249	6275.62
937.481	6153.62
937.712	6233.62
937.943	6141.62
938.175	6172.62
938.406	6200.62
938.637	6242.62
938.869	6085.62
939.1	6088.62
939.331	6053.62
939.562	6113.62
939.793	6084.62
940.024	6053.62
940.255	6036.62
940.486	5963.62
940.717	5987.62
940.948	5916.62
941.179	5840.62
941.409	5916.62
941.64	5823.62
941.871	5832.62
942.102	5870.62
942.332	5892.62
942.563	5863.62
942.793	5856.62
943.024	5795.62
943.254	5813.62
943.484	5847.62
943.715	5838.62
943.945	5788.62
944.175	5762.62
944.405	5725.62
944.636	5811.62
944.866	5815.62
945.096	5777.62
945.326	5704.62
945.556	5745.62
945.786	5725.62
946.016	5654.62
946.245	5574.62
946.475	5616.62
946.705	5537.62
946.935	5550.62
947.164	5456.62
947.394	5415.62
947.624	5454.62
947.853	5457.62
948.083	5368.62
948.312	5368.62
948.542	5350.62
948.771	5302.62
949	5315.62
949.23	5313.62
949.459	5342.62
949.688	5347.62
949.917	5297.62
950.146	5287.62
950.375	5333.62
950.604	5272.62
950.833	5362.62
951.062	5317.62
951.291	5205.62
951.52	5203.62
951.749	5258.62
951.978	5184.62
952.206	5201.62
952.435	5136.62
952.664	5175.62
952.892	5152.62
953.121	5113.62
953.349	5078.62
953.578	5111.62
953.806	5041.62
954.035	5019.62
954.263	5013.62
954.491	4934.62
954.719	4988.62
954.948	4963.62
955.176	4949.62
955.404	4839.62
955.632	4919.62
955.86	4879.62
956.088	4847.62
956.316	4823.62
956.544	4824.62
956.772	4734.62
956.999	4740.62
957.227	4794.62
957.455	4704.62
957.683	4658.62
957.91	4631.62
958.138	4626.62
958.365	4582.62
958.593	4558.62
958.82	4515.62
959.048	4578.62
959.275	4553.62
959.502	4506.62
959.73	4451.62
959.957	4469.62
960.184	4526.62
960.411	4416.62
960.638	4546.62
960.865	4448.62
961.092	4488.62
961.319	4358.62
961.546	4476.62
961.773	4482.62
962	4435.62
962.227	4477.62
962.454	4420.62
962.68	4373.62
962.907	4341.62
963.134	4331.62
963.36	4330.62
963.587	4368.62
963.813	4241.62
964.04	4275.62
964.266	4191.62
964.493	4279.62
964.719	4207.62
964.945	4220.62
965.171	4046.62
965.398	4134.62
965.624	4151.62
965.85	4041.62
966.076	3997.62
966.302	4094.62
966.528	3996.62
966.754	4031.62
966.98	4011.62
967.206	4001.62
967.431	3941.62
967.657	3984.62
967.883	3960.62
968.109	3963.62
968.334	3932.62
968.56	3870.62
968.785	3881.62
969.011	3854.62
969.236	3899.62
969.462	3829.62
969.687	3857.62
969.912	3881.62
970.138	3868.62
970.363	3785.62
970.588	3822.62
970.813	3771.62
971.038	3737.62
971.263	3727.62
971.488	3757.62
971.713	3806.62
971.938	3741.62
972.163	3664.62
972.388	3622.62
972.613	3642.62
972.838	3630.62
973.062	3623.62
973.287	3612.62
973.512	3549.62
973.736	3558.62
973.961	3539.62
974.185	3514.62
974.41	3592.62
974.634	3425.62
974.858	3439.62
975.083	3446.62
975.307	3461.62
975.531	3390.62
975.755	3336.62
975.98	3305.62
976.204	3292.62
976.428	3237.62
976.652	3271.62
976.876	3202.62
977.1	3265.62
977.324	3192.62
977.547	3277.62
977.771	3253.62
977.995	3262.62
978.219	3147.62
978.442	3279.62
978.666	3202.62
978.89	3175.62
979.113	3176.62
979.337	3188.62
979.56	3164.62
979.783	3245.62
980.007	3146.62
980.23	3159.62
980.453	3063.62
980.677	3052.62
980.9	3063.62
981.123	2992.62
981.346	3082.62
981.569	3043.62
981.792	3050.62
982.015	3009.62
982.238	2964.62
982.461	2954.62
982.684	2953.62
982.907	2885.62
983.129	2901.62
983.352	2900.62
983.575	2972.62
983.797	2885.62
984.02	2837.62
984.242	2855.62
984.465	2836.62
984.687	2866.62
984.91	2857.62
985.132	2837.62
985.354	2845.62
985.577	2776.62
985.799	2788.62
986.021	2702.62
986.243	2707.62
986.465	2755.62
986.687	2763.62
986.909	2804.62
987.131	2743.62
987.353	2665.62
987.575	2729.62
987.797	2699.62
988.019	2615.62
988.241	2694.62
988.462	2608.62
988.684	2696.62
988.906	2700.62
989.127	2724.62
989.349	2607.62
989.57	2614.62
989.792	2641.62
990.013	2659.62
990.234	2644.62
990.456	2672.62
990.677	2649.62
990.898	2539.62
991.119	2576.62
991.341	2610.62
991.562	2509.62
991.783	2563.62
992.004	2468.62
992.225	2464.62
992.446	2499.62
992.667	2412.62
992.887	2491.62
993.108	2375.62
993.329	2507.62
993.55	2469.62
993.77	2367.62
993.991	2367.62
994.212	2399.62
994.432	2384.62
994.653	2402.62
994.873	2405.62
995.093	2265.62
995.314	2316.62
995.534	2396.62
995.754	2388.62
995.975	2397.62
996.195	2259.62
996.415	2311.62
996.635	2315.62
996.855	2305.62
997.075	2294.62
997.295	2314.62
997.515	2245.62
997.735	2312.62
997.955	2278.62
998.174	2275.62
998.394	2253.62
998.614	2291.62
998.834	2254.62
999.053	2295.62
999.273	2257.62
999.492	2324.62
999.712	2246.62
999.931	2189.62
1000.151	2270.62
1000.37	2201.62
1000.589	2213.62
1000.809	2199.62
1001.028	2266.62
1001.247	2189.62
1001.466	2078.62
1001.685	2181.62
1001.904	2117.62
1002.123	2131.62
1002.342	2125.62
1002.561	2070.62
1002.78	2087.62
1002.999	2136.62
1003.218	2063.62
1003.436	2057.62
1003.655	2111.62
1003.874	2042.62
1004.092	2047.62
1004.311	2082.62
1004.53	2028.62
1004.748	2074.62
1004.966	2044.62
1005.185	2080.62
1005.403	2072.62
1005.622	2063.62
1005.84	2091.62
1006.058	1998.62
1006.276	2048.62
1006.494	2545.62
1006.712	2022.62
1006.931	2102.62
1007.149	1971.62
1007.367	1981.62
1007.584	2034.62
1007.802	2082.62
1008.02	2024.62
1008.238	2120.62
1008.456	2138.62
1008.673	1999.62
1008.891	2172.62
1009.109	2106.62
1009.326	2172.62
1009.544	2248.62
1009.761	2194.62
1009.979	2322.62
1010.196	2348.62
1010.413	2458.62
1010.631	2582.62
1010.848	2629.62
1011.065	2648.62
1011.282	2637.62
1011.5	2524.62
1011.717	2616.62
1011.934	2593.62
1012.151	2608.62
1012.368	2572.62
1012.585	2524.62
1012.801	2582.62
1013.018	2546.62
1013.235	2514.62
1013.452	2555.62
1013.669	2570.62
1013.885	2553.62
1014.102	2589.62
1014.318	2533.62
1014.535	2495.62
1014.751	2557.62
1014.968	2506.62
1015.184	2535.62
1015.401	2471.62
1015.617	2459.62
1015.833	2407.62
1016.049	2398.62
1016.266	2391.62
1016.482	2371.62
1016.698	2300.62
1016.914	2331.62
1017.13	2282.62
1017.346	2242.62
1017.562	2318.62
1017.778	2204.62
1017.993	2200.62
1018.209	2287.62
1018.425	2226.62
1018.641	2194.62
1018.856	2167.62
1019.072	2183.62
1019.288	2236.62
1019.503	2205.62
1019.719	2119.62
1019.934	2094.62
1020.149	2179.62
1020.365	2119.62
1020.58	2052.62
1020.795	2063.62
1021.011	1965.62
1021.226	1953.62
1021.441	1932.62
1021.656	1854.62
1021.871	1754.62
1022.086	1765.62
1022.301	1740.62
1022.516	1726.62
1022.731	1734.62
1022.946	1650.62
1023.16	1611.62
1023.375	1599.62
1023.59	1547.62
1023.804	1499.62
1024.019	1601.62
1024.234	1468.62
1024.448	1442.62
1024.663	1396.62
1024.877	1380.62
1025.092	1381.62
1025.306	1378.62
1025.52	1280.62
1025.734	1338.62
1025.949	1256.62
1026.163	1201.62
1026.377	1161.62
1026.591	1181.62
1026.805	1111.62
1027.019	1115.62
1027.233	1050.62
1027.447	1002.62
1027.661	1110.62
1027.875	1016.62
1028.088	1043.62
1028.302	960.62
1028.516	966.62
1028.73	935.62
1028.943	903.62
1029.157	833.62
1029.37	797.62
1029.584	0.62
1029.797	-3.38
1030.011	-0.38
1030.224	-2.38
