Data from QEP037381__102__15-04-16-079.txt Node

Date: Wed Dec 21 15:04:16 EST 2022
User: dcclab
Spectrometer: QEP03738
Trigger mode: 4
Integration Time (sec): 1.000000E1
Scans to average: 1
Electric dark correction enabled: true
Nonlinearity correction enabled: false
Boxcar width: 0
XAxis mode: Wavelengths
Number of Pixels in Spectrum: 1044
>>>>>Begin Spectral Data<<<<<
784.041	13.38
784.3	1.38
784.558	-3.62
784.817	-3.62
785.075	87783.38
785.334	15700.38
785.592	7504.38
785.851	5245.38
786.109	3928.38
786.368	3078.38
786.626	2479.38
786.884	2086.38
787.143	1712.38
787.401	1454.38
787.659	1295.38
787.917	1114.38
788.175	1024.38
788.433	899.38
788.691	807.38
788.949	750.38
789.207	714.38
789.465	622.38
789.723	611.38
789.98	561.38
790.238	589.38
790.496	566.38
790.753	541.38
791.011	588.38
791.268	520.38
791.526	509.38
791.783	519.38
792.041	509.38
792.298	439.38
792.556	498.38
792.813	475.38
793.07	450.38
793.327	427.38
793.584	535.38
793.841	431.38
794.099	469.38
794.356	525.38
794.613	423.38
794.869	465.38
795.126	430.38
795.383	404.38
795.64	439.38
795.897	398.38
796.153	451.38
796.41	431.38
796.667	423.38
796.923	423.38
797.18	430.38
797.436	441.38
797.693	428.38
797.949	478.38
798.206	488.38
798.462	406.38
798.718	481.38
798.974	449.38
799.231	496.38
799.487	481.38
799.743	494.38
799.999	517.38
800.255	511.38
800.511	494.38
800.767	547.38
801.023	533.38
801.279	589.38
801.534	610.38
801.79	650.38
802.046	706.38
802.302	844.38
802.557	961.38
802.813	1193.38
803.068	1466.38
803.324	2056.38
803.579	2774.38
803.835	3835.38
804.09	5247.38
804.345	6775.38
804.601	8594.38
804.856	10310.38
805.111	11982.38
805.366	13254.38
805.621	14172.38
805.876	14812.38
806.131	15326.38
806.386	15577.38
806.641	15895.38
806.896	16177.38
807.151	16437.38
807.406	16734.38
807.661	17064.38
807.915	17426.38
808.17	17782.38
808.425	17908.38
808.679	18042.38
808.934	18382.38
809.188	18386.38
809.443	18688.38
809.697	18944.38
809.951	19102.38
810.206	19288.38
810.46	19468.38
810.714	19583.38
810.968	19838.38
811.223	20002.38
811.477	20178.38
811.731	20318.38
811.985	20420.38
812.239	20385.38
812.493	20633.38
812.747	20766.38
813	20796.38
813.254	20899.38
813.508	21066.38
813.762	21168.38
814.015	21136.38
814.269	21386.38
814.522	21610.38
814.776	21937.38
815.03	22087.38
815.283	22541.38
815.536	22917.38
815.79	23240.38
816.043	23593.38
816.296	23905.38
816.55	24149.38
816.803	24558.38
817.056	24919.38
817.309	25079.38
817.562	25276.38
817.815	25659.38
818.068	25852.38
818.321	26165.38
818.574	26423.38
818.827	26823.38
819.079	27021.38
819.332	27731.38
819.585	27843.38
819.838	28327.38
820.09	28500.38
820.343	28742.38
820.595	28869.38
820.848	29017.38
821.1	29219.38
821.353	29112.38
821.605	29055.38
821.857	29282.38
822.11	29069.38
822.362	28924.38
822.614	28847.38
822.866	29013.38
823.118	29076.38
823.37	29187.38
823.622	29257.38
823.874	29421.38
824.126	29492.38
824.378	29423.38
824.63	29570.38
824.882	29550.38
825.134	29587.38
825.385	29605.38
825.637	29617.38
825.888	29452.38
826.14	29417.38
826.392	29418.38
826.643	29166.38
826.895	29215.38
827.146	28983.38
827.397	28923.38
827.649	28913.38
827.9	28862.38
828.151	29028.38
828.402	29060.38
828.653	29242.38
828.905	29182.38
829.156	29370.38
829.407	29281.38
829.658	29241.38
829.909	29435.38
830.159	29419.38
830.41	29339.38
830.661	29182.38
830.912	28898.38
831.162	28858.38
831.413	28776.38
831.664	28898.38
831.914	28906.38
832.165	28730.38
832.415	28923.38
832.666	28911.38
832.916	28779.38
833.167	28731.38
833.417	28815.38
833.667	28754.38
833.917	28603.38
834.168	28569.38
834.418	28483.38
834.668	28404.38
834.918	28344.38
835.168	28267.38
835.418	28124.38
835.668	28115.38
835.918	28102.38
836.167	27960.38
836.417	27864.38
836.667	27969.38
836.917	27962.38
837.166	27746.38
837.416	27857.38
837.666	27812.38
837.915	27862.38
838.165	27805.38
838.414	27811.38
838.663	27560.38
838.913	27623.38
839.162	27605.38
839.411	27664.38
839.661	27494.38
839.91	27500.38
840.159	27376.38
840.408	27438.38
840.657	27505.38
840.906	27443.38
841.155	27460.38
841.404	27575.38
841.653	27475.38
841.902	27535.38
842.15	27676.38
842.399	27624.38
842.648	27634.38
842.897	27436.38
843.145	27375.38
843.394	27168.38
843.642	27033.38
843.891	26919.38
844.139	26787.38
844.388	26599.38
844.636	26521.38
844.884	26714.38
845.133	26582.38
845.381	26556.38
845.629	26475.38
845.877	26498.38
846.125	26362.38
846.373	26544.38
846.621	26486.38
846.869	26304.38
847.117	26205.38
847.365	25984.38
847.613	25953.38
847.861	25829.38
848.108	25837.38
848.356	25801.38
848.604	25693.38
848.851	25704.38
849.099	25813.38
849.346	25875.38
849.594	26142.38
849.841	26130.38
850.089	26226.38
850.336	26283.38
850.583	26440.38
850.831	26383.38
851.078	26169.38
851.325	26115.38
851.572	26229.38
851.819	25901.38
852.066	25338.38
852.313	25029.38
852.56	24800.38
852.807	24669.38
853.054	24753.38
853.301	24614.38
853.548	24667.38
853.794	24855.38
854.041	24948.38
854.288	24953.38
854.534	25261.38
854.781	25224.38
855.028	25197.38
855.274	25019.38
855.52	24924.38
855.767	24896.38
856.013	24877.38
856.26	25080.38
856.506	24640.38
856.752	24559.38
856.998	24568.38
857.244	24692.38
857.49	24771.38
857.736	24803.38
857.982	24941.38
858.228	24843.38
858.474	24619.38
858.72	24366.38
858.966	24196.38
859.212	23925.38
859.458	23649.38
859.703	23482.38
859.949	23196.38
860.195	23200.38
860.44	22989.38
860.686	22899.38
860.931	23061.38
861.177	22802.38
861.422	22806.38
861.667	22650.38
861.913	22612.38
862.158	22713.38
862.403	22816.38
862.648	22768.38
862.893	22886.38
863.138	22794.38
863.384	22749.38
863.629	22768.38
863.873	22783.38
864.118	22757.38
864.363	22601.38
864.608	22573.38
864.853	22497.38
865.098	22355.38
865.342	22224.38
865.587	22069.38
865.832	22149.38
866.076	22072.38
866.321	22068.38
866.565	22070.38
866.81	21823.38
867.054	21919.38
867.298	21828.38
867.543	21707.38
867.787	21777.38
868.031	21676.38
868.275	21714.38
868.519	21559.38
868.764	21544.38
869.008	21586.38
869.252	21705.38
869.496	21549.38
869.739	21452.38
869.983	21464.38
870.227	21505.38
870.471	21469.38
870.715	21593.38
870.958	21679.38
871.202	21624.38
871.446	21677.38
871.689	21701.38
871.933	21725.38
872.176	21647.38
872.42	21695.38
872.663	21585.38
872.906	21602.38
873.15	21458.38
873.393	21440.38
873.636	21407.38
873.879	21093.38
874.122	20960.38
874.366	20690.38
874.609	20532.38
874.852	20425.38
875.095	20313.38
875.337	20223.38
875.58	20029.38
875.823	20048.38
876.066	20053.38
876.309	20026.38
876.551	19837.38
876.794	19750.38
877.037	19774.38
877.279	19544.38
877.522	19635.38
877.764	19696.38
878.007	19482.38
878.249	19542.38
878.491	19517.38
878.734	19450.38
878.976	19479.38
879.218	19275.38
879.46	19305.38
879.702	19052.38
879.945	18915.38
880.187	18766.38
880.429	18603.38
880.671	18573.38
880.912	18549.38
881.154	18544.38
881.396	18483.38
881.638	18457.38
881.88	18452.38
882.121	18463.38
882.363	18405.38
882.605	18403.38
882.846	18396.38
883.088	18356.38
883.329	18328.38
883.571	18394.38
883.812	18540.38
884.053	18834.38
884.295	19155.38
884.536	19287.38
884.777	19195.38
885.018	19051.38
885.259	19119.38
885.5	18888.38
885.742	19196.38
885.982	18933.38
886.223	18752.38
886.464	18613.38
886.705	18397.38
886.946	18153.38
887.187	17981.38
887.428	17771.38
887.668	17464.38
887.909	17291.38
888.15	17131.38
888.39	17065.38
888.631	16840.38
888.871	16776.38
889.111	16622.38
889.352	16570.38
889.592	16284.38
889.833	16248.38
890.073	16151.38
890.313	16075.38
890.553	15921.38
890.793	15839.38
891.033	15854.38
891.273	15673.38
891.513	15735.38
891.753	15678.38
891.993	15682.38
892.233	15634.38
892.473	15733.38
892.713	15730.38
892.952	15706.38
893.192	15722.38
893.432	15651.38
893.671	15628.38
893.911	15574.38
894.15	15543.38
894.39	15334.38
894.629	15326.38
894.869	15275.38
895.108	15227.38
895.347	15135.38
895.587	15070.38
895.826	15036.38
896.065	15040.38
896.304	15021.38
896.543	15020.38
896.782	14812.38
897.021	14846.38
897.26	14874.38
897.499	14845.38
897.738	14777.38
897.977	14712.38
898.216	14598.38
898.454	14457.38
898.693	14407.38
898.932	14346.38
899.17	14223.38
899.409	14207.38
899.647	14230.38
899.886	14197.38
900.124	14219.38
900.363	14197.38
900.601	14293.38
900.839	14252.38
901.078	14337.38
901.316	14361.38
901.554	14438.38
901.792	14640.38
902.03	14561.38
902.268	14592.38
902.506	14628.38
902.744	14469.38
902.982	14284.38
903.22	14085.38
903.458	13886.38
903.695	13562.38
903.933	13503.38
904.171	13277.38
904.409	13141.38
904.646	12943.38
904.884	12754.38
905.121	12714.38
905.359	12484.38
905.596	12380.38
905.833	12276.38
906.071	12222.38
906.308	12217.38
906.545	12125.38
906.783	12011.38
907.02	12096.38
907.257	12035.38
907.494	12033.38
907.731	11963.38
907.968	11950.38
908.205	11824.38
908.442	11786.38
908.679	11691.38
908.915	11588.38
909.152	11513.38
909.389	11402.38
909.626	11378.38
909.862	11241.38
910.099	11245.38
910.335	11233.38
910.572	11091.38
910.808	11050.38
911.045	11090.38
911.281	11015.38
911.518	11006.38
911.754	10898.38
911.99	10881.38
912.226	10827.38
912.463	10641.38
912.699	10658.38
912.935	10622.38
913.171	10462.38
913.407	10343.38
913.643	10379.38
913.879	10302.38
914.114	10145.38
914.35	10053.38
914.586	9974.38
914.822	9881.38
915.057	9905.38
915.293	9737.38
915.529	9683.38
915.764	9778.38
916	9747.38
916.235	9664.38
916.471	9679.38
916.706	9495.38
916.941	9599.38
917.177	9509.38
917.412	9572.38
917.647	9581.38
917.882	9516.38
918.117	9495.38
918.352	9514.38
918.588	9473.38
918.823	9368.38
919.057	9294.38
919.292	9108.38
919.527	9117.38
919.762	9032.38
919.997	8959.38
920.232	8872.38
920.466	8809.38
920.701	8713.38
920.935	8660.38
921.17	8610.38
921.405	8514.38
921.639	8586.38
921.873	8472.38
922.108	8447.38
922.342	8461.38
922.576	8386.38
922.811	8281.38
923.045	8329.38
923.279	8383.38
923.513	8225.38
923.747	8235.38
923.981	8171.38
924.215	8090.38
924.449	8082.38
924.683	7959.38
924.917	7872.38
925.151	7983.38
925.385	8000.38
925.618	7894.38
925.852	7847.38
926.086	7824.38
926.319	7864.38
926.553	7867.38
926.786	7810.38
927.02	7796.38
927.253	7786.38
927.486	7835.38
927.72	7710.38
927.953	7796.38
928.186	7693.38
928.42	7688.38
928.653	7604.38
928.886	7555.38
929.119	7572.38
929.352	7530.38
929.585	7463.38
929.818	7380.38
930.051	7374.38
930.284	7328.38
930.516	7239.38
930.749	7228.38
930.982	7224.38
931.215	7142.38
931.447	7029.38
931.68	7102.38
931.912	7055.38
932.145	7060.38
932.377	7091.38
932.61	7170.38
932.842	6979.38
933.074	7097.38
933.307	6955.38
933.539	7053.38
933.771	7058.38
934.003	6976.38
934.236	7031.38
934.468	7065.38
934.7	7008.38
934.932	7019.38
935.164	6936.38
935.395	6841.38
935.627	6937.38
935.859	6908.38
936.091	6806.38
936.323	6806.38
936.554	6823.38
936.786	6805.38
937.017	6719.38
937.249	6730.38
937.481	6656.38
937.712	6689.38
937.943	6668.38
938.175	6608.38
938.406	6660.38
938.637	6645.38
938.869	6606.38
939.1	6648.38
939.331	6529.38
939.562	6576.38
939.793	6496.38
940.024	6594.38
940.255	6576.38
940.486	6440.38
940.717	6418.38
940.948	6435.38
941.179	6357.38
941.409	6318.38
941.64	6324.38
941.871	6293.38
942.102	6331.38
942.332	6324.38
942.563	6341.38
942.793	6391.38
943.024	6222.38
943.254	6286.38
943.484	6298.38
943.715	6343.38
943.945	6293.38
944.175	6191.38
944.405	6156.38
944.636	6205.38
944.866	6242.38
945.096	6216.38
945.326	6132.38
945.556	6208.38
945.786	6156.38
946.016	6085.38
946.245	5994.38
946.475	5954.38
946.705	5917.38
946.935	5983.38
947.164	5917.38
947.394	5907.38
947.624	5849.38
947.853	5944.38
948.083	5827.38
948.312	5789.38
948.542	5743.38
948.771	5690.38
949	5708.38
949.23	5678.38
949.459	5721.38
949.688	5775.38
949.917	5717.38
950.146	5634.38
950.375	5778.38
950.604	5658.38
950.833	5716.38
951.062	5678.38
951.291	5628.38
951.52	5556.38
951.749	5655.38
951.978	5464.38
952.206	5527.38
952.435	5553.38
952.664	5529.38
952.892	5506.38
953.121	5459.38
953.349	5475.38
953.578	5485.38
953.806	5417.38
954.035	5329.38
954.263	5366.38
954.491	5291.38
954.719	5362.38
954.948	5253.38
955.176	5174.38
955.404	5150.38
955.632	5195.38
955.86	5214.38
956.088	5204.38
956.316	5189.38
956.544	5152.38
956.772	5090.38
956.999	5034.38
957.227	5098.38
957.455	4972.38
957.683	5003.38
957.91	4963.38
958.138	4917.38
958.365	4931.38
958.593	4861.38
958.82	4811.38
959.048	4897.38
959.275	4859.38
959.502	4802.38
959.73	4709.38
959.957	4802.38
960.184	4818.38
960.411	4783.38
960.638	4796.38
960.865	4775.38
961.092	4767.38
961.319	4655.38
961.546	4811.38
961.773	4768.38
962	4698.38
962.227	4754.38
962.454	4692.38
962.68	4631.38
962.907	4683.38
963.134	4605.38
963.36	4580.38
963.587	4556.38
963.813	4456.38
964.04	4478.38
964.266	4454.38
964.493	4545.38
964.719	4507.38
964.945	4486.38
965.171	4342.38
965.398	4386.38
965.624	4362.38
965.85	4265.38
966.076	4293.38
966.302	4286.38
966.528	4250.38
966.754	4312.38
966.98	4257.38
967.206	4231.38
967.431	4134.38
967.657	4220.38
967.883	4196.38
968.109	4156.38
968.334	4106.38
968.56	4112.38
968.785	4091.38
969.011	4093.38
969.236	4099.38
969.462	4035.38
969.687	4078.38
969.912	4069.38
970.138	4087.38
970.363	3951.38
970.588	4061.38
970.813	3983.38
971.038	3960.38
971.263	3971.38
971.488	3969.38
971.713	3998.38
971.938	3940.38
972.163	3867.38
972.388	3844.38
972.613	3857.38
972.838	3829.38
973.062	3813.38
973.287	3808.38
973.512	3740.38
973.736	3763.38
973.961	3763.38
974.185	3692.38
974.41	3694.38
974.634	3617.38
974.858	3647.38
975.083	3640.38
975.307	3639.38
975.531	3595.38
975.755	3507.38
975.98	3543.38
976.204	3473.38
976.428	3418.38
976.652	3445.38
976.876	3373.38
977.1	3454.38
977.324	3370.38
977.547	3400.38
977.771	3455.38
977.995	3349.38
978.219	3303.38
978.442	3438.38
978.666	3355.38
978.89	3373.38
979.113	3326.38
979.337	3331.38
979.56	3260.38
979.783	3369.38
980.007	3261.38
980.23	3250.38
980.453	3230.38
980.677	3247.38
980.9	3201.38
981.123	3161.38
981.346	3215.38
981.569	3194.38
981.792	3206.38
982.015	3146.38
982.238	3088.38
982.461	3119.38
982.684	3067.38
982.907	3040.38
983.129	3046.38
983.352	3070.38
983.575	3015.38
983.797	3028.38
984.02	2981.38
984.242	2942.38
984.465	2943.38
984.687	2993.38
984.91	2979.38
985.132	2952.38
985.354	2981.38
985.577	2916.38
985.799	2930.38
986.021	2843.38
986.243	2822.38
986.465	2850.38
986.687	2881.38
986.909	2894.38
987.131	2891.38
987.353	2795.38
987.575	2840.38
987.797	2791.38
988.019	2699.38
988.241	2758.38
988.462	2742.38
988.684	2780.38
988.906	2797.38
989.127	2818.38
989.349	2694.38
989.57	2738.38
989.792	2728.38
990.013	2754.38
990.234	2714.38
990.456	2825.38
990.677	2701.38
990.898	2690.38
991.119	2658.38
991.341	2693.38
991.562	2597.38
991.783	2620.38
992.004	2589.38
992.225	2527.38
992.446	2623.38
992.667	2491.38
992.887	2556.38
993.108	2491.38
993.329	2583.38
993.55	2501.38
993.77	2466.38
993.991	2447.38
994.212	2490.38
994.432	2459.38
994.653	2479.38
994.873	2453.38
995.093	2342.38
995.314	2386.38
995.534	2445.38
995.754	2435.38
995.975	2430.38
996.195	2350.38
996.415	2403.38
996.635	2401.38
996.855	2401.38
997.075	2393.38
997.295	2322.38
997.515	2314.38
997.735	2404.38
997.955	2358.38
998.174	2334.38
998.394	2276.38
998.614	2330.38
998.834	2280.38
999.053	2354.38
999.273	2286.38
999.492	2337.38
999.712	2307.38
999.931	2258.38
1000.151	2320.38
1000.37	2263.38
1000.589	2285.38
1000.809	2237.38
1001.028	2297.38
1001.247	2250.38
1001.466	2153.38
1001.685	2256.38
1001.904	2185.38
1002.123	2135.38
1002.342	2167.38
1002.561	2134.38
1002.78	2146.38
1002.999	2211.38
1003.218	2106.38
1003.436	2091.38
1003.655	2151.38
1003.874	2087.38
1004.092	2104.38
1004.311	2132.38
1004.53	2085.38
1004.748	2139.38
1004.966	2088.38
1005.185	2135.38
1005.403	2133.38
1005.622	2071.38
1005.84	2147.38
1006.058	2041.38
1006.276	2089.38
1006.494	2565.38
1006.712	2066.38
1006.931	2130.38
1007.149	2025.38
1007.367	2010.38
1007.584	2072.38
1007.802	2116.38
1008.02	2076.38
1008.238	2166.38
1008.456	2210.38
1008.673	2009.38
1008.891	2162.38
1009.109	2125.38
1009.326	2190.38
1009.544	2301.38
1009.761	2215.38
1009.979	2319.38
1010.196	2373.38
1010.413	2503.38
1010.631	2562.38
1010.848	2614.38
1011.065	2676.38
1011.282	2616.38
1011.5	2506.38
1011.717	2617.38
1011.934	2545.38
1012.151	2550.38
1012.368	2572.38
1012.585	2531.38
1012.801	2584.38
1013.018	2526.38
1013.235	2505.38
1013.452	2537.38
1013.669	2544.38
1013.885	2511.38
1014.102	2560.38
1014.318	2564.38
1014.535	2491.38
1014.751	2520.38
1014.968	2531.38
1015.184	2532.38
1015.401	2414.38
1015.617	2448.38
1015.833	2380.38
1016.049	2381.38
1016.266	2375.38
1016.482	2381.38
1016.698	2286.38
1016.914	2344.38
1017.13	2252.38
1017.346	2252.38
1017.562	2303.38
1017.778	2241.38
1017.993	2166.38
1018.209	2252.38
1018.425	2208.38
1018.641	2206.38
1018.856	2194.38
1019.072	2223.38
1019.288	2212.38
1019.503	2215.38
1019.719	2091.38
1019.934	2147.38
1020.149	2185.38
1020.365	2097.38
1020.58	2014.38
1020.795	2066.38
1021.011	2005.38
1021.226	1944.38
1021.441	1959.38
1021.656	1894.38
1021.871	1780.38
1022.086	1784.38
1022.301	1756.38
1022.516	1722.38
1022.731	1755.38
1022.946	1661.38
1023.16	1642.38
1023.375	1569.38
1023.59	1566.38
1023.804	1510.38
1024.019	1636.38
1024.234	1474.38
1024.448	1470.38
1024.663	1391.38
1024.877	1389.38
1025.092	1404.38
1025.306	1406.38
1025.52	1283.38
1025.734	1354.38
1025.949	1301.38
1026.163	1255.38
1026.377	1168.38
1026.591	1214.38
1026.805	1119.38
1027.019	1127.38
1027.233	1091.38
1027.447	1012.38
1027.661	1119.38
1027.875	1065.38
1028.088	1061.38
1028.302	958.38
1028.516	957.38
1028.73	950.38
1028.943	949.38
1029.157	855.38
1029.37	803.38
1029.584	-2.62
1029.797	-4.62
1030.011	0.38
1030.224	-0.62
