Data from QEP037381__119__10-23-12-733.txt Node

Date: Wed Dec 21 10:23:12 EST 2022
User: dcclab
Spectrometer: QEP03738
Trigger mode: 4
Integration Time (sec): 1.000000E1
Scans to average: 1
Electric dark correction enabled: true
Nonlinearity correction enabled: false
Boxcar width: 0
XAxis mode: Wavelengths
Number of Pixels in Spectrum: 1044
>>>>>Begin Spectral Data<<<<<
784.041	13.38
784.3	0.38
784.558	-4.62
784.817	-1.62
785.075	78961.38
785.334	13671.38
785.592	6412.38
785.851	4443.38
786.109	3355.38
786.368	2607.38
786.626	2083.38
786.884	1763.38
787.143	1444.38
787.401	1215.38
787.659	1101.38
787.917	937.38
788.175	870.38
788.433	783.38
788.691	694.38
788.949	652.38
789.207	631.38
789.465	550.38
789.723	534.38
789.98	499.38
790.238	530.38
790.496	500.38
790.753	482.38
791.011	531.38
791.268	457.38
791.526	460.38
791.783	469.38
792.041	469.38
792.298	384.38
792.556	445.38
792.813	420.38
793.07	407.38
793.327	380.38
793.584	473.38
793.841	395.38
794.099	411.38
794.356	468.38
794.613	371.38
794.869	418.38
795.126	363.38
795.383	356.38
795.64	373.38
795.897	323.38
796.153	389.38
796.41	372.38
796.667	343.38
796.923	361.38
797.18	347.38
797.436	394.38
797.693	357.38
797.949	402.38
798.206	439.38
798.462	326.38
798.718	388.38
798.974	367.38
799.231	411.38
799.487	383.38
799.743	378.38
799.999	403.38
800.255	394.38
800.511	375.38
800.767	397.38
801.023	376.38
801.279	390.38
801.534	401.38
801.79	423.38
802.046	391.38
802.302	452.38
802.557	450.38
802.813	499.38
803.068	497.38
803.324	612.38
803.579	706.38
803.835	845.38
804.09	1099.38
804.345	1301.38
804.601	1498.38
804.856	1847.38
805.111	2061.38
805.366	2203.38
805.621	2311.38
805.876	2415.38
806.131	2427.38
806.386	2462.38
806.641	2471.38
806.896	2533.38
807.151	2622.38
807.406	2566.38
807.661	2665.38
807.915	2683.38
808.17	2715.38
808.425	2755.38
808.679	2759.38
808.934	2807.38
809.188	2792.38
809.443	2856.38
809.697	2875.38
809.951	2846.38
810.206	2888.38
810.46	2977.38
810.714	2965.38
810.968	2961.38
811.223	2940.38
811.477	3006.38
811.731	3057.38
811.985	3015.38
812.239	2972.38
812.493	3008.38
812.747	3061.38
813	2997.38
813.254	3116.38
813.508	3139.38
813.762	3066.38
814.015	3099.38
814.269	3209.38
814.522	3182.38
814.776	3198.38
815.03	3263.38
815.283	3277.38
815.536	3342.38
815.79	3444.38
816.043	3417.38
816.296	3450.38
816.55	3498.38
816.803	3471.38
817.056	3633.38
817.309	3562.38
817.562	3627.38
817.815	3709.38
818.068	3635.38
818.321	3644.38
818.574	3694.38
818.827	3840.38
819.079	3808.38
819.332	3989.38
819.585	3970.38
819.838	4055.38
820.09	4026.38
820.343	4058.38
820.595	3990.38
820.848	4076.38
821.1	4137.38
821.353	4092.38
821.605	4087.38
821.857	4136.38
822.11	4072.38
822.362	4094.38
822.614	4036.38
822.866	4119.38
823.118	4078.38
823.37	4173.38
823.622	4156.38
823.874	4219.38
824.126	4272.38
824.378	4228.38
824.63	4240.38
824.882	4228.38
825.134	4206.38
825.385	4217.38
825.637	4181.38
825.888	4145.38
826.14	4162.38
826.392	4093.38
826.643	4028.38
826.895	4087.38
827.146	4054.38
827.397	3994.38
827.649	4097.38
827.9	3943.38
828.151	3993.38
828.402	4006.38
828.653	4064.38
828.905	4073.38
829.156	4069.38
829.407	4030.38
829.658	4028.38
829.909	4119.38
830.159	4128.38
830.41	4042.38
830.661	4084.38
830.912	4017.38
831.162	3974.38
831.413	3967.38
831.664	4032.38
831.914	4018.38
832.165	4064.38
832.415	3997.38
832.666	4037.38
832.916	4066.38
833.167	4004.38
833.417	4055.38
833.667	4052.38
833.917	3998.38
834.168	3992.38
834.418	3990.38
834.668	4015.38
834.918	3947.38
835.168	3972.38
835.418	3959.38
835.668	3934.38
835.918	3936.38
836.167	3942.38
836.417	3904.38
836.667	3958.38
836.917	3939.38
837.166	3932.38
837.416	3929.38
837.666	3939.38
837.915	3865.38
838.165	3896.38
838.414	3805.38
838.663	3774.38
838.913	3838.38
839.162	3823.38
839.411	3879.38
839.661	3851.38
839.91	3845.38
840.159	3748.38
840.408	3821.38
840.657	3815.38
840.906	3834.38
841.155	3878.38
841.404	3773.38
841.653	3797.38
841.902	3801.38
842.15	3804.38
842.399	3820.38
842.648	3808.38
842.897	3789.38
843.145	3731.38
843.394	3700.38
843.642	3727.38
843.891	3746.38
844.139	3692.38
844.388	3652.38
844.636	3597.38
844.884	3655.38
845.133	3664.38
845.381	3711.38
845.629	3662.38
845.877	3648.38
846.125	3691.38
846.373	3659.38
846.621	3569.38
846.869	3694.38
847.117	3654.38
847.365	3577.38
847.613	3609.38
847.861	3639.38
848.108	3650.38
848.356	3595.38
848.604	3581.38
848.851	3594.38
849.099	3609.38
849.346	3588.38
849.594	3659.38
849.841	3641.38
850.089	3621.38
850.336	3668.38
850.583	3644.38
850.831	3670.38
851.078	3692.38
851.325	3745.38
851.572	3875.38
851.819	3806.38
852.066	3612.38
852.313	3477.38
852.56	3442.38
852.807	3391.38
853.054	3438.38
853.301	3466.38
853.548	3483.38
853.794	3600.38
854.041	3540.38
854.288	3529.38
854.534	3647.38
854.781	3549.38
855.028	3528.38
855.274	3560.38
855.52	3499.38
855.767	3429.38
856.013	3506.38
856.26	3793.38
856.506	3412.38
856.752	3454.38
856.998	3438.38
857.244	3390.38
857.49	3482.38
857.736	3425.38
857.982	3472.38
858.228	3461.38
858.474	3403.38
858.72	3437.38
858.966	3382.38
859.212	3373.38
859.458	3287.38
859.703	3244.38
859.949	3219.38
860.195	3282.38
860.44	3235.38
860.686	3195.38
860.931	3256.38
861.177	3184.38
861.422	3203.38
861.667	3155.38
861.913	3160.38
862.158	3135.38
862.403	3234.38
862.648	3195.38
862.893	3247.38
863.138	3231.38
863.384	3171.38
863.629	3217.38
863.873	3190.38
864.118	3157.38
864.363	3100.38
864.608	3175.38
864.853	3181.38
865.098	3163.38
865.342	3146.38
865.587	3131.38
865.832	3171.38
866.076	3143.38
866.321	3097.38
866.565	3127.38
866.81	3015.38
867.054	3085.38
867.298	3071.38
867.543	2987.38
867.787	3071.38
868.031	3049.38
868.275	3068.38
868.519	3081.38
868.764	3050.38
869.008	3034.38
869.252	3079.38
869.496	3036.38
869.739	3037.38
869.983	3064.38
870.227	3092.38
870.471	3029.38
870.715	3084.38
870.958	3095.38
871.202	3080.38
871.446	3089.38
871.689	3059.38
871.933	3054.38
872.176	3073.38
872.42	3035.38
872.663	3028.38
872.906	3083.38
873.15	3028.38
873.393	2980.38
873.636	3072.38
873.879	3026.38
874.122	3034.38
874.366	2953.38
874.609	2976.38
874.852	2923.38
875.095	2883.38
875.337	2878.38
875.58	2786.38
875.823	2890.38
876.066	2876.38
876.309	2944.38
876.551	2813.38
876.794	2797.38
877.037	2874.38
877.279	2789.38
877.522	2796.38
877.764	2811.38
878.007	2756.38
878.249	2781.38
878.491	2771.38
878.734	2807.38
878.976	2775.38
879.218	2705.38
879.46	2762.38
879.702	2797.38
879.945	2743.38
880.187	2626.38
880.429	2659.38
880.671	2656.38
880.912	2678.38
881.154	2665.38
881.396	2552.38
881.638	2653.38
881.88	2645.38
882.121	2598.38
882.363	2589.38
882.605	2642.38
882.846	2674.38
883.088	2645.38
883.329	2599.38
883.571	2585.38
883.812	2601.38
884.053	2727.38
884.295	2763.38
884.536	2936.38
884.777	2855.38
885.018	2843.38
885.259	2864.38
885.5	2762.38
885.742	3061.38
885.982	2738.38
886.223	2691.38
886.464	2672.38
886.705	2582.38
886.946	2668.38
887.187	2527.38
887.428	2533.38
887.668	2493.38
887.909	2447.38
888.15	2424.38
888.39	2441.38
888.631	2506.38
888.871	2439.38
889.111	2410.38
889.352	2379.38
889.592	2375.38
889.833	2346.38
890.073	2346.38
890.313	2396.38
890.553	2269.38
890.793	2283.38
891.033	2258.38
891.273	2251.38
891.513	2270.38
891.753	2316.38
891.993	2278.38
892.233	2278.38
892.473	2372.38
892.713	2296.38
892.952	2263.38
893.192	2302.38
893.432	2274.38
893.671	2314.38
893.911	2301.38
894.15	2285.38
894.39	2203.38
894.629	2236.38
894.869	2275.38
895.108	2233.38
895.347	2188.38
895.587	2210.38
895.826	2229.38
896.065	2169.38
896.304	2225.38
896.543	2233.38
896.782	2158.38
897.021	2201.38
897.26	2208.38
897.499	2276.38
897.738	2308.38
897.977	2206.38
898.216	2137.38
898.454	2142.38
898.693	2091.38
898.932	2143.38
899.17	2118.38
899.409	2124.38
899.647	2127.38
899.886	2062.38
900.124	2128.38
900.363	2099.38
900.601	2112.38
900.839	2129.38
901.078	2106.38
901.316	2130.38
901.554	2153.38
901.792	2187.38
902.03	2104.38
902.268	2141.38
902.506	2183.38
902.744	2126.38
902.982	2159.38
903.22	2068.38
903.458	2047.38
903.695	2074.38
903.933	2042.38
904.171	1951.38
904.409	1901.38
904.646	1935.38
904.884	1933.38
905.121	1939.38
905.359	1899.38
905.596	1907.38
905.833	1831.38
906.071	1790.38
906.308	1872.38
906.545	1873.38
906.783	1788.38
907.02	1822.38
907.257	1795.38
907.494	1787.38
907.731	1790.38
907.968	1827.38
908.205	1778.38
908.442	1773.38
908.679	1799.38
908.915	1760.38
909.152	1771.38
909.389	1700.38
909.626	1730.38
909.862	1704.38
910.099	1743.38
910.335	1798.38
910.572	1671.38
910.808	1703.38
911.045	1713.38
911.281	1663.38
911.518	1765.38
911.754	1662.38
911.99	1689.38
912.226	1674.38
912.463	1651.38
912.699	1655.38
912.935	1643.38
913.171	1650.38
913.407	1580.38
913.643	1667.38
913.879	1586.38
914.114	1584.38
914.35	1573.38
914.586	1582.38
914.822	1546.38
915.057	1634.38
915.293	1525.38
915.529	1519.38
915.764	1606.38
916	1588.38
916.235	1547.38
916.471	1579.38
916.706	1472.38
916.941	1494.38
917.177	1527.38
917.412	1574.38
917.647	1549.38
917.882	1474.38
918.117	1543.38
918.352	1514.38
918.588	1570.38
918.823	1500.38
919.057	1486.38
919.292	1383.38
919.527	1529.38
919.762	1436.38
919.997	1495.38
920.232	1457.38
920.466	1495.38
920.701	1385.38
920.935	1429.38
921.17	1395.38
921.405	1366.38
921.639	1425.38
921.873	1386.38
922.108	1410.38
922.342	1404.38
922.576	1362.38
922.811	1362.38
923.045	1423.38
923.279	1405.38
923.513	1318.38
923.747	1393.38
923.981	1402.38
924.215	1336.38
924.449	1342.38
924.683	1310.38
924.917	1318.38
925.151	1328.38
925.385	1379.38
925.618	1343.38
925.852	1345.38
926.086	1276.38
926.319	1324.38
926.553	1332.38
926.786	1333.38
927.02	1309.38
927.253	1342.38
927.486	1339.38
927.72	1284.38
927.953	1342.38
928.186	1289.38
928.42	1322.38
928.653	1298.38
928.886	1290.38
929.119	1300.38
929.352	1291.38
929.585	1284.38
929.818	1236.38
930.051	1285.38
930.284	1291.38
930.516	1210.38
930.749	1243.38
930.982	1291.38
931.215	1263.38
931.447	1194.38
931.68	1233.38
931.912	1217.38
932.145	1217.38
932.377	1264.38
932.61	1347.38
932.842	1152.38
933.074	1247.38
933.307	1195.38
933.539	1292.38
933.771	1262.38
934.003	1205.38
934.236	1298.38
934.468	1303.38
934.7	1214.38
934.932	1238.38
935.164	1201.38
935.395	1185.38
935.627	1207.38
935.859	1231.38
936.091	1175.38
936.323	1234.38
936.554	1274.38
936.786	1204.38
937.017	1172.38
937.249	1203.38
937.481	1142.38
937.712	1238.38
937.943	1180.38
938.175	1204.38
938.406	1184.38
938.637	1263.38
938.869	1153.38
939.1	1215.38
939.331	1154.38
939.562	1223.38
939.793	1183.38
940.024	1225.38
940.255	1219.38
940.486	1205.38
940.717	1198.38
940.948	1173.38
941.179	1110.38
941.409	1152.38
941.64	1145.38
941.871	1167.38
942.102	1150.38
942.332	1158.38
942.563	1187.38
942.793	1150.38
943.024	1109.38
943.254	1162.38
943.484	1175.38
943.715	1183.38
943.945	1178.38
944.175	1093.38
944.405	1089.38
944.636	1102.38
944.866	1161.38
945.096	1164.38
945.326	1092.38
945.556	1151.38
945.786	1190.38
946.016	1134.38
946.245	1097.38
946.475	1110.38
946.705	1096.38
946.935	1108.38
947.164	1138.38
947.394	1093.38
947.624	1112.38
947.853	1146.38
948.083	1087.38
948.312	1095.38
948.542	1067.38
948.771	1045.38
949	1067.38
949.23	1050.38
949.459	1076.38
949.688	1146.38
949.917	1068.38
950.146	1106.38
950.375	1149.38
950.604	1041.38
950.833	1121.38
951.062	1135.38
951.291	1088.38
951.52	1061.38
951.749	1086.38
951.978	1046.38
952.206	1048.38
952.435	1039.38
952.664	1110.38
952.892	1098.38
953.121	1048.38
953.349	1116.38
953.578	1082.38
953.806	1062.38
954.035	1018.38
954.263	1075.38
954.491	1016.38
954.719	1080.38
954.948	1033.38
955.176	1032.38
955.404	973.38
955.632	1044.38
955.86	1054.38
956.088	1037.38
956.316	1077.38
956.544	1097.38
956.772	1029.38
956.999	1008.38
957.227	1102.38
957.455	1010.38
957.683	1014.38
957.91	1016.38
958.138	997.38
958.365	1006.38
958.593	1011.38
958.82	963.38
959.048	1043.38
959.275	1010.38
959.502	1000.38
959.73	993.38
959.957	1039.38
960.184	1070.38
960.411	1026.38
960.638	1098.38
960.865	1006.38
961.092	1035.38
961.319	942.38
961.546	1027.38
961.773	1053.38
962	979.38
962.227	1044.38
962.454	1025.38
962.68	1004.38
962.907	989.38
963.134	975.38
963.36	1008.38
963.587	1062.38
963.813	947.38
964.04	1016.38
964.266	968.38
964.493	1058.38
964.719	1014.38
964.945	1025.38
965.171	932.38
965.398	1012.38
965.624	1004.38
965.85	965.38
966.076	970.38
966.302	999.38
966.528	968.38
966.754	1004.38
966.98	984.38
967.206	969.38
967.431	926.38
967.657	1008.38
967.883	988.38
968.109	983.38
968.334	922.38
968.56	941.38
968.785	957.38
969.011	902.38
969.236	966.38
969.462	916.38
969.687	944.38
969.912	991.38
970.138	1010.38
970.363	935.38
970.588	949.38
970.813	926.38
971.038	924.38
971.263	950.38
971.488	963.38
971.713	1008.38
971.938	965.38
972.163	875.38
972.388	908.38
972.613	908.38
972.838	927.38
973.062	930.38
973.287	934.38
973.512	871.38
973.736	929.38
973.961	900.38
974.185	884.38
974.41	933.38
974.634	841.38
974.858	873.38
975.083	917.38
975.307	932.38
975.531	877.38
975.755	828.38
975.98	845.38
976.204	800.38
976.428	810.38
976.652	854.38
976.876	798.38
977.1	841.38
977.324	817.38
977.547	876.38
977.771	879.38
977.995	840.38
978.219	808.38
978.442	918.38
978.666	854.38
978.89	842.38
979.113	843.38
979.337	848.38
979.56	825.38
979.783	919.38
980.007	816.38
980.23	849.38
980.453	808.38
980.677	848.38
980.9	843.38
981.123	764.38
981.346	857.38
981.569	855.38
981.792	865.38
982.015	840.38
982.238	807.38
982.461	825.38
982.684	802.38
982.907	802.38
983.129	802.38
983.352	854.38
983.575	837.38
983.797	829.38
984.02	804.38
984.242	794.38
984.465	820.38
984.687	846.38
984.91	879.38
985.132	837.38
985.354	861.38
985.577	838.38
985.799	842.38
986.021	746.38
986.243	804.38
986.465	809.38
986.687	853.38
986.909	909.38
987.131	864.38
987.353	801.38
987.575	858.38
987.797	820.38
988.019	741.38
988.241	828.38
988.462	783.38
988.684	844.38
988.906	868.38
989.127	869.38
989.349	772.38
989.57	820.38
989.792	860.38
990.013	851.38
990.234	858.38
990.456	885.38
990.677	871.38
990.898	833.38
991.119	806.38
991.341	845.38
991.562	798.38
991.783	861.38
992.004	785.38
992.225	757.38
992.446	847.38
992.667	748.38
992.887	844.38
993.108	756.38
993.329	886.38
993.55	826.38
993.77	788.38
993.991	778.38
994.212	833.38
994.432	809.38
994.653	842.38
994.873	829.38
995.093	718.38
995.314	764.38
995.534	851.38
995.754	849.38
995.975	878.38
996.195	761.38
996.415	844.38
996.635	802.38
996.855	850.38
997.075	798.38
997.295	798.38
997.515	788.38
997.735	838.38
997.955	799.38
998.174	801.38
998.394	781.38
998.614	842.38
998.834	781.38
999.053	864.38
999.273	833.38
999.492	890.38
999.712	826.38
999.931	799.38
1000.151	844.38
1000.37	824.38
1000.589	887.38
1000.809	822.38
1001.028	933.38
1001.247	880.38
1001.466	775.38
1001.685	926.38
1001.904	864.38
1002.123	845.38
1002.342	874.38
1002.561	818.38
1002.78	861.38
1002.999	900.38
1003.218	868.38
1003.436	832.38
1003.655	894.38
1003.874	856.38
1004.092	866.38
1004.311	917.38
1004.53	859.38
1004.748	938.38
1004.966	880.38
1005.185	931.38
1005.403	926.38
1005.622	920.38
1005.84	960.38
1006.058	872.38
1006.276	899.38
1006.494	1382.38
1006.712	906.38
1006.931	958.38
1007.149	878.38
1007.367	889.38
1007.584	927.38
1007.802	944.38
1008.02	886.38
1008.238	955.38
1008.456	953.38
1008.673	848.38
1008.891	936.38
1009.109	901.38
1009.326	930.38
1009.544	1010.38
1009.761	899.38
1009.979	988.38
1010.196	954.38
1010.413	1022.38
1010.631	1026.38
1010.848	1045.38
1011.065	1036.38
1011.282	986.38
1011.5	939.38
1011.717	1047.38
1011.934	1032.38
1012.151	1050.38
1012.368	1044.38
1012.585	986.38
1012.801	1014.38
1013.018	994.38
1013.235	963.38
1013.452	979.38
1013.669	982.38
1013.885	961.38
1014.102	993.38
1014.318	973.38
1014.535	920.38
1014.751	977.38
1014.968	972.38
1015.184	1009.38
1015.401	934.38
1015.617	966.38
1015.833	919.38
1016.049	913.38
1016.266	898.38
1016.482	926.38
1016.698	858.38
1016.914	925.38
1017.13	875.38
1017.346	865.38
1017.562	941.38
1017.778	890.38
1017.993	833.38
1018.209	912.38
1018.425	890.38
1018.641	855.38
1018.856	815.38
1019.072	860.38
1019.288	892.38
1019.503	843.38
1019.719	787.38
1019.934	791.38
1020.149	903.38
1020.365	834.38
1020.58	783.38
1020.795	857.38
1021.011	791.38
1021.226	801.38
1021.441	832.38
1021.656	762.38
1021.871	710.38
1022.086	719.38
1022.301	739.38
1022.516	698.38
1022.731	777.38
1022.946	690.38
1023.16	680.38
1023.375	658.38
1023.59	670.38
1023.804	611.38
1024.019	725.38
1024.234	616.38
1024.448	671.38
1024.663	587.38
1024.877	628.38
1025.092	651.38
1025.306	667.38
1025.52	570.38
1025.734	673.38
1025.949	613.38
1026.163	593.38
1026.377	520.38
1026.591	578.38
1026.805	526.38
1027.019	520.38
1027.233	504.38
1027.447	438.38
1027.661	533.38
1027.875	482.38
1028.088	512.38
1028.302	444.38
1028.516	452.38
1028.73	442.38
1028.943	454.38
1029.157	421.38
1029.37	383.38
1029.584	-2.62
1029.797	-3.62
1030.011	-2.62
1030.224	1.38
