Data from QEP037381__122__10-23-42-733.txt Node

Date: Wed Dec 21 10:23:42 EST 2022
User: dcclab
Spectrometer: QEP03738
Trigger mode: 4
Integration Time (sec): 1.000000E1
Scans to average: 1
Electric dark correction enabled: true
Nonlinearity correction enabled: false
Boxcar width: 0
XAxis mode: Wavelengths
Number of Pixels in Spectrum: 1044
>>>>>Begin Spectral Data<<<<<
784.041	10.5
784.3	-0.5
784.558	-5.5
784.817	-0.5
785.075	80142.5
785.334	13918.5
785.592	6599.5
785.851	4548.5
786.109	3445.5
786.368	2674.5
786.626	2148.5
786.884	1830.5
787.143	1508.5
787.401	1219.5
787.659	1134.5
787.917	966.5
788.175	901.5
788.433	787.5
788.691	723.5
788.949	683.5
789.207	642.5
789.465	557.5
789.723	549.5
789.98	494.5
790.238	533.5
790.496	512.5
790.753	479.5
791.011	528.5
791.268	468.5
791.526	452.5
791.783	496.5
792.041	460.5
792.298	368.5
792.556	452.5
792.813	420.5
793.07	409.5
793.327	405.5
793.584	460.5
793.841	392.5
794.099	421.5
794.356	473.5
794.613	374.5
794.869	415.5
795.126	379.5
795.383	361.5
795.64	379.5
795.897	329.5
796.153	389.5
796.41	372.5
796.667	354.5
796.923	351.5
797.18	362.5
797.436	394.5
797.693	339.5
797.949	391.5
798.206	425.5
798.462	337.5
798.718	377.5
798.974	364.5
799.231	393.5
799.487	392.5
799.743	383.5
799.999	400.5
800.255	386.5
800.511	378.5
800.767	389.5
801.023	389.5
801.279	383.5
801.534	410.5
801.79	417.5
802.046	410.5
802.302	451.5
802.557	469.5
802.813	512.5
803.068	501.5
803.324	637.5
803.579	693.5
803.835	866.5
804.09	1134.5
804.345	1363.5
804.601	1657.5
804.856	2001.5
805.111	2305.5
805.366	2483.5
805.621	2576.5
805.876	2711.5
806.131	2728.5
806.386	2748.5
806.641	2772.5
806.896	2817.5
807.151	2939.5
807.406	2943.5
807.661	3001.5
807.915	3043.5
808.17	3076.5
808.425	3102.5
808.679	3108.5
808.934	3180.5
809.188	3148.5
809.443	3198.5
809.697	3290.5
809.951	3273.5
810.206	3257.5
810.46	3333.5
810.714	3357.5
810.968	3430.5
811.223	3352.5
811.477	3404.5
811.731	3457.5
811.985	3397.5
812.239	3440.5
812.493	3444.5
812.747	3450.5
813	3488.5
813.254	3533.5
813.508	3559.5
813.762	3526.5
814.015	3534.5
814.269	3617.5
814.522	3671.5
814.776	3693.5
815.03	3693.5
815.283	3720.5
815.536	3851.5
815.79	3861.5
816.043	3909.5
816.296	3981.5
816.55	3986.5
816.803	3986.5
817.056	4148.5
817.309	4162.5
817.562	4144.5
817.815	4161.5
818.068	4178.5
818.321	4237.5
818.574	4297.5
818.827	4390.5
819.079	4374.5
819.332	4617.5
819.585	4576.5
819.838	4680.5
820.09	4623.5
820.343	4719.5
820.595	4642.5
820.848	4726.5
821.1	4793.5
821.353	4740.5
821.605	4780.5
821.857	4784.5
822.11	4689.5
822.362	4718.5
822.614	4726.5
822.866	4717.5
823.118	4703.5
823.37	4819.5
823.622	4789.5
823.874	4822.5
824.126	4908.5
824.378	4844.5
824.63	4855.5
824.882	4879.5
825.134	4886.5
825.385	4830.5
825.637	4865.5
825.888	4806.5
826.14	4779.5
826.392	4762.5
826.643	4682.5
826.895	4761.5
827.146	4651.5
827.397	4652.5
827.649	4672.5
827.9	4641.5
828.151	4621.5
828.402	4677.5
828.653	4694.5
828.905	4730.5
829.156	4793.5
829.407	4717.5
829.658	4710.5
829.909	4761.5
830.159	4749.5
830.41	4733.5
830.661	4739.5
830.912	4677.5
831.162	4679.5
831.413	4612.5
831.664	4689.5
831.914	4689.5
832.165	4688.5
832.415	4691.5
832.666	4705.5
832.916	4741.5
833.167	4671.5
833.417	4763.5
833.667	4654.5
833.917	4685.5
834.168	4679.5
834.418	4657.5
834.668	4686.5
834.918	4646.5
835.168	4699.5
835.418	4569.5
835.668	4637.5
835.918	4614.5
836.167	4602.5
836.417	4587.5
836.667	4601.5
836.917	4572.5
837.166	4557.5
837.416	4629.5
837.666	4559.5
837.915	4547.5
838.165	4536.5
838.414	4409.5
838.663	4436.5
838.913	4492.5
839.162	4458.5
839.411	4505.5
839.661	4415.5
839.91	4475.5
840.159	4483.5
840.408	4481.5
840.657	4505.5
840.906	4522.5
841.155	4557.5
841.404	4492.5
841.653	4498.5
841.902	4437.5
842.15	4498.5
842.399	4510.5
842.648	4492.5
842.897	4493.5
843.145	4412.5
843.394	4379.5
843.642	4408.5
843.891	4412.5
844.139	4382.5
844.388	4298.5
844.636	4242.5
844.884	4274.5
845.133	4326.5
845.381	4302.5
845.629	4311.5
845.877	4249.5
846.125	4289.5
846.373	4334.5
846.621	4264.5
846.869	4261.5
847.117	4239.5
847.365	4229.5
847.613	4243.5
847.861	4229.5
848.108	4223.5
848.356	4240.5
848.604	4184.5
848.851	4239.5
849.099	4188.5
849.346	4241.5
849.594	4278.5
849.841	4301.5
850.089	4271.5
850.336	4247.5
850.583	4283.5
850.831	4293.5
851.078	4298.5
851.325	4333.5
851.572	4502.5
851.819	4389.5
852.066	4214.5
852.313	4091.5
852.56	4023.5
852.807	4013.5
853.054	4018.5
853.301	4053.5
853.548	4089.5
853.794	4186.5
854.041	4161.5
854.288	4109.5
854.534	4269.5
854.781	4173.5
855.028	4132.5
855.274	4181.5
855.52	4071.5
855.767	4062.5
856.013	4102.5
856.26	4326.5
856.506	4016.5
856.752	4084.5
856.998	4051.5
857.244	3964.5
857.49	4086.5
857.736	4085.5
857.982	4114.5
858.228	4093.5
858.474	4014.5
858.72	4021.5
858.966	3975.5
859.212	3957.5
859.458	3891.5
859.703	3859.5
859.949	3811.5
860.195	3796.5
860.44	3826.5
860.686	3734.5
860.931	3852.5
861.177	3754.5
861.422	3792.5
861.667	3684.5
861.913	3737.5
862.158	3748.5
862.403	3785.5
862.648	3784.5
862.893	3869.5
863.138	3805.5
863.384	3710.5
863.629	3782.5
863.873	3808.5
864.118	3720.5
864.363	3733.5
864.608	3774.5
864.853	3792.5
865.098	3708.5
865.342	3710.5
865.587	3670.5
865.832	3681.5
866.076	3704.5
866.321	3683.5
866.565	3650.5
866.81	3597.5
867.054	3641.5
867.298	3649.5
867.543	3662.5
867.787	3655.5
868.031	3610.5
868.275	3633.5
868.519	3594.5
868.764	3585.5
869.008	3565.5
869.252	3641.5
869.496	3580.5
869.739	3597.5
869.983	3642.5
870.227	3640.5
870.471	3580.5
870.715	3632.5
870.958	3629.5
871.202	3588.5
871.446	3614.5
871.689	3576.5
871.933	3613.5
872.176	3614.5
872.42	3635.5
872.663	3565.5
872.906	3630.5
873.15	3578.5
873.393	3506.5
873.636	3598.5
873.879	3558.5
874.122	3534.5
874.366	3468.5
874.609	3458.5
874.852	3436.5
875.095	3405.5
875.337	3393.5
875.58	3324.5
875.823	3365.5
876.066	3407.5
876.309	3410.5
876.551	3352.5
876.794	3324.5
877.037	3325.5
877.279	3273.5
877.522	3273.5
877.764	3313.5
878.007	3254.5
878.249	3329.5
878.491	3245.5
878.734	3338.5
878.976	3329.5
879.218	3253.5
879.46	3316.5
879.702	3247.5
879.945	3175.5
880.187	3142.5
880.429	3174.5
880.671	3154.5
880.912	3171.5
881.154	3133.5
881.396	3044.5
881.638	3142.5
881.88	3140.5
882.121	3075.5
882.363	3050.5
882.605	3156.5
882.846	3101.5
883.088	3099.5
883.329	3076.5
883.571	3077.5
883.812	3088.5
884.053	3166.5
884.295	3228.5
884.536	3399.5
884.777	3305.5
885.018	3314.5
885.259	3350.5
885.5	3252.5
885.742	3512.5
885.982	3268.5
886.223	3148.5
886.464	3132.5
886.705	3071.5
886.946	3140.5
887.187	3016.5
887.428	3024.5
887.668	2983.5
887.909	2881.5
888.15	2898.5
888.39	2928.5
888.631	2961.5
888.871	2895.5
889.111	2844.5
889.352	2841.5
889.592	2782.5
889.833	2787.5
890.073	2759.5
890.313	2839.5
890.553	2666.5
890.793	2709.5
891.033	2669.5
891.273	2666.5
891.513	2681.5
891.753	2779.5
891.993	2703.5
892.233	2722.5
892.473	2785.5
892.713	2733.5
892.952	2644.5
893.192	2721.5
893.432	2691.5
893.671	2799.5
893.911	2709.5
894.15	2702.5
894.39	2616.5
894.629	2640.5
894.869	2684.5
895.108	2640.5
895.347	2563.5
895.587	2660.5
895.826	2614.5
896.065	2582.5
896.304	2664.5
896.543	2652.5
896.782	2520.5
897.021	2615.5
897.26	2593.5
897.499	2677.5
897.738	2688.5
897.977	2605.5
898.216	2572.5
898.454	2558.5
898.693	2506.5
898.932	2553.5
899.17	2522.5
899.409	2510.5
899.647	2509.5
899.886	2449.5
900.124	2493.5
900.363	2476.5
900.601	2505.5
900.839	2531.5
901.078	2498.5
901.316	2499.5
901.554	2529.5
901.792	2561.5
902.03	2505.5
902.268	2576.5
902.506	2595.5
902.744	2525.5
902.982	2534.5
903.22	2439.5
903.458	2420.5
903.695	2451.5
903.933	2415.5
904.171	2309.5
904.409	2272.5
904.646	2299.5
904.884	2272.5
905.121	2307.5
905.359	2259.5
905.596	2228.5
905.833	2166.5
906.071	2176.5
906.308	2226.5
906.545	2186.5
906.783	2145.5
907.02	2160.5
907.257	2130.5
907.494	2138.5
907.731	2200.5
907.968	2180.5
908.205	2130.5
908.442	2068.5
908.679	2127.5
908.915	2101.5
909.152	2083.5
909.389	2042.5
909.626	2069.5
909.862	2006.5
910.099	2035.5
910.335	2059.5
910.572	1966.5
910.808	2027.5
911.045	2031.5
911.281	1988.5
911.518	2040.5
911.754	2002.5
911.99	1996.5
912.226	1964.5
912.463	1939.5
912.699	1930.5
912.935	1948.5
913.171	1901.5
913.407	1868.5
913.643	1943.5
913.879	1896.5
914.114	1864.5
914.35	1851.5
914.586	1892.5
914.822	1835.5
915.057	1899.5
915.293	1792.5
915.529	1788.5
915.764	1864.5
916	1809.5
916.235	1812.5
916.471	1842.5
916.706	1693.5
916.941	1788.5
917.177	1785.5
917.412	1808.5
917.647	1831.5
917.882	1774.5
918.117	1812.5
918.352	1796.5
918.588	1835.5
918.823	1762.5
919.057	1781.5
919.292	1672.5
919.527	1786.5
919.762	1703.5
919.997	1759.5
920.232	1702.5
920.466	1725.5
920.701	1611.5
920.935	1678.5
921.17	1625.5
921.405	1593.5
921.639	1705.5
921.873	1630.5
922.108	1673.5
922.342	1651.5
922.576	1614.5
922.811	1589.5
923.045	1638.5
923.279	1661.5
923.513	1529.5
923.747	1647.5
923.981	1607.5
924.215	1588.5
924.449	1554.5
924.683	1507.5
924.917	1533.5
925.151	1546.5
925.385	1617.5
925.618	1585.5
925.852	1571.5
926.086	1485.5
926.319	1564.5
926.553	1521.5
926.786	1559.5
927.02	1534.5
927.253	1574.5
927.486	1582.5
927.72	1507.5
927.953	1537.5
928.186	1507.5
928.42	1532.5
928.653	1523.5
928.886	1503.5
929.119	1518.5
929.352	1512.5
929.585	1508.5
929.818	1485.5
930.051	1501.5
930.284	1495.5
930.516	1413.5
930.749	1443.5
930.982	1508.5
931.215	1483.5
931.447	1399.5
931.68	1436.5
931.912	1418.5
932.145	1404.5
932.377	1439.5
932.61	1566.5
932.842	1390.5
933.074	1448.5
933.307	1390.5
933.539	1493.5
933.771	1457.5
934.003	1427.5
934.236	1501.5
934.468	1511.5
934.7	1434.5
934.932	1458.5
935.164	1407.5
935.395	1412.5
935.627	1445.5
935.859	1428.5
936.091	1372.5
936.323	1415.5
936.554	1456.5
936.786	1424.5
937.017	1363.5
937.249	1424.5
937.481	1311.5
937.712	1420.5
937.943	1383.5
938.175	1375.5
938.406	1377.5
938.637	1469.5
938.869	1344.5
939.1	1437.5
939.331	1374.5
939.562	1390.5
939.793	1400.5
940.024	1428.5
940.255	1418.5
940.486	1402.5
940.717	1357.5
940.948	1384.5
941.179	1334.5
941.409	1341.5
941.64	1315.5
941.871	1388.5
942.102	1330.5
942.332	1329.5
942.563	1418.5
942.793	1359.5
943.024	1321.5
943.254	1352.5
943.484	1396.5
943.715	1405.5
943.945	1357.5
944.175	1288.5
944.405	1270.5
944.636	1289.5
944.866	1339.5
945.096	1349.5
945.326	1269.5
945.556	1342.5
945.786	1355.5
946.016	1343.5
946.245	1256.5
946.475	1294.5
946.705	1305.5
946.935	1306.5
947.164	1290.5
947.394	1277.5
947.624	1284.5
947.853	1319.5
948.083	1293.5
948.312	1291.5
948.542	1226.5
948.771	1202.5
949	1246.5
949.23	1262.5
949.459	1238.5
949.688	1312.5
949.917	1246.5
950.146	1256.5
950.375	1321.5
950.604	1244.5
950.833	1310.5
951.062	1300.5
951.291	1271.5
951.52	1240.5
951.749	1258.5
951.978	1225.5
952.206	1224.5
952.435	1216.5
952.664	1270.5
952.892	1274.5
953.121	1257.5
953.349	1289.5
953.578	1263.5
953.806	1259.5
954.035	1219.5
954.263	1250.5
954.491	1172.5
954.719	1258.5
954.948	1206.5
955.176	1189.5
955.404	1132.5
955.632	1198.5
955.86	1226.5
956.088	1198.5
956.316	1229.5
956.544	1277.5
956.772	1180.5
956.999	1175.5
957.227	1276.5
957.455	1172.5
957.683	1185.5
957.91	1130.5
958.138	1162.5
958.365	1173.5
958.593	1170.5
958.82	1098.5
959.048	1211.5
959.275	1157.5
959.502	1153.5
959.73	1132.5
959.957	1201.5
960.184	1232.5
960.411	1187.5
960.638	1224.5
960.865	1157.5
961.092	1210.5
961.319	1088.5
961.546	1220.5
961.773	1191.5
962	1126.5
962.227	1188.5
962.454	1148.5
962.68	1139.5
962.907	1163.5
963.134	1116.5
963.36	1144.5
963.587	1188.5
963.813	1126.5
964.04	1162.5
964.266	1108.5
964.493	1187.5
964.719	1169.5
964.945	1176.5
965.171	1080.5
965.398	1122.5
965.624	1149.5
965.85	1090.5
966.076	1103.5
966.302	1157.5
966.528	1111.5
966.754	1136.5
966.98	1131.5
967.206	1130.5
967.431	1059.5
967.657	1154.5
967.883	1130.5
968.109	1120.5
968.334	1076.5
968.56	1060.5
968.785	1094.5
969.011	1040.5
969.236	1109.5
969.462	1048.5
969.687	1079.5
969.912	1108.5
970.138	1148.5
970.363	1064.5
970.588	1081.5
970.813	1086.5
971.038	1042.5
971.263	1086.5
971.488	1083.5
971.713	1105.5
971.938	1110.5
972.163	1016.5
972.388	1059.5
972.613	1051.5
972.838	1041.5
973.062	1026.5
973.287	1039.5
973.512	987.5
973.736	1035.5
973.961	1023.5
974.185	1019.5
974.41	1050.5
974.634	962.5
974.858	994.5
975.083	1035.5
975.307	1050.5
975.531	1001.5
975.755	932.5
975.98	987.5
976.204	920.5
976.428	937.5
976.652	940.5
976.876	936.5
977.1	974.5
977.324	935.5
977.547	999.5
977.771	996.5
977.995	962.5
978.219	914.5
978.442	1034.5
978.666	962.5
978.89	980.5
979.113	975.5
979.337	948.5
979.56	923.5
979.783	1034.5
980.007	923.5
980.23	971.5
980.453	928.5
980.677	953.5
980.9	956.5
981.123	869.5
981.346	965.5
981.569	960.5
981.792	982.5
982.015	927.5
982.238	918.5
982.461	930.5
982.684	916.5
982.907	907.5
983.129	909.5
983.352	952.5
983.575	928.5
983.797	930.5
984.02	900.5
984.242	902.5
984.465	903.5
984.687	953.5
984.91	975.5
985.132	930.5
985.354	971.5
985.577	931.5
985.799	941.5
986.021	863.5
986.243	884.5
986.465	904.5
986.687	957.5
986.909	992.5
987.131	949.5
987.353	882.5
987.575	941.5
987.797	906.5
988.019	841.5
988.241	889.5
988.462	871.5
988.684	931.5
988.906	954.5
989.127	981.5
989.349	863.5
989.57	890.5
989.792	944.5
990.013	951.5
990.234	956.5
990.456	975.5
990.677	978.5
990.898	906.5
991.119	925.5
991.341	965.5
991.562	883.5
991.783	935.5
992.004	879.5
992.225	860.5
992.446	910.5
992.667	850.5
992.887	931.5
993.108	809.5
993.329	952.5
993.55	889.5
993.77	835.5
993.991	847.5
994.212	896.5
994.432	901.5
994.653	929.5
994.873	907.5
995.093	804.5
995.314	844.5
995.534	925.5
995.754	942.5
995.975	943.5
996.195	824.5
996.415	914.5
996.635	897.5
996.855	906.5
997.075	879.5
997.295	877.5
997.515	862.5
997.735	927.5
997.955	877.5
998.174	884.5
998.394	853.5
998.614	898.5
998.834	863.5
999.053	943.5
999.273	900.5
999.492	967.5
999.712	883.5
999.931	854.5
1000.151	924.5
1000.37	915.5
1000.589	969.5
1000.809	888.5
1001.028	1009.5
1001.247	971.5
1001.466	847.5
1001.685	979.5
1001.904	930.5
1002.123	937.5
1002.342	927.5
1002.561	894.5
1002.78	946.5
1002.999	987.5
1003.218	938.5
1003.436	900.5
1003.655	975.5
1003.874	908.5
1004.092	936.5
1004.311	967.5
1004.53	935.5
1004.748	1006.5
1004.966	951.5
1005.185	985.5
1005.403	984.5
1005.622	955.5
1005.84	1042.5
1006.058	943.5
1006.276	957.5
1006.494	1450.5
1006.712	957.5
1006.931	1032.5
1007.149	923.5
1007.367	942.5
1007.584	957.5
1007.802	1001.5
1008.02	936.5
1008.238	1035.5
1008.456	1018.5
1008.673	886.5
1008.891	1011.5
1009.109	940.5
1009.326	987.5
1009.544	1083.5
1009.761	954.5
1009.979	1017.5
1010.196	1038.5
1010.413	1067.5
1010.631	1126.5
1010.848	1123.5
1011.065	1146.5
1011.282	1082.5
1011.5	1026.5
1011.717	1136.5
1011.934	1085.5
1012.151	1131.5
1012.368	1082.5
1012.585	1041.5
1012.801	1092.5
1013.018	1065.5
1013.235	1021.5
1013.452	1028.5
1013.669	1060.5
1013.885	1031.5
1014.102	1067.5
1014.318	1034.5
1014.535	992.5
1014.751	1040.5
1014.968	1047.5
1015.184	1064.5
1015.401	994.5
1015.617	1057.5
1015.833	990.5
1016.049	990.5
1016.266	975.5
1016.482	1006.5
1016.698	938.5
1016.914	1008.5
1017.13	932.5
1017.346	949.5
1017.562	998.5
1017.778	918.5
1017.993	904.5
1018.209	978.5
1018.425	944.5
1018.641	918.5
1018.856	898.5
1019.072	939.5
1019.288	995.5
1019.503	940.5
1019.719	861.5
1019.934	880.5
1020.149	956.5
1020.365	879.5
1020.58	852.5
1020.795	914.5
1021.011	855.5
1021.226	852.5
1021.441	882.5
1021.656	820.5
1021.871	751.5
1022.086	775.5
1022.301	748.5
1022.516	758.5
1022.731	842.5
1022.946	754.5
1023.16	721.5
1023.375	715.5
1023.59	710.5
1023.804	685.5
1024.019	789.5
1024.234	671.5
1024.448	715.5
1024.663	642.5
1024.877	674.5
1025.092	697.5
1025.306	693.5
1025.52	614.5
1025.734	712.5
1025.949	629.5
1026.163	613.5
1026.377	565.5
1026.591	636.5
1026.805	538.5
1027.019	553.5
1027.233	521.5
1027.447	478.5
1027.661	594.5
1027.875	523.5
1028.088	537.5
1028.302	465.5
1028.516	463.5
1028.73	465.5
1028.943	472.5
1029.157	437.5
1029.37	429.5
1029.584	-5.5
1029.797	-0.5
1030.011	2.5
1030.224	-0.5
