Data from QEP037381__84__10-17-22-731.txt Node

Date: Wed Dec 21 10:17:22 EST 2022
User: dcclab
Spectrometer: QEP03738
Trigger mode: 4
Integration Time (sec): 1.000000E1
Scans to average: 1
Electric dark correction enabled: true
Nonlinearity correction enabled: false
Boxcar width: 0
XAxis mode: Wavelengths
Number of Pixels in Spectrum: 1044
>>>>>Begin Spectral Data<<<<<
784.041	15.88
784.3	-1.12
784.558	-5.12
784.817	-2.12
785.075	75700.88
785.334	13055.88
785.592	6079.88
785.851	4199.88
786.109	3193.88
786.368	2503.88
786.626	2052.88
786.884	1693.88
787.143	1446.88
787.401	1196.88
787.659	1081.88
787.917	928.88
788.175	900.88
788.433	773.88
788.691	703.88
788.949	661.88
789.207	645.88
789.465	551.88
789.723	530.88
789.98	496.88
790.238	539.88
790.496	509.88
790.753	473.88
791.011	516.88
791.268	468.88
791.526	457.88
791.783	477.88
792.041	456.88
792.298	379.88
792.556	443.88
792.813	423.88
793.07	415.88
793.327	386.88
793.584	463.88
793.841	390.88
794.099	415.88
794.356	476.88
794.613	385.88
794.869	412.88
795.126	371.88
795.383	359.88
795.64	372.88
795.897	323.88
796.153	383.88
796.41	389.88
796.667	354.88
796.923	354.88
797.18	355.88
797.436	388.88
797.693	351.88
797.949	410.88
798.206	420.88
798.462	335.88
798.718	403.88
798.974	361.88
799.231	410.88
799.487	398.88
799.743	395.88
799.999	418.88
800.255	407.88
800.511	373.88
800.767	404.88
801.023	394.88
801.279	417.88
801.534	416.88
801.79	438.88
802.046	412.88
802.302	489.88
802.557	499.88
802.813	552.88
803.068	578.88
803.324	751.88
803.579	850.88
803.835	1089.88
804.09	1465.88
804.345	1771.88
804.601	2191.88
804.856	2664.88
805.111	3012.88
805.366	3310.88
805.621	3452.88
805.876	3595.88
806.131	3697.88
806.386	3698.88
806.641	3735.88
806.896	3809.88
807.151	3957.88
807.406	3967.88
807.661	4023.88
807.915	4069.88
808.17	4132.88
808.425	4155.88
808.679	4182.88
808.934	4318.88
809.188	4237.88
809.443	4387.88
809.697	4451.88
809.951	4383.88
810.206	4382.88
810.46	4492.88
810.714	4536.88
810.968	4559.88
811.223	4523.88
811.477	4618.88
811.731	4675.88
811.985	4581.88
812.239	4609.88
812.493	4651.88
812.747	4703.88
813	4658.88
813.254	4711.88
813.508	4788.88
813.762	4789.88
814.015	4751.88
814.269	4847.88
814.522	4935.88
814.776	4932.88
815.03	5064.88
815.283	5067.88
815.536	5159.88
815.79	5233.88
816.043	5292.88
816.296	5332.88
816.55	5370.88
816.803	5399.88
817.056	5554.88
817.309	5620.88
817.562	5558.88
817.815	5645.88
818.068	5678.88
818.321	5726.88
818.574	5756.88
818.827	5854.88
819.079	5957.88
819.332	6124.88
819.585	6107.88
819.838	6290.88
820.09	6237.88
820.343	6304.88
820.595	6300.88
820.848	6367.88
821.1	6414.88
821.353	6401.88
821.605	6385.88
821.857	6415.88
822.11	6300.88
822.362	6326.88
822.614	6339.88
822.866	6384.88
823.118	6320.88
823.37	6446.88
823.622	6429.88
823.874	6418.88
824.126	6495.88
824.378	6468.88
824.63	6536.88
824.882	6620.88
825.134	6528.88
825.385	6564.88
825.637	6491.88
825.888	6446.88
826.14	6454.88
826.392	6334.88
826.643	6283.88
826.895	6356.88
827.146	6264.88
827.397	6264.88
827.649	6336.88
827.9	6216.88
828.151	6244.88
828.402	6307.88
828.653	6344.88
828.905	6354.88
829.156	6345.88
829.407	6306.88
829.658	6333.88
829.909	6423.88
830.159	6378.88
830.41	6342.88
830.661	6288.88
830.912	6274.88
831.162	6217.88
831.413	6220.88
831.664	6249.88
831.914	6255.88
832.165	6228.88
832.415	6224.88
832.666	6251.88
832.916	6263.88
833.167	6195.88
833.417	6300.88
833.667	6243.88
833.917	6181.88
834.168	6289.88
834.418	6264.88
834.668	6216.88
834.918	6180.88
835.168	6193.88
835.418	6096.88
835.668	6118.88
835.918	6134.88
836.167	6079.88
836.417	6048.88
836.667	6060.88
836.917	6131.88
837.166	6019.88
837.416	6050.88
837.666	6070.88
837.915	6030.88
838.165	5996.88
838.414	5887.88
838.663	5869.88
838.913	5961.88
839.162	5880.88
839.411	5984.88
839.661	5925.88
839.91	5911.88
840.159	5897.88
840.408	5868.88
840.657	5866.88
840.906	5993.88
841.155	5967.88
841.404	5889.88
841.653	5926.88
841.902	5861.88
842.15	5898.88
842.399	5898.88
842.648	5920.88
842.897	5896.88
843.145	5837.88
843.394	5818.88
843.642	5746.88
843.891	5792.88
844.139	5779.88
844.388	5674.88
844.636	5675.88
844.884	5674.88
845.133	5630.88
845.381	5668.88
845.629	5643.88
845.877	5653.88
846.125	5666.88
846.373	5702.88
846.621	5630.88
846.869	5624.88
847.117	5589.88
847.365	5536.88
847.613	5513.88
847.861	5568.88
848.108	5570.88
848.356	5559.88
848.604	5502.88
848.851	5559.88
849.099	5518.88
849.346	5547.88
849.594	5570.88
849.841	5683.88
850.089	5551.88
850.336	5644.88
850.583	5619.88
850.831	5611.88
851.078	5618.88
851.325	5618.88
851.572	5751.88
851.819	5661.88
852.066	5454.88
852.313	5318.88
852.56	5293.88
852.807	5258.88
853.054	5302.88
853.301	5311.88
853.548	5311.88
853.794	5407.88
854.041	5380.88
854.288	5390.88
854.534	5481.88
854.781	5384.88
855.028	5352.88
855.274	5422.88
855.52	5295.88
855.767	5294.88
856.013	5292.88
856.26	5576.88
856.506	5226.88
856.752	5279.88
856.998	5258.88
857.244	5264.88
857.49	5273.88
857.736	5319.88
857.982	5296.88
858.228	5301.88
858.474	5203.88
858.72	5174.88
858.966	5134.88
859.212	5155.88
859.458	5095.88
859.703	5077.88
859.949	4908.88
860.195	4965.88
860.44	4951.88
860.686	4880.88
860.931	4941.88
861.177	4825.88
861.422	4864.88
861.667	4825.88
861.913	4839.88
862.158	4839.88
862.403	4919.88
862.648	4913.88
862.893	4950.88
863.138	4894.88
863.384	4843.88
863.629	4898.88
863.873	4908.88
864.118	4850.88
864.363	4783.88
864.608	4862.88
864.853	4862.88
865.098	4806.88
865.342	4787.88
865.587	4769.88
865.832	4794.88
866.076	4755.88
866.321	4731.88
866.565	4757.88
866.81	4619.88
867.054	4666.88
867.298	4656.88
867.543	4634.88
867.787	4707.88
868.031	4614.88
868.275	4636.88
868.519	4681.88
868.764	4606.88
869.008	4602.88
869.252	4651.88
869.496	4575.88
869.739	4635.88
869.983	4618.88
870.227	4568.88
870.471	4577.88
870.715	4637.88
870.958	4641.88
871.202	4618.88
871.446	4600.88
871.689	4575.88
871.933	4597.88
872.176	4582.88
872.42	4615.88
872.663	4588.88
872.906	4644.88
873.15	4552.88
873.393	4485.88
873.636	4574.88
873.879	4507.88
874.122	4485.88
874.366	4467.88
874.609	4444.88
874.852	4355.88
875.095	4379.88
875.337	4320.88
875.58	4274.88
875.823	4331.88
876.066	4300.88
876.309	4319.88
876.551	4216.88
876.794	4196.88
877.037	4243.88
877.279	4172.88
877.522	4203.88
877.764	4249.88
878.007	4159.88
878.249	4196.88
878.491	4188.88
878.734	4262.88
878.976	4186.88
879.218	4133.88
879.46	4149.88
879.702	4132.88
879.945	4119.88
880.187	4053.88
880.429	4047.88
880.671	4044.88
880.912	4022.88
881.154	4002.88
881.396	3902.88
881.638	3986.88
881.88	3964.88
882.121	3898.88
882.363	3962.88
882.605	3996.88
882.846	3955.88
883.088	3954.88
883.329	3923.88
883.571	3893.88
883.812	3936.88
884.053	3956.88
884.295	4084.88
884.536	4207.88
884.777	4131.88
885.018	4168.88
885.259	4088.88
885.5	4079.88
885.742	4330.88
885.982	4078.88
886.223	4009.88
886.464	3998.88
886.705	3884.88
886.946	3953.88
887.187	3782.88
887.428	3823.88
887.668	3720.88
887.909	3662.88
888.15	3670.88
888.39	3722.88
888.631	3678.88
888.871	3651.88
889.111	3588.88
889.352	3597.88
889.592	3547.88
889.833	3512.88
890.073	3540.88
890.313	3552.88
890.553	3435.88
890.793	3465.88
891.033	3422.88
891.273	3398.88
891.513	3386.88
891.753	3481.88
891.993	3415.88
892.233	3427.88
892.473	3477.88
892.713	3433.88
892.952	3413.88
893.192	3404.88
893.432	3404.88
893.671	3482.88
893.911	3405.88
894.15	3423.88
894.39	3313.88
894.629	3316.88
894.869	3371.88
895.108	3311.88
895.347	3299.88
895.587	3278.88
895.826	3265.88
896.065	3254.88
896.304	3292.88
896.543	3313.88
896.782	3209.88
897.021	3270.88
897.26	3276.88
897.499	3317.88
897.738	3332.88
897.977	3237.88
898.216	3240.88
898.454	3166.88
898.693	3152.88
898.932	3156.88
899.17	3108.88
899.409	3129.88
899.647	3083.88
899.886	3058.88
900.124	3136.88
900.363	3076.88
900.601	3166.88
900.839	3113.88
901.078	3116.88
901.316	3143.88
901.554	3126.88
901.792	3170.88
902.03	3113.88
902.268	3162.88
902.506	3168.88
902.744	3088.88
902.982	3141.88
903.22	3065.88
903.458	3030.88
903.695	3008.88
903.933	3009.88
904.171	2893.88
904.409	2879.88
904.646	2900.88
904.884	2826.88
905.121	2866.88
905.359	2776.88
905.596	2767.88
905.833	2688.88
906.071	2730.88
906.308	2779.88
906.545	2724.88
906.783	2635.88
907.02	2694.88
907.257	2649.88
907.494	2680.88
907.731	2694.88
907.968	2697.88
908.205	2658.88
908.442	2608.88
908.679	2663.88
908.915	2600.88
909.152	2628.88
909.389	2532.88
909.626	2551.88
909.862	2494.88
910.099	2534.88
910.335	2611.88
910.572	2489.88
910.808	2493.88
911.045	2509.88
911.281	2458.88
911.518	2517.88
911.754	2481.88
911.99	2456.88
912.226	2427.88
912.463	2419.88
912.699	2411.88
912.935	2364.88
913.171	2321.88
913.407	2325.88
913.643	2401.88
913.879	2339.88
914.114	2324.88
914.35	2288.88
914.586	2294.88
914.822	2227.88
915.057	2335.88
915.293	2175.88
915.529	2190.88
915.764	2261.88
916	2242.88
916.235	2199.88
916.471	2266.88
916.706	2154.88
916.941	2185.88
917.177	2214.88
917.412	2213.88
917.647	2241.88
917.882	2219.88
918.117	2253.88
918.352	2202.88
918.588	2250.88
918.823	2174.88
919.057	2169.88
919.292	2076.88
919.527	2172.88
919.762	2109.88
919.997	2143.88
920.232	2077.88
920.466	2121.88
920.701	1977.88
920.935	2002.88
921.17	2045.88
921.405	1991.88
921.639	2050.88
921.873	2004.88
922.108	2005.88
922.342	2054.88
922.576	1954.88
922.811	1964.88
923.045	2009.88
923.279	2024.88
923.513	1883.88
923.747	2045.88
923.981	1924.88
924.215	1915.88
924.449	1941.88
924.683	1864.88
924.917	1899.88
925.151	1880.88
925.385	1969.88
925.618	1908.88
925.852	1867.88
926.086	1830.88
926.319	1874.88
926.553	1858.88
926.786	1875.88
927.02	1853.88
927.253	1903.88
927.486	1911.88
927.72	1830.88
927.953	1900.88
928.186	1843.88
928.42	1883.88
928.653	1809.88
928.886	1815.88
929.119	1855.88
929.352	1834.88
929.585	1831.88
929.818	1788.88
930.051	1805.88
930.284	1803.88
930.516	1727.88
930.749	1722.88
930.982	1796.88
931.215	1740.88
931.447	1743.88
931.68	1715.88
931.912	1706.88
932.145	1721.88
932.377	1748.88
932.61	1886.88
932.842	1649.88
933.074	1721.88
933.307	1686.88
933.539	1788.88
933.771	1787.88
934.003	1738.88
934.236	1801.88
934.468	1797.88
934.7	1706.88
934.932	1758.88
935.164	1668.88
935.395	1684.88
935.627	1691.88
935.859	1691.88
936.091	1647.88
936.323	1718.88
936.554	1748.88
936.786	1660.88
937.017	1610.88
937.249	1697.88
937.481	1610.88
937.712	1665.88
937.943	1650.88
938.175	1643.88
938.406	1657.88
938.637	1710.88
938.869	1584.88
939.1	1634.88
939.331	1617.88
939.562	1649.88
939.793	1653.88
940.024	1681.88
940.255	1675.88
940.486	1604.88
940.717	1616.88
940.948	1621.88
941.179	1557.88
941.409	1622.88
941.64	1594.88
941.871	1625.88
942.102	1605.88
942.332	1595.88
942.563	1630.88
942.793	1581.88
943.024	1577.88
943.254	1591.88
943.484	1649.88
943.715	1657.88
943.945	1603.88
944.175	1519.88
944.405	1517.88
944.636	1550.88
944.866	1559.88
945.096	1587.88
945.326	1544.88
945.556	1590.88
945.786	1599.88
946.016	1540.88
946.245	1492.88
946.475	1528.88
946.705	1547.88
946.935	1547.88
947.164	1551.88
947.394	1507.88
947.624	1519.88
947.853	1554.88
948.083	1512.88
948.312	1510.88
948.542	1437.88
948.771	1460.88
949	1415.88
949.23	1473.88
949.459	1480.88
949.688	1536.88
949.917	1458.88
950.146	1505.88
950.375	1534.88
950.604	1447.88
950.833	1534.88
951.062	1531.88
951.291	1482.88
951.52	1460.88
951.749	1484.88
951.978	1442.88
952.206	1445.88
952.435	1433.88
952.664	1491.88
952.892	1466.88
953.121	1432.88
953.349	1506.88
953.578	1459.88
953.806	1469.88
954.035	1385.88
954.263	1438.88
954.491	1406.88
954.719	1452.88
954.948	1373.88
955.176	1406.88
955.404	1345.88
955.632	1421.88
955.86	1421.88
956.088	1391.88
956.316	1448.88
956.544	1456.88
956.772	1399.88
956.999	1353.88
957.227	1458.88
957.455	1376.88
957.683	1400.88
957.91	1357.88
958.138	1342.88
958.365	1351.88
958.593	1334.88
958.82	1291.88
959.048	1379.88
959.275	1342.88
959.502	1345.88
959.73	1338.88
959.957	1365.88
960.184	1418.88
960.411	1352.88
960.638	1431.88
960.865	1375.88
961.092	1366.88
961.319	1280.88
961.546	1376.88
961.773	1379.88
962	1288.88
962.227	1388.88
962.454	1317.88
962.68	1335.88
962.907	1367.88
963.134	1305.88
963.36	1323.88
963.587	1356.88
963.813	1282.88
964.04	1338.88
964.266	1264.88
964.493	1355.88
964.719	1344.88
964.945	1328.88
965.171	1233.88
965.398	1291.88
965.624	1338.88
965.85	1251.88
966.076	1261.88
966.302	1303.88
966.528	1257.88
966.754	1309.88
966.98	1295.88
967.206	1288.88
967.431	1221.88
967.657	1314.88
967.883	1258.88
968.109	1275.88
968.334	1206.88
968.56	1216.88
968.785	1233.88
969.011	1186.88
969.236	1281.88
969.462	1205.88
969.687	1221.88
969.912	1258.88
970.138	1280.88
970.363	1205.88
970.588	1235.88
970.813	1203.88
971.038	1207.88
971.263	1248.88
971.488	1222.88
971.713	1258.88
971.938	1256.88
972.163	1183.88
972.388	1189.88
972.613	1169.88
972.838	1198.88
973.062	1182.88
973.287	1164.88
973.512	1139.88
973.736	1167.88
973.961	1171.88
974.185	1151.88
974.41	1187.88
974.634	1107.88
974.858	1113.88
975.083	1151.88
975.307	1165.88
975.531	1129.88
975.755	1081.88
975.98	1092.88
976.204	1033.88
976.428	1058.88
976.652	1074.88
976.876	1038.88
977.1	1093.88
977.324	1073.88
977.547	1121.88
977.771	1117.88
977.995	1068.88
978.219	1026.88
978.442	1144.88
978.666	1119.88
978.89	1095.88
979.113	1081.88
979.337	1071.88
979.56	1030.88
979.783	1123.88
980.007	1003.88
980.23	1055.88
980.453	1051.88
980.677	1093.88
980.9	1056.88
981.123	997.88
981.346	1067.88
981.569	1057.88
981.792	1077.88
982.015	1057.88
982.238	1023.88
982.461	1059.88
982.684	1022.88
982.907	996.88
983.129	987.88
983.352	1041.88
983.575	1036.88
983.797	1050.88
984.02	1021.88
984.242	988.88
984.465	1034.88
984.687	1044.88
984.91	1053.88
985.132	1050.88
985.354	1060.88
985.577	1022.88
985.799	1031.88
986.021	954.88
986.243	977.88
986.465	995.88
986.687	1042.88
986.909	1071.88
987.131	1028.88
987.353	993.88
987.575	1036.88
987.797	998.88
988.019	941.88
988.241	991.88
988.462	953.88
988.684	1021.88
988.906	1073.88
989.127	1081.88
989.349	962.88
989.57	980.88
989.792	1018.88
990.013	1052.88
990.234	1037.88
990.456	1077.88
990.677	1059.88
990.898	1006.88
991.119	1000.88
991.341	1024.88
991.562	957.88
991.783	1036.88
992.004	962.88
992.225	968.88
992.446	1013.88
992.667	887.88
992.887	1013.88
993.108	896.88
993.329	1058.88
993.55	994.88
993.77	939.88
993.991	951.88
994.212	971.88
994.432	980.88
994.653	985.88
994.873	969.88
995.093	874.88
995.314	929.88
995.534	1001.88
995.754	997.88
995.975	1018.88
996.195	920.88
996.415	978.88
996.635	937.88
996.855	990.88
997.075	951.88
997.295	921.88
997.515	941.88
997.735	986.88
997.955	955.88
998.174	942.88
998.394	927.88
998.614	972.88
998.834	934.88
999.053	986.88
999.273	960.88
999.492	1019.88
999.712	957.88
999.931	925.88
1000.151	974.88
1000.37	987.88
1000.589	1038.88
1000.809	944.88
1001.028	1069.88
1001.247	1015.88
1001.466	885.88
1001.685	1040.88
1001.904	1021.88
1002.123	993.88
1002.342	996.88
1002.561	948.88
1002.78	988.88
1002.999	1043.88
1003.218	976.88
1003.436	977.88
1003.655	1033.88
1003.874	966.88
1004.092	980.88
1004.311	1041.88
1004.53	980.88
1004.748	1069.88
1004.966	985.88
1005.185	1041.88
1005.403	1025.88
1005.622	1021.88
1005.84	1077.88
1006.058	994.88
1006.276	1009.88
1006.494	1504.88
1006.712	1019.88
1006.931	1047.88
1007.149	972.88
1007.367	992.88
1007.584	1026.88
1007.802	1057.88
1008.02	990.88
1008.238	1088.88
1008.456	1073.88
1008.673	944.88
1008.891	1049.88
1009.109	1015.88
1009.326	1029.88
1009.544	1110.88
1009.761	999.88
1009.979	1081.88
1010.196	1071.88
1010.413	1139.88
1010.631	1148.88
1010.848	1175.88
1011.065	1192.88
1011.282	1116.88
1011.5	1046.88
1011.717	1177.88
1011.934	1105.88
1012.151	1169.88
1012.368	1124.88
1012.585	1081.88
1012.801	1128.88
1013.018	1103.88
1013.235	1066.88
1013.452	1078.88
1013.669	1086.88
1013.885	1076.88
1014.102	1109.88
1014.318	1080.88
1014.535	1026.88
1014.751	1079.88
1014.968	1084.88
1015.184	1120.88
1015.401	1045.88
1015.617	1078.88
1015.833	1017.88
1016.049	1038.88
1016.266	1035.88
1016.482	1028.88
1016.698	958.88
1016.914	1028.88
1017.13	978.88
1017.346	961.88
1017.562	1044.88
1017.778	970.88
1017.993	963.88
1018.209	1015.88
1018.425	990.88
1018.641	938.88
1018.856	921.88
1019.072	964.88
1019.288	1004.88
1019.503	948.88
1019.719	890.88
1019.934	893.88
1020.149	974.88
1020.365	908.88
1020.58	883.88
1020.795	932.88
1021.011	894.88
1021.226	865.88
1021.441	906.88
1021.656	830.88
1021.871	803.88
1022.086	807.88
1022.301	785.88
1022.516	800.88
1022.731	899.88
1022.946	772.88
1023.16	753.88
1023.375	737.88
1023.59	709.88
1023.804	716.88
1024.019	816.88
1024.234	692.88
1024.448	713.88
1024.663	659.88
1024.877	689.88
1025.092	711.88
1025.306	720.88
1025.52	631.88
1025.734	732.88
1025.949	644.88
1026.163	615.88
1026.377	568.88
1026.591	646.88
1026.805	575.88
1027.019	561.88
1027.233	540.88
1027.447	498.88
1027.661	594.88
1027.875	533.88
1028.088	557.88
1028.302	498.88
1028.516	485.88
1028.73	488.88
1028.943	494.88
1029.157	473.88
1029.37	431.88
1029.584	-2.12
1029.797	-2.12
1030.011	-2.12
1030.224	-1.12
