Data from QEP037381__120__10-23-22-733.txt Node

Date: Wed Dec 21 10:23:22 EST 2022
User: dcclab
Spectrometer: QEP03738
Trigger mode: 4
Integration Time (sec): 1.000000E1
Scans to average: 1
Electric dark correction enabled: true
Nonlinearity correction enabled: false
Boxcar width: 0
XAxis mode: Wavelengths
Number of Pixels in Spectrum: 1044
>>>>>Begin Spectral Data<<<<<
784.041	11.62
784.3	2.62
784.558	-1.38
784.817	-2.38
785.075	81628.62
785.334	14005.62
785.592	6567.62
785.851	4483.62
786.109	3415.62
786.368	2631.62
786.626	2138.62
786.884	1775.62
787.143	1483.62
787.401	1206.62
787.659	1112.62
787.917	952.62
788.175	902.62
788.433	783.62
788.691	704.62
788.949	661.62
789.207	627.62
789.465	564.62
789.723	534.62
789.98	487.62
790.238	524.62
790.496	512.62
790.753	484.62
791.011	538.62
791.268	468.62
791.526	455.62
791.783	485.62
792.041	449.62
792.298	375.62
792.556	435.62
792.813	414.62
793.07	399.62
793.327	387.62
793.584	467.62
793.841	408.62
794.099	418.62
794.356	455.62
794.613	388.62
794.869	405.62
795.126	380.62
795.383	363.62
795.64	385.62
795.897	339.62
796.153	369.62
796.41	377.62
796.667	354.62
796.923	374.62
797.18	364.62
797.436	384.62
797.693	351.62
797.949	399.62
798.206	415.62
798.462	335.62
798.718	373.62
798.974	376.62
799.231	414.62
799.487	370.62
799.743	388.62
799.999	396.62
800.255	392.62
800.511	364.62
800.767	404.62
801.023	379.62
801.279	393.62
801.534	388.62
801.79	423.62
802.046	390.62
802.302	451.62
802.557	453.62
802.813	500.62
803.068	493.62
803.324	607.62
803.579	692.62
803.835	836.62
804.09	1084.62
804.345	1292.62
804.601	1550.62
804.856	1871.62
805.111	2143.62
805.366	2293.62
805.621	2384.62
805.876	2473.62
806.131	2519.62
806.386	2558.62
806.641	2542.62
806.896	2606.62
807.151	2742.62
807.406	2700.62
807.661	2735.62
807.915	2762.62
808.17	2891.62
808.425	2816.62
808.679	2854.62
808.934	2929.62
809.188	2912.62
809.443	2969.62
809.697	3015.62
809.951	2979.62
810.206	3021.62
810.46	3074.62
810.714	3078.62
810.968	3145.62
811.223	3098.62
811.477	3104.62
811.731	3163.62
811.985	3141.62
812.239	3143.62
812.493	3169.62
812.747	3214.62
813	3149.62
813.254	3244.62
813.508	3261.62
813.762	3227.62
814.015	3230.62
814.269	3253.62
814.522	3328.62
814.776	3391.62
815.03	3420.62
815.283	3432.62
815.536	3497.62
815.79	3578.62
816.043	3567.62
816.296	3639.62
816.55	3619.62
816.803	3675.62
817.056	3737.62
817.309	3807.62
817.562	3748.62
817.815	3880.62
818.068	3831.62
818.321	3838.62
818.574	3917.62
818.827	3976.62
819.079	3976.62
819.332	4176.62
819.585	4186.62
819.838	4300.62
820.09	4181.62
820.343	4271.62
820.595	4259.62
820.848	4335.62
821.1	4262.62
821.353	4343.62
821.605	4293.62
821.857	4363.62
822.11	4278.62
822.362	4283.62
822.614	4238.62
822.866	4343.62
823.118	4287.62
823.37	4422.62
823.622	4371.62
823.874	4341.62
824.126	4437.62
824.378	4406.62
824.63	4483.62
824.882	4437.62
825.134	4401.62
825.385	4433.62
825.637	4376.62
825.888	4368.62
826.14	4313.62
826.392	4309.62
826.643	4251.62
826.895	4338.62
827.146	4250.62
827.397	4202.62
827.649	4293.62
827.9	4245.62
828.151	4187.62
828.402	4232.62
828.653	4290.62
828.905	4214.62
829.156	4326.62
829.407	4250.62
829.658	4279.62
829.909	4334.62
830.159	4272.62
830.41	4262.62
830.661	4264.62
830.912	4210.62
831.162	4218.62
831.413	4245.62
831.664	4220.62
831.914	4197.62
832.165	4235.62
832.415	4238.62
832.666	4258.62
832.916	4284.62
833.167	4233.62
833.417	4302.62
833.667	4255.62
833.917	4269.62
834.168	4278.62
834.418	4214.62
834.668	4242.62
834.918	4160.62
835.168	4216.62
835.418	4126.62
835.668	4167.62
835.918	4175.62
836.167	4147.62
836.417	4090.62
836.667	4156.62
836.917	4180.62
837.166	4103.62
837.416	4174.62
837.666	4159.62
837.915	4091.62
838.165	4066.62
838.414	4047.62
838.663	4001.62
838.913	4063.62
839.162	4004.62
839.411	4091.62
839.661	4018.62
839.91	3996.62
840.159	4055.62
840.408	4044.62
840.657	4043.62
840.906	4056.62
841.155	4082.62
841.404	4066.62
841.653	4030.62
841.902	3994.62
842.15	4045.62
842.399	4028.62
842.648	4038.62
842.897	4000.62
843.145	3978.62
843.394	3941.62
843.642	3948.62
843.891	3990.62
844.139	3893.62
844.388	3867.62
844.636	3883.62
844.884	3862.62
845.133	3835.62
845.381	3859.62
845.629	3908.62
845.877	3833.62
846.125	3881.62
846.373	3912.62
846.621	3842.62
846.869	3905.62
847.117	3860.62
847.365	3787.62
847.613	3782.62
847.861	3791.62
848.108	3815.62
848.356	3808.62
848.604	3799.62
848.851	3826.62
849.099	3836.62
849.346	3811.62
849.594	3859.62
849.841	3869.62
850.089	3835.62
850.336	3821.62
850.583	3888.62
850.831	3915.62
851.078	3906.62
851.325	3922.62
851.572	4086.62
851.819	3975.62
852.066	3823.62
852.313	3672.62
852.56	3608.62
852.807	3605.62
853.054	3565.62
853.301	3676.62
853.548	3683.62
853.794	3829.62
854.041	3739.62
854.288	3736.62
854.534	3847.62
854.781	3717.62
855.028	3695.62
855.274	3798.62
855.52	3651.62
855.767	3661.62
856.013	3698.62
856.26	3969.62
856.506	3658.62
856.752	3695.62
856.998	3644.62
857.244	3613.62
857.49	3696.62
857.736	3682.62
857.982	3681.62
858.228	3679.62
858.474	3588.62
858.72	3635.62
858.966	3590.62
859.212	3545.62
859.458	3504.62
859.703	3464.62
859.949	3428.62
860.195	3443.62
860.44	3462.62
860.686	3365.62
860.931	3435.62
861.177	3377.62
861.422	3414.62
861.667	3348.62
861.913	3327.62
862.158	3367.62
862.403	3414.62
862.648	3417.62
862.893	3472.62
863.138	3363.62
863.384	3364.62
863.629	3414.62
863.873	3387.62
864.118	3341.62
864.363	3246.62
864.608	3385.62
864.853	3397.62
865.098	3371.62
865.342	3361.62
865.587	3314.62
865.832	3338.62
866.076	3295.62
866.321	3286.62
866.565	3308.62
866.81	3216.62
867.054	3239.62
867.298	3239.62
867.543	3197.62
867.787	3223.62
868.031	3237.62
868.275	3259.62
868.519	3248.62
868.764	3249.62
869.008	3189.62
869.252	3261.62
869.496	3199.62
869.739	3189.62
869.983	3258.62
870.227	3240.62
870.471	3162.62
870.715	3286.62
870.958	3279.62
871.202	3178.62
871.446	3250.62
871.689	3251.62
871.933	3276.62
872.176	3222.62
872.42	3225.62
872.663	3249.62
872.906	3290.62
873.15	3236.62
873.393	3187.62
873.636	3239.62
873.879	3231.62
874.122	3198.62
874.366	3116.62
874.609	3144.62
874.852	3097.62
875.095	3083.62
875.337	3024.62
875.58	2988.62
875.823	3047.62
876.066	3064.62
876.309	3068.62
876.551	2966.62
876.794	2940.62
877.037	3004.62
877.279	2954.62
877.522	2940.62
877.764	2955.62
878.007	2935.62
878.249	2949.62
878.491	2933.62
878.734	2996.62
878.976	2970.62
879.218	2863.62
879.46	2943.62
879.702	2941.62
879.945	2856.62
880.187	2831.62
880.429	2827.62
880.671	2849.62
880.912	2793.62
881.154	2772.62
881.396	2698.62
881.638	2805.62
881.88	2803.62
882.121	2747.62
882.363	2771.62
882.605	2853.62
882.846	2792.62
883.088	2826.62
883.329	2752.62
883.571	2721.62
883.812	2778.62
884.053	2868.62
884.295	2932.62
884.536	3035.62
884.777	3017.62
885.018	2983.62
885.259	2954.62
885.5	2933.62
885.742	3180.62
885.982	2903.62
886.223	2856.62
886.464	2832.62
886.705	2768.62
886.946	2799.62
887.187	2672.62
887.428	2733.62
887.668	2626.62
887.909	2613.62
888.15	2581.62
888.39	2611.62
888.631	2659.62
888.871	2621.62
889.111	2588.62
889.352	2523.62
889.592	2489.62
889.833	2487.62
890.073	2482.62
890.313	2522.62
890.553	2418.62
890.793	2434.62
891.033	2396.62
891.273	2402.62
891.513	2420.62
891.753	2497.62
891.993	2384.62
892.233	2434.62
892.473	2480.62
892.713	2428.62
892.952	2370.62
893.192	2430.62
893.432	2407.62
893.671	2493.62
893.911	2430.62
894.15	2414.62
894.39	2329.62
894.629	2343.62
894.869	2391.62
895.108	2374.62
895.347	2299.62
895.587	2366.62
895.826	2310.62
896.065	2319.62
896.304	2337.62
896.543	2369.62
896.782	2280.62
897.021	2319.62
897.26	2358.62
897.499	2390.62
897.738	2385.62
897.977	2319.62
898.216	2327.62
898.454	2243.62
898.693	2228.62
898.932	2279.62
899.17	2221.62
899.409	2233.62
899.647	2235.62
899.886	2202.62
900.124	2259.62
900.363	2216.62
900.601	2222.62
900.839	2261.62
901.078	2261.62
901.316	2286.62
901.554	2283.62
901.792	2276.62
902.03	2248.62
902.268	2306.62
902.506	2277.62
902.744	2256.62
902.982	2288.62
903.22	2167.62
903.458	2173.62
903.695	2211.62
903.933	2182.62
904.171	2075.62
904.409	2062.62
904.646	2063.62
904.884	1995.62
905.121	2028.62
905.359	2034.62
905.596	1997.62
905.833	1951.62
906.071	1922.62
906.308	1975.62
906.545	1963.62
906.783	1909.62
907.02	1928.62
907.257	1940.62
907.494	1929.62
907.731	1956.62
907.968	1942.62
908.205	1896.62
908.442	1886.62
908.679	1903.62
908.915	1913.62
909.152	1892.62
909.389	1823.62
909.626	1823.62
909.862	1778.62
910.099	1844.62
910.335	1851.62
910.572	1761.62
910.808	1833.62
911.045	1818.62
911.281	1779.62
911.518	1847.62
911.754	1817.62
911.99	1778.62
912.226	1768.62
912.463	1733.62
912.699	1740.62
912.935	1721.62
913.171	1751.62
913.407	1718.62
913.643	1729.62
913.879	1677.62
914.114	1681.62
914.35	1678.62
914.586	1636.62
914.822	1611.62
915.057	1732.62
915.293	1609.62
915.529	1628.62
915.764	1706.62
916	1655.62
916.235	1646.62
916.471	1664.62
916.706	1588.62
916.941	1633.62
917.177	1604.62
917.412	1635.62
917.647	1630.62
917.882	1567.62
918.117	1645.62
918.352	1612.62
918.588	1660.62
918.823	1617.62
919.057	1595.62
919.292	1484.62
919.527	1617.62
919.762	1516.62
919.997	1604.62
920.232	1509.62
920.466	1563.62
920.701	1464.62
920.935	1509.62
921.17	1483.62
921.405	1455.62
921.639	1521.62
921.873	1477.62
922.108	1511.62
922.342	1491.62
922.576	1419.62
922.811	1458.62
923.045	1523.62
923.279	1532.62
923.513	1411.62
923.747	1508.62
923.981	1461.62
924.215	1401.62
924.449	1409.62
924.683	1377.62
924.917	1395.62
925.151	1410.62
925.385	1468.62
925.618	1426.62
925.852	1411.62
926.086	1351.62
926.319	1403.62
926.553	1379.62
926.786	1393.62
927.02	1402.62
927.253	1450.62
927.486	1433.62
927.72	1356.62
927.953	1449.62
928.186	1387.62
928.42	1400.62
928.653	1340.62
928.886	1368.62
929.119	1400.62
929.352	1374.62
929.585	1376.62
929.818	1302.62
930.051	1357.62
930.284	1355.62
930.516	1299.62
930.749	1287.62
930.982	1356.62
931.215	1343.62
931.447	1274.62
931.68	1281.62
931.912	1285.62
932.145	1286.62
932.377	1304.62
932.61	1424.62
932.842	1236.62
933.074	1330.62
933.307	1259.62
933.539	1383.62
933.771	1371.62
934.003	1298.62
934.236	1359.62
934.468	1362.62
934.7	1294.62
934.932	1369.62
935.164	1294.62
935.395	1243.62
935.627	1309.62
935.859	1311.62
936.091	1235.62
936.323	1321.62
936.554	1328.62
936.786	1273.62
937.017	1254.62
937.249	1291.62
937.481	1224.62
937.712	1303.62
937.943	1261.62
938.175	1254.62
938.406	1240.62
938.637	1311.62
938.869	1221.62
939.1	1279.62
939.331	1223.62
939.562	1294.62
939.793	1279.62
940.024	1277.62
940.255	1257.62
940.486	1244.62
940.717	1232.62
940.948	1226.62
941.179	1197.62
941.409	1233.62
941.64	1211.62
941.871	1226.62
942.102	1181.62
942.332	1205.62
942.563	1257.62
942.793	1245.62
943.024	1179.62
943.254	1242.62
943.484	1252.62
943.715	1258.62
943.945	1247.62
944.175	1180.62
944.405	1143.62
944.636	1180.62
944.866	1208.62
945.096	1228.62
945.326	1180.62
945.556	1221.62
945.786	1247.62
946.016	1193.62
946.245	1187.62
946.475	1160.62
946.705	1158.62
946.935	1182.62
947.164	1170.62
947.394	1141.62
947.624	1172.62
947.853	1202.62
948.083	1191.62
948.312	1163.62
948.542	1115.62
948.771	1106.62
949	1134.62
949.23	1135.62
949.459	1164.62
949.688	1220.62
949.917	1164.62
950.146	1175.62
950.375	1207.62
950.604	1105.62
950.833	1199.62
951.062	1206.62
951.291	1163.62
951.52	1113.62
951.749	1129.62
951.978	1126.62
952.206	1113.62
952.435	1119.62
952.664	1150.62
952.892	1173.62
953.121	1130.62
953.349	1154.62
953.578	1158.62
953.806	1142.62
954.035	1068.62
954.263	1146.62
954.491	1082.62
954.719	1127.62
954.948	1080.62
955.176	1097.62
955.404	1036.62
955.632	1095.62
955.86	1114.62
956.088	1109.62
956.316	1133.62
956.544	1140.62
956.772	1110.62
956.999	1062.62
957.227	1158.62
957.455	1092.62
957.683	1095.62
957.91	1060.62
958.138	1053.62
958.365	1070.62
958.593	1043.62
958.82	986.62
959.048	1086.62
959.275	1069.62
959.502	1049.62
959.73	1056.62
959.957	1092.62
960.184	1149.62
960.411	1093.62
960.638	1146.62
960.865	1064.62
961.092	1101.62
961.319	1003.62
961.546	1072.62
961.773	1097.62
962	1062.62
962.227	1103.62
962.454	1055.62
962.68	1056.62
962.907	1080.62
963.134	1019.62
963.36	1079.62
963.587	1091.62
963.813	1017.62
964.04	1059.62
964.266	1007.62
964.493	1108.62
964.719	1072.62
964.945	1076.62
965.171	1002.62
965.398	1028.62
965.624	1060.62
965.85	994.62
966.076	1003.62
966.302	1063.62
966.528	1037.62
966.754	1040.62
966.98	1027.62
967.206	1020.62
967.431	982.62
967.657	1072.62
967.883	1038.62
968.109	1033.62
968.334	993.62
968.56	959.62
968.785	986.62
969.011	964.62
969.236	1018.62
969.462	976.62
969.687	979.62
969.912	1039.62
970.138	1043.62
970.363	974.62
970.588	1001.62
970.813	1006.62
971.038	967.62
971.263	1006.62
971.488	1038.62
971.713	1046.62
971.938	1035.62
972.163	926.62
972.388	974.62
972.613	958.62
972.838	984.62
973.062	961.62
973.287	962.62
973.512	910.62
973.736	964.62
973.961	947.62
974.185	925.62
974.41	954.62
974.634	880.62
974.858	893.62
975.083	946.62
975.307	963.62
975.531	921.62
975.755	881.62
975.98	876.62
976.204	859.62
976.428	842.62
976.652	863.62
976.876	879.62
977.1	904.62
977.324	851.62
977.547	926.62
977.771	939.62
977.995	892.62
978.219	845.62
978.442	969.62
978.666	900.62
978.89	903.62
979.113	886.62
979.337	878.62
979.56	851.62
979.783	959.62
980.007	858.62
980.23	889.62
980.453	887.62
980.677	891.62
980.9	884.62
981.123	788.62
981.346	898.62
981.569	879.62
981.792	936.62
982.015	883.62
982.238	846.62
982.461	868.62
982.684	841.62
982.907	841.62
983.129	829.62
983.352	877.62
983.575	873.62
983.797	888.62
984.02	826.62
984.242	840.62
984.465	859.62
984.687	892.62
984.91	921.62
985.132	869.62
985.354	890.62
985.577	880.62
985.799	871.62
986.021	807.62
986.243	842.62
986.465	850.62
986.687	905.62
986.909	916.62
987.131	858.62
987.353	855.62
987.575	894.62
987.797	851.62
988.019	762.62
988.241	852.62
988.462	804.62
988.684	853.62
988.906	903.62
989.127	933.62
989.349	803.62
989.57	834.62
989.792	887.62
990.013	893.62
990.234	899.62
990.456	932.62
990.677	922.62
990.898	870.62
991.119	863.62
991.341	890.62
991.562	829.62
991.783	866.62
992.004	844.62
992.225	794.62
992.446	855.62
992.667	790.62
992.887	879.62
993.108	767.62
993.329	907.62
993.55	853.62
993.77	799.62
993.991	824.62
994.212	877.62
994.432	823.62
994.653	856.62
994.873	849.62
995.093	753.62
995.314	806.62
995.534	863.62
995.754	904.62
995.975	888.62
996.195	791.62
996.415	854.62
996.635	833.62
996.855	859.62
997.075	836.62
997.295	820.62
997.515	812.62
997.735	863.62
997.955	828.62
998.174	829.62
998.394	802.62
998.614	859.62
998.834	829.62
999.053	898.62
999.273	862.62
999.492	920.62
999.712	862.62
999.931	821.62
1000.151	859.62
1000.37	850.62
1000.589	938.62
1000.809	836.62
1001.028	980.62
1001.247	886.62
1001.466	805.62
1001.685	932.62
1001.904	906.62
1002.123	883.62
1002.342	879.62
1002.561	868.62
1002.78	887.62
1002.999	940.62
1003.218	897.62
1003.436	885.62
1003.655	903.62
1003.874	866.62
1004.092	899.62
1004.311	929.62
1004.53	912.62
1004.748	981.62
1004.966	889.62
1005.185	967.62
1005.403	951.62
1005.622	927.62
1005.84	992.62
1006.058	892.62
1006.276	918.62
1006.494	1402.62
1006.712	917.62
1006.931	989.62
1007.149	899.62
1007.367	882.62
1007.584	918.62
1007.802	949.62
1008.02	908.62
1008.238	988.62
1008.456	986.62
1008.673	848.62
1008.891	958.62
1009.109	909.62
1009.326	945.62
1009.544	1008.62
1009.761	919.62
1009.979	1007.62
1010.196	987.62
1010.413	1041.62
1010.631	1082.62
1010.848	1098.62
1011.065	1090.62
1011.282	1038.62
1011.5	975.62
1011.717	1070.62
1011.934	1028.62
1012.151	1073.62
1012.368	1069.62
1012.585	981.62
1012.801	1043.62
1013.018	1028.62
1013.235	992.62
1013.452	992.62
1013.669	1003.62
1013.885	988.62
1014.102	1038.62
1014.318	984.62
1014.535	955.62
1014.751	998.62
1014.968	997.62
1015.184	1010.62
1015.401	955.62
1015.617	996.62
1015.833	953.62
1016.049	966.62
1016.266	945.62
1016.482	950.62
1016.698	920.62
1016.914	956.62
1017.13	893.62
1017.346	897.62
1017.562	972.62
1017.778	888.62
1017.993	873.62
1018.209	937.62
1018.425	900.62
1018.641	866.62
1018.856	857.62
1019.072	886.62
1019.288	912.62
1019.503	894.62
1019.719	812.62
1019.934	811.62
1020.149	923.62
1020.365	851.62
1020.58	821.62
1020.795	875.62
1021.011	803.62
1021.226	810.62
1021.441	853.62
1021.656	781.62
1021.871	726.62
1022.086	728.62
1022.301	740.62
1022.516	725.62
1022.731	797.62
1022.946	688.62
1023.16	710.62
1023.375	679.62
1023.59	674.62
1023.804	617.62
1024.019	768.62
1024.234	629.62
1024.448	660.62
1024.663	619.62
1024.877	627.62
1025.092	647.62
1025.306	686.62
1025.52	580.62
1025.734	685.62
1025.949	604.62
1026.163	587.62
1026.377	528.62
1026.591	602.62
1026.805	518.62
1027.019	514.62
1027.233	492.62
1027.447	472.62
1027.661	561.62
1027.875	513.62
1028.088	519.62
1028.302	465.62
1028.516	451.62
1028.73	474.62
1028.943	476.62
1029.157	433.62
1029.37	407.62
1029.584	-4.38
1029.797	-5.38
1030.011	-0.38
1030.224	-0.38
