Data from QEP037381__109__10-21-32-732.txt Node

Date: Wed Dec 21 10:21:32 EST 2022
User: dcclab
Spectrometer: QEP03738
Trigger mode: 4
Integration Time (sec): 1.000000E1
Scans to average: 1
Electric dark correction enabled: true
Nonlinearity correction enabled: false
Boxcar width: 0
XAxis mode: Wavelengths
Number of Pixels in Spectrum: 1044
>>>>>Begin Spectral Data<<<<<
784.041	8.38
784.3	-1.62
784.558	-2.62
784.817	-3.62
785.075	82300.38
785.334	13773.38
785.592	6330.38
785.851	4342.38
786.109	3278.38
786.368	2568.38
786.626	2057.38
786.884	1713.38
787.143	1441.38
787.401	1198.38
787.659	1098.38
787.917	938.38
788.175	889.38
788.433	770.38
788.691	706.38
788.949	657.38
789.207	632.38
789.465	547.38
789.723	531.38
789.98	486.38
790.238	518.38
790.496	518.38
790.753	471.38
791.011	522.38
791.268	474.38
791.526	459.38
791.783	491.38
792.041	456.38
792.298	373.38
792.556	447.38
792.813	436.38
793.07	393.38
793.327	385.38
793.584	463.38
793.841	391.38
794.099	419.38
794.356	462.38
794.613	375.38
794.869	400.38
795.126	382.38
795.383	342.38
795.64	359.38
795.897	328.38
796.153	382.38
796.41	378.38
796.667	351.38
796.923	360.38
797.18	364.38
797.436	391.38
797.693	347.38
797.949	401.38
798.206	423.38
798.462	331.38
798.718	408.38
798.974	350.38
799.231	408.38
799.487	386.38
799.743	386.38
799.999	409.38
800.255	402.38
800.511	383.38
800.767	409.38
801.023	381.38
801.279	396.38
801.534	411.38
801.79	431.38
802.046	410.38
802.302	485.38
802.557	482.38
802.813	544.38
803.068	563.38
803.324	702.38
803.579	822.38
803.835	1036.38
804.09	1366.38
804.345	1718.38
804.601	2101.38
804.856	2541.38
805.111	2925.38
805.366	3164.38
805.621	3300.38
805.876	3442.38
806.131	3543.38
806.386	3493.38
806.641	3562.38
806.896	3635.38
807.151	3761.38
807.406	3764.38
807.661	3833.38
807.915	3923.38
808.17	3964.38
808.425	3972.38
808.679	3933.38
808.934	4127.38
809.188	4114.38
809.443	4172.38
809.697	4266.38
809.951	4243.38
810.206	4233.38
810.46	4363.38
810.714	4410.38
810.968	4462.38
811.223	4344.38
811.477	4535.38
811.731	4483.38
811.985	4467.38
812.239	4453.38
812.493	4516.38
812.747	4577.38
813	4517.38
813.254	4589.38
813.508	4637.38
813.762	4662.38
814.015	4659.38
814.269	4698.38
814.522	4725.38
814.776	4779.38
815.03	4868.38
815.283	4963.38
815.536	5035.38
815.79	5000.38
816.043	5135.38
816.296	5217.38
816.55	5241.38
816.803	5295.38
817.056	5395.38
817.309	5460.38
817.562	5492.38
817.815	5585.38
818.068	5542.38
818.321	5677.38
818.574	5690.38
818.827	5805.38
819.079	5849.38
819.332	6007.38
819.585	6053.38
819.838	6237.38
820.09	6202.38
820.343	6211.38
820.595	6191.38
820.848	6328.38
821.1	6345.38
821.353	6329.38
821.605	6293.38
821.857	6373.38
822.11	6280.38
822.362	6269.38
822.614	6262.38
822.866	6324.38
823.118	6288.38
823.37	6385.38
823.622	6351.38
823.874	6369.38
824.126	6453.38
824.378	6402.38
824.63	6457.38
824.882	6506.38
825.134	6471.38
825.385	6398.38
825.637	6421.38
825.888	6340.38
826.14	6376.38
826.392	6308.38
826.643	6246.38
826.895	6347.38
827.146	6247.38
827.397	6221.38
827.649	6364.38
827.9	6213.38
828.151	6207.38
828.402	6257.38
828.653	6303.38
828.905	6290.38
829.156	6393.38
829.407	6254.38
829.658	6333.38
829.909	6336.38
830.159	6356.38
830.41	6284.38
830.661	6295.38
830.912	6295.38
831.162	6268.38
831.413	6237.38
831.664	6248.38
831.914	6277.38
832.165	6265.38
832.415	6298.38
832.666	6291.38
832.916	6263.38
833.167	6210.38
833.417	6308.38
833.667	6272.38
833.917	6259.38
834.168	6271.38
834.418	6230.38
834.668	6204.38
834.918	6119.38
835.168	6214.38
835.418	6119.38
835.668	6133.38
835.918	6134.38
836.167	6137.38
836.417	6092.38
836.667	6136.38
836.917	6128.38
837.166	6085.38
837.416	6073.38
837.666	6128.38
837.915	6047.38
838.165	6054.38
838.414	5954.38
838.663	5942.38
838.913	5989.38
839.162	5937.38
839.411	6060.38
839.661	5969.38
839.91	5998.38
840.159	5987.38
840.408	5957.38
840.657	6072.38
840.906	6007.38
841.155	6077.38
841.404	6000.38
841.653	5957.38
841.902	5982.38
842.15	6038.38
842.399	6047.38
842.648	5979.38
842.897	6000.38
843.145	5950.38
843.394	5886.38
843.642	5917.38
843.891	5947.38
844.139	5873.38
844.388	5768.38
844.636	5750.38
844.884	5778.38
845.133	5786.38
845.381	5795.38
845.629	5817.38
845.877	5806.38
846.125	5803.38
846.373	5758.38
846.621	5681.38
846.869	5735.38
847.117	5701.38
847.365	5698.38
847.613	5685.38
847.861	5708.38
848.108	5747.38
848.356	5620.38
848.604	5667.38
848.851	5660.38
849.099	5728.38
849.346	5733.38
849.594	5695.38
849.841	5751.38
850.089	5763.38
850.336	5733.38
850.583	5752.38
850.831	5786.38
851.078	5794.38
851.325	5804.38
851.572	5906.38
851.819	5808.38
852.066	5575.38
852.313	5476.38
852.56	5424.38
852.807	5389.38
853.054	5337.38
853.301	5490.38
853.548	5414.38
853.794	5621.38
854.041	5554.38
854.288	5498.38
854.534	5689.38
854.781	5572.38
855.028	5562.38
855.274	5595.38
855.52	5490.38
855.767	5447.38
856.013	5500.38
856.26	5774.38
856.506	5404.38
856.752	5473.38
856.998	5433.38
857.244	5431.38
857.49	5443.38
857.736	5505.38
857.982	5456.38
858.228	5493.38
858.474	5422.38
858.72	5444.38
858.966	5330.38
859.212	5296.38
859.458	5249.38
859.703	5207.38
859.949	5155.38
860.195	5150.38
860.44	5099.38
860.686	5060.38
860.931	5103.38
861.177	5029.38
861.422	5037.38
861.667	4972.38
861.913	4998.38
862.158	5014.38
862.403	5067.38
862.648	5091.38
862.893	5105.38
863.138	5124.38
863.384	5051.38
863.629	5107.38
863.873	5120.38
864.118	5000.38
864.363	4984.38
864.608	5037.38
864.853	5019.38
865.098	4996.38
865.342	4962.38
865.587	4969.38
865.832	4959.38
866.076	4914.38
866.321	4896.38
866.565	4846.38
866.81	4813.38
867.054	4835.38
867.298	4850.38
867.543	4860.38
867.787	4854.38
868.031	4888.38
868.275	4843.38
868.519	4854.38
868.764	4807.38
869.008	4829.38
869.252	4851.38
869.496	4855.38
869.739	4845.38
869.983	4850.38
870.227	4841.38
870.471	4769.38
870.715	4870.38
870.958	4882.38
871.202	4883.38
871.446	4911.38
871.689	4884.38
871.933	4906.38
872.176	4869.38
872.42	4884.38
872.663	4834.38
872.906	4865.38
873.15	4804.38
873.393	4741.38
873.636	4832.38
873.879	4756.38
874.122	4746.38
874.366	4687.38
874.609	4649.38
874.852	4657.38
875.095	4616.38
875.337	4557.38
875.58	4492.38
875.823	4567.38
876.066	4546.38
876.309	4617.38
876.551	4457.38
876.794	4419.38
877.037	4468.38
877.279	4441.38
877.522	4456.38
877.764	4473.38
878.007	4420.38
878.249	4446.38
878.491	4406.38
878.734	4466.38
878.976	4429.38
879.218	4369.38
879.46	4424.38
879.702	4397.38
879.945	4336.38
880.187	4236.38
880.429	4265.38
880.671	4270.38
880.912	4279.38
881.154	4225.38
881.396	4142.38
881.638	4250.38
881.88	4200.38
882.121	4193.38
882.363	4160.38
882.605	4213.38
882.846	4198.38
883.088	4198.38
883.329	4155.38
883.571	4154.38
883.812	4193.38
884.053	4272.38
884.295	4365.38
884.536	4522.38
884.777	4450.38
885.018	4459.38
885.259	4454.38
885.5	4375.38
885.742	4602.38
885.982	4362.38
886.223	4289.38
886.464	4291.38
886.705	4187.38
886.946	4152.38
887.187	4055.38
887.428	4103.38
887.668	3988.38
887.909	3967.38
888.15	3902.38
888.39	3925.38
888.631	3969.38
888.871	3926.38
889.111	3820.38
889.352	3805.38
889.592	3798.38
889.833	3758.38
890.073	3750.38
890.313	3740.38
890.553	3622.38
890.793	3689.38
891.033	3639.38
891.273	3640.38
891.513	3620.38
891.753	3666.38
891.993	3620.38
892.233	3637.38
892.473	3713.38
892.713	3677.38
892.952	3599.38
893.192	3675.38
893.432	3661.38
893.671	3706.38
893.911	3642.38
894.15	3684.38
894.39	3529.38
894.629	3581.38
894.869	3567.38
895.108	3555.38
895.347	3511.38
895.587	3550.38
895.826	3503.38
896.065	3464.38
896.304	3563.38
896.543	3554.38
896.782	3439.38
897.021	3454.38
897.26	3451.38
897.499	3530.38
897.738	3503.38
897.977	3425.38
898.216	3390.38
898.454	3410.38
898.693	3355.38
898.932	3432.38
899.17	3380.38
899.409	3337.38
899.647	3372.38
899.886	3305.38
900.124	3373.38
900.363	3342.38
900.601	3380.38
900.839	3392.38
901.078	3410.38
901.316	3369.38
901.554	3440.38
901.792	3474.38
902.03	3402.38
902.268	3433.38
902.506	3453.38
902.744	3417.38
902.982	3389.38
903.22	3289.38
903.458	3256.38
903.695	3292.38
903.933	3269.38
904.171	3128.38
904.409	3114.38
904.646	3145.38
904.884	3044.38
905.121	3063.38
905.359	3016.38
905.596	2969.38
905.833	2917.38
906.071	2943.38
906.308	2948.38
906.545	2913.38
906.783	2878.38
907.02	2914.38
907.257	2869.38
907.494	2877.38
907.731	2895.38
907.968	2877.38
908.205	2851.38
908.442	2842.38
908.679	2882.38
908.915	2816.38
909.152	2812.38
909.389	2736.38
909.626	2760.38
909.862	2754.38
910.099	2705.38
910.335	2736.38
910.572	2640.38
910.808	2696.38
911.045	2675.38
911.281	2662.38
911.518	2715.38
911.754	2656.38
911.99	2652.38
912.226	2665.38
912.463	2600.38
912.699	2585.38
912.935	2577.38
913.171	2564.38
913.407	2530.38
913.643	2551.38
913.879	2526.38
914.114	2506.38
914.35	2463.38
914.586	2450.38
914.822	2399.38
915.057	2515.38
915.293	2364.38
915.529	2369.38
915.764	2435.38
916	2446.38
916.235	2410.38
916.471	2414.38
916.706	2315.38
916.941	2350.38
917.177	2375.38
917.412	2404.38
917.647	2431.38
917.882	2405.38
918.117	2405.38
918.352	2372.38
918.588	2440.38
918.823	2363.38
919.057	2307.38
919.292	2243.38
919.527	2342.38
919.762	2285.38
919.997	2317.38
920.232	2229.38
920.466	2267.38
920.701	2146.38
920.935	2195.38
921.17	2200.38
921.405	2106.38
921.639	2181.38
921.873	2180.38
922.108	2181.38
922.342	2209.38
922.576	2103.38
922.811	2125.38
923.045	2174.38
923.279	2163.38
923.513	2060.38
923.747	2155.38
923.981	2122.38
924.215	2069.38
924.449	2068.38
924.683	2043.38
924.917	2033.38
925.151	2047.38
925.385	2112.38
925.618	2040.38
925.852	2063.38
926.086	1980.38
926.319	2025.38
926.553	2010.38
926.786	2017.38
927.02	2005.38
927.253	2061.38
927.486	2061.38
927.72	1960.38
927.953	2034.38
928.186	2026.38
928.42	2025.38
928.653	1957.38
928.886	1942.38
929.119	2016.38
929.352	1972.38
929.585	1996.38
929.818	1931.38
930.051	1952.38
930.284	1973.38
930.516	1880.38
930.749	1883.38
930.982	1945.38
931.215	1937.38
931.447	1852.38
931.68	1878.38
931.912	1851.38
932.145	1878.38
932.377	1844.38
932.61	1988.38
932.842	1814.38
933.074	1901.38
933.307	1836.38
933.539	1955.38
933.771	1908.38
934.003	1834.38
934.236	1943.38
934.468	1958.38
934.7	1878.38
934.932	1895.38
935.164	1855.38
935.395	1846.38
935.627	1857.38
935.859	1869.38
936.091	1833.38
936.323	1882.38
936.554	1918.38
936.786	1837.38
937.017	1798.38
937.249	1865.38
937.481	1762.38
937.712	1857.38
937.943	1801.38
938.175	1807.38
938.406	1807.38
938.637	1851.38
938.869	1767.38
939.1	1817.38
939.331	1784.38
939.562	1827.38
939.793	1810.38
940.024	1829.38
940.255	1805.38
940.486	1803.38
940.717	1787.38
940.948	1757.38
941.179	1715.38
941.409	1764.38
941.64	1744.38
941.871	1765.38
942.102	1753.38
942.332	1765.38
942.563	1773.38
942.793	1758.38
943.024	1714.38
943.254	1768.38
943.484	1791.38
943.715	1797.38
943.945	1750.38
944.175	1703.38
944.405	1669.38
944.636	1736.38
944.866	1730.38
945.096	1748.38
945.326	1703.38
945.556	1782.38
945.786	1762.38
946.016	1715.38
946.245	1664.38
946.475	1696.38
946.705	1694.38
946.935	1696.38
947.164	1680.38
947.394	1643.38
947.624	1654.38
947.853	1706.38
948.083	1684.38
948.312	1641.38
948.542	1602.38
948.771	1602.38
949	1605.38
949.23	1639.38
949.459	1632.38
949.688	1688.38
949.917	1657.38
950.146	1655.38
950.375	1707.38
950.604	1610.38
950.833	1710.38
951.062	1675.38
951.291	1649.38
951.52	1625.38
951.749	1625.38
951.978	1583.38
952.206	1593.38
952.435	1575.38
952.664	1613.38
952.892	1661.38
953.121	1608.38
953.349	1643.38
953.578	1650.38
953.806	1602.38
954.035	1546.38
954.263	1604.38
954.491	1553.38
954.719	1606.38
954.948	1531.38
955.176	1567.38
955.404	1512.38
955.632	1546.38
955.86	1562.38
956.088	1545.38
956.316	1589.38
956.544	1579.38
956.772	1534.38
956.999	1533.38
957.227	1597.38
957.455	1520.38
957.683	1533.38
957.91	1506.38
958.138	1487.38
958.365	1494.38
958.593	1478.38
958.82	1438.38
959.048	1507.38
959.275	1485.38
959.502	1449.38
959.73	1477.38
959.957	1514.38
960.184	1554.38
960.411	1491.38
960.638	1550.38
960.865	1487.38
961.092	1502.38
961.319	1396.38
961.546	1524.38
961.773	1507.38
962	1476.38
962.227	1517.38
962.454	1478.38
962.68	1482.38
962.907	1505.38
963.134	1437.38
963.36	1445.38
963.587	1501.38
963.813	1432.38
964.04	1478.38
964.266	1397.38
964.493	1493.38
964.719	1457.38
964.945	1474.38
965.171	1369.38
965.398	1421.38
965.624	1461.38
965.85	1379.38
966.076	1359.38
966.302	1434.38
966.528	1407.38
966.754	1416.38
966.98	1415.38
967.206	1417.38
967.431	1331.38
967.657	1442.38
967.883	1395.38
968.109	1402.38
968.334	1364.38
968.56	1333.38
968.785	1353.38
969.011	1351.38
969.236	1410.38
969.462	1352.38
969.687	1344.38
969.912	1415.38
970.138	1426.38
970.363	1325.38
970.588	1359.38
970.813	1346.38
971.038	1317.38
971.263	1360.38
971.488	1367.38
971.713	1418.38
971.938	1369.38
972.163	1292.38
972.388	1338.38
972.613	1301.38
972.838	1316.38
973.062	1337.38
973.287	1313.38
973.512	1242.38
973.736	1304.38
973.961	1281.38
974.185	1290.38
974.41	1298.38
974.634	1203.38
974.858	1227.38
975.083	1282.38
975.307	1310.38
975.531	1237.38
975.755	1188.38
975.98	1231.38
976.204	1177.38
976.428	1164.38
976.652	1180.38
976.876	1182.38
977.1	1210.38
977.324	1180.38
977.547	1230.38
977.771	1205.38
977.995	1171.38
978.219	1158.38
978.442	1277.38
978.666	1210.38
978.89	1201.38
979.113	1191.38
979.337	1212.38
979.56	1154.38
979.783	1250.38
980.007	1163.38
980.23	1179.38
980.453	1165.38
980.677	1201.38
980.9	1198.38
981.123	1094.38
981.346	1187.38
981.569	1182.38
981.792	1210.38
982.015	1156.38
982.238	1134.38
982.461	1159.38
982.684	1159.38
982.907	1098.38
983.129	1117.38
983.352	1146.38
983.575	1151.38
983.797	1128.38
984.02	1100.38
984.242	1107.38
984.465	1126.38
984.687	1153.38
984.91	1167.38
985.132	1144.38
985.354	1164.38
985.577	1140.38
985.799	1118.38
986.021	1042.38
986.243	1107.38
986.465	1109.38
986.687	1163.38
986.909	1192.38
987.131	1107.38
987.353	1111.38
987.575	1129.38
987.797	1102.38
988.019	1047.38
988.241	1100.38
988.462	1079.38
988.684	1103.38
988.906	1142.38
989.127	1153.38
989.349	1038.38
989.57	1096.38
989.792	1130.38
990.013	1150.38
990.234	1146.38
990.456	1156.38
990.677	1169.38
990.898	1075.38
991.119	1103.38
991.341	1139.38
991.562	1071.38
991.783	1106.38
992.004	1064.38
992.225	1027.38
992.446	1068.38
992.667	996.38
992.887	1109.38
993.108	1020.38
993.329	1122.38
993.55	1092.38
993.77	1039.38
993.991	1024.38
994.212	1063.38
994.432	1038.38
994.653	1081.38
994.873	1066.38
995.093	961.38
995.314	1007.38
995.534	1085.38
995.754	1103.38
995.975	1127.38
996.195	998.38
996.415	1066.38
996.635	1029.38
996.855	1050.38
997.075	1041.38
997.295	1025.38
997.515	1003.38
997.735	1048.38
997.955	1050.38
998.174	1026.38
998.394	1019.38
998.614	1059.38
998.834	1006.38
999.053	1111.38
999.273	1048.38
999.492	1120.38
999.712	1049.38
999.931	1022.38
1000.151	1060.38
1000.37	1037.38
1000.589	1114.38
1000.809	1019.38
1001.028	1137.38
1001.247	1067.38
1001.466	969.38
1001.685	1165.38
1001.904	1068.38
1002.123	1063.38
1002.342	1061.38
1002.561	1024.38
1002.78	1086.38
1002.999	1130.38
1003.218	1066.38
1003.436	1033.38
1003.655	1107.38
1003.874	1031.38
1004.092	1050.38
1004.311	1087.38
1004.53	1042.38
1004.748	1133.38
1004.966	1063.38
1005.185	1137.38
1005.403	1098.38
1005.622	1088.38
1005.84	1156.38
1006.058	1056.38
1006.276	1084.38
1006.494	1559.38
1006.712	1090.38
1006.931	1156.38
1007.149	1051.38
1007.367	1076.38
1007.584	1100.38
1007.802	1136.38
1008.02	1045.38
1008.238	1179.38
1008.456	1150.38
1008.673	1033.38
1008.891	1147.38
1009.109	1090.38
1009.326	1102.38
1009.544	1190.38
1009.761	1095.38
1009.979	1180.38
1010.196	1187.38
1010.413	1235.38
1010.631	1281.38
1010.848	1284.38
1011.065	1286.38
1011.282	1252.38
1011.5	1188.38
1011.717	1286.38
1011.934	1246.38
1012.151	1284.38
1012.368	1279.38
1012.585	1198.38
1012.801	1249.38
1013.018	1227.38
1013.235	1195.38
1013.452	1203.38
1013.669	1237.38
1013.885	1203.38
1014.102	1238.38
1014.318	1201.38
1014.535	1150.38
1014.751	1203.38
1014.968	1194.38
1015.184	1219.38
1015.401	1147.38
1015.617	1199.38
1015.833	1132.38
1016.049	1160.38
1016.266	1139.38
1016.482	1165.38
1016.698	1092.38
1016.914	1173.38
1017.13	1123.38
1017.346	1101.38
1017.562	1162.38
1017.778	1092.38
1017.993	1058.38
1018.209	1123.38
1018.425	1104.38
1018.641	1088.38
1018.856	1058.38
1019.072	1068.38
1019.288	1145.38
1019.503	1098.38
1019.719	1006.38
1019.934	1028.38
1020.149	1127.38
1020.365	1023.38
1020.58	1005.38
1020.795	1051.38
1021.011	1007.38
1021.226	992.38
1021.441	1021.38
1021.656	979.38
1021.871	900.38
1022.086	893.38
1022.301	875.38
1022.516	895.38
1022.731	995.38
1022.946	870.38
1023.16	848.38
1023.375	832.38
1023.59	806.38
1023.804	793.38
1024.019	893.38
1024.234	761.38
1024.448	805.38
1024.663	739.38
1024.877	751.38
1025.092	774.38
1025.306	797.38
1025.52	704.38
1025.734	788.38
1025.949	721.38
1026.163	699.38
1026.377	640.38
1026.591	689.38
1026.805	637.38
1027.019	638.38
1027.233	595.38
1027.447	540.38
1027.661	649.38
1027.875	585.38
1028.088	620.38
1028.302	543.38
1028.516	540.38
1028.73	533.38
1028.943	553.38
1029.157	499.38
1029.37	456.38
1029.584	-2.62
1029.797	1.38
1030.011	1.38
1030.224	-0.62
