Data from QEP037381__159__10-29-52-734.txt Node

Date: Wed Dec 21 10:29:52 EST 2022
User: dcclab
Spectrometer: QEP03738
Trigger mode: 4
Integration Time (sec): 1.000000E1
Scans to average: 1
Electric dark correction enabled: true
Nonlinearity correction enabled: false
Boxcar width: 0
XAxis mode: Wavelengths
Number of Pixels in Spectrum: 1044
>>>>>Begin Spectral Data<<<<<
784.041	13.12
784.3	-0.88
784.558	0.12
784.817	-2.88
785.075	78703.12
785.334	13238.12
785.592	6122.12
785.851	4208.12
786.109	3166.12
786.368	2472.12
786.626	2024.12
786.884	1703.12
787.143	1432.12
787.401	1194.12
787.659	1098.12
787.917	933.12
788.175	892.12
788.433	760.12
788.691	693.12
788.949	660.12
789.207	632.12
789.465	541.12
789.723	521.12
789.98	484.12
790.238	525.12
790.496	499.12
790.753	480.12
791.011	537.12
791.268	462.12
791.526	452.12
791.783	483.12
792.041	462.12
792.298	392.12
792.556	441.12
792.813	424.12
793.07	414.12
793.327	395.12
793.584	469.12
793.841	386.12
794.099	413.12
794.356	461.12
794.613	369.12
794.869	406.12
795.126	376.12
795.383	369.12
795.64	383.12
795.897	329.12
796.153	393.12
796.41	373.12
796.667	358.12
796.923	374.12
797.18	368.12
797.436	391.12
797.693	343.12
797.949	395.12
798.206	427.12
798.462	334.12
798.718	382.12
798.974	357.12
799.231	404.12
799.487	390.12
799.743	387.12
799.999	415.12
800.255	396.12
800.511	371.12
800.767	396.12
801.023	368.12
801.279	398.12
801.534	407.12
801.79	411.12
802.046	398.12
802.302	456.12
802.557	462.12
802.813	493.12
803.068	495.12
803.324	618.12
803.579	700.12
803.835	850.12
804.09	1134.12
804.345	1369.12
804.601	1664.12
804.856	2023.12
805.111	2320.12
805.366	2492.12
805.621	2624.12
805.876	2755.12
806.131	2817.12
806.386	2755.12
806.641	2822.12
806.896	2833.12
807.151	3000.12
807.406	2969.12
807.661	3029.12
807.915	3070.12
808.17	3150.12
808.425	3105.12
808.679	3136.12
808.934	3273.12
809.188	3264.12
809.443	3259.12
809.697	3346.12
809.951	3320.12
810.206	3368.12
810.46	3451.12
810.714	3411.12
810.968	3481.12
811.223	3448.12
811.477	3519.12
811.731	3568.12
811.985	3530.12
812.239	3460.12
812.493	3583.12
812.747	3590.12
813	3566.12
813.254	3609.12
813.508	3653.12
813.762	3639.12
814.015	3602.12
814.269	3696.12
814.522	3728.12
814.776	3781.12
815.03	3816.12
815.283	3901.12
815.536	3940.12
815.79	3933.12
816.043	4030.12
816.296	4054.12
816.55	4083.12
816.803	4129.12
817.056	4248.12
817.309	4231.12
817.562	4279.12
817.815	4351.12
818.068	4316.12
818.321	4419.12
818.574	4395.12
818.827	4538.12
819.079	4567.12
819.332	4768.12
819.585	4709.12
819.838	4883.12
820.09	4818.12
820.343	4893.12
820.595	4880.12
820.848	4939.12
821.1	4959.12
821.353	4954.12
821.605	4941.12
821.857	4994.12
822.11	4884.12
822.362	4909.12
822.614	4916.12
822.866	4942.12
823.118	4876.12
823.37	5022.12
823.622	5014.12
823.874	5046.12
824.126	5054.12
824.378	5053.12
824.63	5052.12
824.882	5100.12
825.134	5050.12
825.385	5108.12
825.637	5067.12
825.888	4988.12
826.14	4956.12
826.392	4993.12
826.643	4933.12
826.895	4997.12
827.146	4874.12
827.397	4876.12
827.649	4938.12
827.9	4873.12
828.151	4846.12
828.402	4870.12
828.653	4913.12
828.905	4975.12
829.156	4985.12
829.407	4919.12
829.658	4937.12
829.909	4984.12
830.159	4966.12
830.41	4955.12
830.661	4967.12
830.912	4930.12
831.162	4903.12
831.413	4861.12
831.664	4896.12
831.914	4899.12
832.165	4873.12
832.415	4895.12
832.666	4917.12
832.916	4970.12
833.167	4890.12
833.417	4960.12
833.667	4911.12
833.917	4870.12
834.168	4939.12
834.418	4912.12
834.668	4874.12
834.918	4880.12
835.168	4853.12
835.418	4794.12
835.668	4879.12
835.918	4831.12
836.167	4824.12
836.417	4748.12
836.667	4815.12
836.917	4842.12
837.166	4754.12
837.416	4809.12
837.666	4812.12
837.915	4723.12
838.165	4774.12
838.414	4671.12
838.663	4630.12
838.913	4687.12
839.162	4687.12
839.411	4782.12
839.661	4693.12
839.91	4663.12
840.159	4702.12
840.408	4688.12
840.657	4706.12
840.906	4737.12
841.155	4727.12
841.404	4651.12
841.653	4712.12
841.902	4697.12
842.15	4693.12
842.399	4698.12
842.648	4708.12
842.897	4732.12
843.145	4669.12
843.394	4622.12
843.642	4560.12
843.891	4646.12
844.139	4603.12
844.388	4529.12
844.636	4481.12
844.884	4498.12
845.133	4479.12
845.381	4473.12
845.629	4567.12
845.877	4488.12
846.125	4530.12
846.373	4517.12
846.621	4488.12
846.869	4567.12
847.117	4468.12
847.365	4453.12
847.613	4526.12
847.861	4437.12
848.108	4495.12
848.356	4467.12
848.604	4427.12
848.851	4445.12
849.099	4450.12
849.346	4455.12
849.594	4491.12
849.841	4562.12
850.089	4503.12
850.336	4489.12
850.583	4555.12
850.831	4517.12
851.078	4540.12
851.325	4600.12
851.572	4715.12
851.819	4666.12
852.066	4466.12
852.313	4329.12
852.56	4266.12
852.807	4253.12
853.054	4216.12
853.301	4294.12
853.548	4342.12
853.794	4416.12
854.041	4363.12
854.288	4352.12
854.534	4521.12
854.781	4385.12
855.028	4343.12
855.274	4412.12
855.52	4342.12
855.767	4272.12
856.013	4311.12
856.26	4610.12
856.506	4257.12
856.752	4282.12
856.998	4248.12
857.244	4228.12
857.49	4311.12
857.736	4317.12
857.982	4362.12
858.228	4309.12
858.474	4219.12
858.72	4241.12
858.966	4192.12
859.212	4198.12
859.458	4181.12
859.703	4073.12
859.949	4044.12
860.195	4075.12
860.44	4020.12
860.686	3987.12
860.931	4082.12
861.177	3942.12
861.422	4006.12
861.667	3958.12
861.913	3967.12
862.158	3959.12
862.403	3988.12
862.648	4023.12
862.893	4061.12
863.138	3998.12
863.384	3974.12
863.629	3999.12
863.873	3996.12
864.118	3978.12
864.363	3921.12
864.608	3934.12
864.853	4008.12
865.098	3983.12
865.342	3945.12
865.587	3856.12
865.832	3916.12
866.076	3929.12
866.321	3870.12
866.565	3843.12
866.81	3772.12
867.054	3829.12
867.298	3847.12
867.543	3813.12
867.787	3842.12
868.031	3825.12
868.275	3806.12
868.519	3818.12
868.764	3834.12
869.008	3808.12
869.252	3851.12
869.496	3778.12
869.739	3791.12
869.983	3830.12
870.227	3828.12
870.471	3796.12
870.715	3848.12
870.958	3813.12
871.202	3774.12
871.446	3777.12
871.689	3822.12
871.933	3838.12
872.176	3794.12
872.42	3817.12
872.663	3825.12
872.906	3839.12
873.15	3796.12
873.393	3754.12
873.636	3794.12
873.879	3741.12
874.122	3796.12
874.366	3645.12
874.609	3668.12
874.852	3597.12
875.095	3630.12
875.337	3572.12
875.58	3537.12
875.823	3593.12
876.066	3600.12
876.309	3631.12
876.551	3502.12
876.794	3490.12
877.037	3570.12
877.279	3452.12
877.522	3528.12
877.764	3501.12
878.007	3473.12
878.249	3534.12
878.491	3453.12
878.734	3546.12
878.976	3522.12
879.218	3443.12
879.46	3475.12
879.702	3447.12
879.945	3457.12
880.187	3336.12
880.429	3333.12
880.671	3350.12
880.912	3370.12
881.154	3318.12
881.396	3268.12
881.638	3313.12
881.88	3332.12
882.121	3245.12
882.363	3320.12
882.605	3352.12
882.846	3308.12
883.088	3326.12
883.329	3292.12
883.571	3286.12
883.812	3315.12
884.053	3366.12
884.295	3445.12
884.536	3565.12
884.777	3492.12
885.018	3489.12
885.259	3537.12
885.5	3435.12
885.742	3668.12
885.982	3439.12
886.223	3329.12
886.464	3323.12
886.705	3243.12
886.946	3309.12
887.187	3206.12
887.428	3279.12
887.668	3115.12
887.909	3116.12
888.15	3047.12
888.39	3099.12
888.631	3144.12
888.871	3074.12
889.111	3024.12
889.352	3033.12
889.592	2985.12
889.833	2972.12
890.073	2964.12
890.313	3028.12
890.553	2833.12
890.793	2897.12
891.033	2872.12
891.273	2864.12
891.513	2845.12
891.753	2895.12
891.993	2885.12
892.233	2897.12
892.473	2942.12
892.713	2934.12
892.952	2874.12
893.192	2935.12
893.432	2875.12
893.671	2935.12
893.911	2889.12
894.15	2893.12
894.39	2806.12
894.629	2825.12
894.869	2827.12
895.108	2810.12
895.347	2757.12
895.587	2810.12
895.826	2802.12
896.065	2780.12
896.304	2789.12
896.543	2821.12
896.782	2715.12
897.021	2775.12
897.26	2808.12
897.499	2809.12
897.738	2842.12
897.977	2757.12
898.216	2708.12
898.454	2677.12
898.693	2672.12
898.932	2726.12
899.17	2656.12
899.409	2714.12
899.647	2660.12
899.886	2644.12
900.124	2687.12
900.363	2594.12
900.601	2650.12
900.839	2643.12
901.078	2669.12
901.316	2681.12
901.554	2721.12
901.792	2717.12
902.03	2694.12
902.268	2692.12
902.506	2765.12
902.744	2652.12
902.982	2720.12
903.22	2638.12
903.458	2596.12
903.695	2596.12
903.933	2558.12
904.171	2492.12
904.409	2449.12
904.646	2466.12
904.884	2388.12
905.121	2434.12
905.359	2416.12
905.596	2377.12
905.833	2334.12
906.071	2327.12
906.308	2343.12
906.545	2328.12
906.783	2304.12
907.02	2329.12
907.257	2251.12
907.494	2298.12
907.731	2309.12
907.968	2304.12
908.205	2267.12
908.442	2260.12
908.679	2247.12
908.915	2230.12
909.152	2259.12
909.389	2153.12
909.626	2174.12
909.862	2163.12
910.099	2186.12
910.335	2209.12
910.572	2102.12
910.808	2164.12
911.045	2113.12
911.281	2117.12
911.518	2173.12
911.754	2092.12
911.99	2138.12
912.226	2079.12
912.463	2079.12
912.699	2070.12
912.935	2080.12
913.171	2070.12
913.407	1989.12
913.643	2102.12
913.879	2035.12
914.114	2009.12
914.35	1975.12
914.586	1988.12
914.822	1962.12
915.057	1998.12
915.293	1902.12
915.529	1914.12
915.764	1963.12
916	1970.12
916.235	1927.12
916.471	1958.12
916.706	1864.12
916.941	1910.12
917.177	1900.12
917.412	1949.12
917.647	1923.12
917.882	1907.12
918.117	1938.12
918.352	1926.12
918.588	1971.12
918.823	1878.12
919.057	1874.12
919.292	1765.12
919.527	1894.12
919.762	1840.12
919.997	1857.12
920.232	1801.12
920.466	1849.12
920.701	1721.12
920.935	1777.12
921.17	1755.12
921.405	1711.12
921.639	1763.12
921.873	1736.12
922.108	1769.12
922.342	1749.12
922.576	1698.12
922.811	1689.12
923.045	1779.12
923.279	1745.12
923.513	1648.12
923.747	1741.12
923.981	1709.12
924.215	1679.12
924.449	1668.12
924.683	1643.12
924.917	1644.12
925.151	1637.12
925.385	1743.12
925.618	1698.12
925.852	1658.12
926.086	1586.12
926.319	1648.12
926.553	1636.12
926.786	1655.12
927.02	1624.12
927.253	1699.12
927.486	1670.12
927.72	1601.12
927.953	1669.12
928.186	1627.12
928.42	1633.12
928.653	1591.12
928.886	1585.12
929.119	1658.12
929.352	1610.12
929.585	1596.12
929.818	1544.12
930.051	1590.12
930.284	1615.12
930.516	1537.12
930.749	1538.12
930.982	1573.12
931.215	1568.12
931.447	1502.12
931.68	1546.12
931.912	1541.12
932.145	1510.12
932.377	1562.12
932.61	1676.12
932.842	1475.12
933.074	1559.12
933.307	1495.12
933.539	1601.12
933.771	1553.12
934.003	1518.12
934.236	1611.12
934.468	1575.12
934.7	1505.12
934.932	1546.12
935.164	1492.12
935.395	1513.12
935.627	1523.12
935.859	1522.12
936.091	1466.12
936.323	1526.12
936.554	1545.12
936.786	1497.12
937.017	1438.12
937.249	1515.12
937.481	1431.12
937.712	1520.12
937.943	1508.12
938.175	1485.12
938.406	1469.12
938.637	1516.12
938.869	1452.12
939.1	1517.12
939.331	1471.12
939.562	1511.12
939.793	1478.12
940.024	1502.12
940.255	1527.12
940.486	1454.12
940.717	1439.12
940.948	1436.12
941.179	1389.12
941.409	1429.12
941.64	1435.12
941.871	1464.12
942.102	1420.12
942.332	1437.12
942.563	1469.12
942.793	1415.12
943.024	1358.12
943.254	1443.12
943.484	1484.12
943.715	1474.12
943.945	1433.12
944.175	1415.12
944.405	1367.12
944.636	1389.12
944.866	1429.12
945.096	1435.12
945.326	1377.12
945.556	1461.12
945.786	1467.12
946.016	1381.12
946.245	1395.12
946.475	1385.12
946.705	1361.12
946.935	1399.12
947.164	1418.12
947.394	1346.12
947.624	1358.12
947.853	1406.12
948.083	1395.12
948.312	1345.12
948.542	1304.12
948.771	1309.12
949	1310.12
949.23	1359.12
949.459	1336.12
949.688	1397.12
949.917	1349.12
950.146	1372.12
950.375	1411.12
950.604	1294.12
950.833	1397.12
951.062	1384.12
951.291	1337.12
951.52	1333.12
951.749	1342.12
951.978	1313.12
952.206	1313.12
952.435	1293.12
952.664	1361.12
952.892	1376.12
953.121	1338.12
953.349	1362.12
953.578	1335.12
953.806	1325.12
954.035	1287.12
954.263	1327.12
954.491	1257.12
954.719	1335.12
954.948	1310.12
955.176	1263.12
955.404	1217.12
955.632	1291.12
955.86	1324.12
956.088	1284.12
956.316	1329.12
956.544	1326.12
956.772	1257.12
956.999	1256.12
957.227	1344.12
957.455	1277.12
957.683	1276.12
957.91	1245.12
958.138	1235.12
958.365	1241.12
958.593	1249.12
958.82	1209.12
959.048	1257.12
959.275	1242.12
959.502	1232.12
959.73	1238.12
959.957	1258.12
960.184	1323.12
960.411	1263.12
960.638	1303.12
960.865	1239.12
961.092	1252.12
961.319	1169.12
961.546	1284.12
961.773	1258.12
962	1212.12
962.227	1284.12
962.454	1212.12
962.68	1218.12
962.907	1247.12
963.134	1195.12
963.36	1239.12
963.587	1242.12
963.813	1182.12
964.04	1252.12
964.266	1189.12
964.493	1263.12
964.719	1224.12
964.945	1231.12
965.171	1130.12
965.398	1199.12
965.624	1223.12
965.85	1182.12
966.076	1156.12
966.302	1221.12
966.528	1177.12
966.754	1215.12
966.98	1208.12
967.206	1183.12
967.431	1114.12
967.657	1201.12
967.883	1211.12
968.109	1198.12
968.334	1154.12
968.56	1128.12
968.785	1161.12
969.011	1105.12
969.236	1180.12
969.462	1119.12
969.687	1136.12
969.912	1179.12
970.138	1210.12
970.363	1102.12
970.588	1166.12
970.813	1139.12
971.038	1121.12
971.263	1142.12
971.488	1155.12
971.713	1190.12
971.938	1151.12
972.163	1076.12
972.388	1092.12
972.613	1105.12
972.838	1133.12
973.062	1115.12
973.287	1095.12
973.512	1020.12
973.736	1096.12
973.961	1071.12
974.185	1052.12
974.41	1127.12
974.634	1027.12
974.858	1069.12
975.083	1099.12
975.307	1109.12
975.531	1064.12
975.755	1021.12
975.98	1044.12
976.204	987.12
976.428	984.12
976.652	996.12
976.876	990.12
977.1	1042.12
977.324	980.12
977.547	1059.12
977.771	1029.12
977.995	1017.12
978.219	978.12
978.442	1097.12
978.666	1023.12
978.89	1031.12
979.113	1022.12
979.337	1026.12
979.56	1004.12
979.783	1087.12
980.007	968.12
980.23	1001.12
980.453	982.12
980.677	1020.12
980.9	1008.12
981.123	926.12
981.346	1036.12
981.569	1026.12
981.792	1034.12
982.015	987.12
982.238	975.12
982.461	985.12
982.684	964.12
982.907	946.12
983.129	946.12
983.352	1005.12
983.575	998.12
983.797	987.12
984.02	958.12
984.242	935.12
984.465	953.12
984.687	980.12
984.91	1011.12
985.132	987.12
985.354	1008.12
985.577	980.12
985.799	976.12
986.021	917.12
986.243	931.12
986.465	958.12
986.687	998.12
986.909	1051.12
987.131	958.12
987.353	961.12
987.575	968.12
987.797	952.12
988.019	890.12
988.241	964.12
988.462	911.12
988.684	991.12
988.906	1008.12
989.127	1040.12
989.349	922.12
989.57	947.12
989.792	998.12
990.013	1009.12
990.234	1007.12
990.456	1033.12
990.677	985.12
990.898	962.12
991.119	971.12
991.341	985.12
991.562	927.12
991.783	969.12
992.004	911.12
992.225	927.12
992.446	973.12
992.667	882.12
992.887	977.12
993.108	868.12
993.329	978.12
993.55	963.12
993.77	876.12
993.991	909.12
994.212	944.12
994.432	929.12
994.653	983.12
994.873	942.12
995.093	829.12
995.314	895.12
995.534	963.12
995.754	962.12
995.975	1013.12
996.195	901.12
996.415	924.12
996.635	941.12
996.855	944.12
997.075	929.12
997.295	903.12
997.515	895.12
997.735	947.12
997.955	900.12
998.174	916.12
998.394	877.12
998.614	938.12
998.834	895.12
999.053	963.12
999.273	945.12
999.492	1012.12
999.712	929.12
999.931	906.12
1000.151	970.12
1000.37	932.12
1000.589	988.12
1000.809	918.12
1001.028	1031.12
1001.247	985.12
1001.466	867.12
1001.685	1005.12
1001.904	965.12
1002.123	958.12
1002.342	956.12
1002.561	949.12
1002.78	958.12
1002.999	1014.12
1003.218	979.12
1003.436	937.12
1003.655	994.12
1003.874	928.12
1004.092	972.12
1004.311	1018.12
1004.53	966.12
1004.748	1057.12
1004.966	960.12
1005.185	1020.12
1005.403	1027.12
1005.622	982.12
1005.84	1048.12
1006.058	973.12
1006.276	1002.12
1006.494	1514.12
1006.712	982.12
1006.931	1052.12
1007.149	951.12
1007.367	977.12
1007.584	1007.12
1007.802	1034.12
1008.02	972.12
1008.238	1072.12
1008.456	1066.12
1008.673	928.12
1008.891	1028.12
1009.109	980.12
1009.326	1012.12
1009.544	1090.12
1009.761	975.12
1009.979	1034.12
1010.196	1045.12
1010.413	1102.12
1010.631	1138.12
1010.848	1177.12
1011.065	1157.12
1011.282	1084.12
1011.5	1039.12
1011.717	1131.12
1011.934	1089.12
1012.151	1126.12
1012.368	1105.12
1012.585	1060.12
1012.801	1108.12
1013.018	1063.12
1013.235	1066.12
1013.452	1038.12
1013.669	1078.12
1013.885	1051.12
1014.102	1069.12
1014.318	1037.12
1014.535	1000.12
1014.751	1050.12
1014.968	1053.12
1015.184	1100.12
1015.401	988.12
1015.617	1038.12
1015.833	997.12
1016.049	1013.12
1016.266	989.12
1016.482	1011.12
1016.698	944.12
1016.914	1003.12
1017.13	971.12
1017.346	963.12
1017.562	1021.12
1017.778	958.12
1017.993	924.12
1018.209	1002.12
1018.425	963.12
1018.641	928.12
1018.856	899.12
1019.072	940.12
1019.288	996.12
1019.503	953.12
1019.719	867.12
1019.934	880.12
1020.149	958.12
1020.365	900.12
1020.58	862.12
1020.795	923.12
1021.011	884.12
1021.226	857.12
1021.441	903.12
1021.656	832.12
1021.871	781.12
1022.086	794.12
1022.301	788.12
1022.516	788.12
1022.731	845.12
1022.946	757.12
1023.16	757.12
1023.375	726.12
1023.59	714.12
1023.804	681.12
1024.019	796.12
1024.234	683.12
1024.448	710.12
1024.663	649.12
1024.877	662.12
1025.092	704.12
1025.306	700.12
1025.52	623.12
1025.734	719.12
1025.949	662.12
1026.163	627.12
1026.377	583.12
1026.591	626.12
1026.805	556.12
1027.019	560.12
1027.233	539.12
1027.447	493.12
1027.661	607.12
1027.875	541.12
1028.088	539.12
1028.302	466.12
1028.516	493.12
1028.73	496.12
1028.943	494.12
1029.157	444.12
1029.37	425.12
1029.584	-5.88
1029.797	1.12
1030.011	-0.88
1030.224	-3.88
