Data from QEP037381__133__10-25-32-733.txt Node

Date: Wed Dec 21 10:25:32 EST 2022
User: dcclab
Spectrometer: QEP03738
Trigger mode: 4
Integration Time (sec): 1.000000E1
Scans to average: 1
Electric dark correction enabled: true
Nonlinearity correction enabled: false
Boxcar width: 0
XAxis mode: Wavelengths
Number of Pixels in Spectrum: 1044
>>>>>Begin Spectral Data<<<<<
784.041	12.5
784.3	3.5
784.558	-4.5
784.817	-5.5
785.075	78365.5
785.334	13428.5
785.592	6197.5
785.851	4212.5
786.109	3250.5
786.368	2550.5
786.626	2033.5
786.884	1700.5
787.143	1447.5
787.401	1175.5
787.659	1118.5
787.917	960.5
788.175	891.5
788.433	783.5
788.691	704.5
788.949	659.5
789.207	643.5
789.465	544.5
789.723	532.5
789.98	497.5
790.238	528.5
790.496	511.5
790.753	480.5
791.011	548.5
791.268	466.5
791.526	449.5
791.783	463.5
792.041	469.5
792.298	377.5
792.556	441.5
792.813	431.5
793.07	398.5
793.327	399.5
793.584	487.5
793.841	383.5
794.099	412.5
794.356	457.5
794.613	353.5
794.869	409.5
795.126	360.5
795.383	350.5
795.64	384.5
795.897	340.5
796.153	386.5
796.41	375.5
796.667	357.5
796.923	361.5
797.18	354.5
797.436	389.5
797.693	345.5
797.949	399.5
798.206	409.5
798.462	327.5
798.718	390.5
798.974	357.5
799.231	398.5
799.487	391.5
799.743	377.5
799.999	409.5
800.255	388.5
800.511	366.5
800.767	395.5
801.023	381.5
801.279	392.5
801.534	397.5
801.79	415.5
802.046	396.5
802.302	460.5
802.557	444.5
802.813	498.5
803.068	492.5
803.324	626.5
803.579	709.5
803.835	879.5
804.09	1134.5
804.345	1330.5
804.601	1651.5
804.856	2007.5
805.111	2254.5
805.366	2410.5
805.621	2545.5
805.876	2619.5
806.131	2672.5
806.386	2652.5
806.641	2699.5
806.896	2749.5
807.151	2876.5
807.406	2831.5
807.661	2890.5
807.915	2934.5
808.17	3037.5
808.425	3033.5
808.679	3022.5
808.934	3141.5
809.188	3128.5
809.443	3185.5
809.697	3217.5
809.951	3137.5
810.206	3210.5
810.46	3293.5
810.714	3277.5
810.968	3389.5
811.223	3269.5
811.477	3341.5
811.731	3422.5
811.985	3376.5
812.239	3325.5
812.493	3409.5
812.747	3432.5
813	3402.5
813.254	3447.5
813.508	3479.5
813.762	3456.5
814.015	3457.5
814.269	3539.5
814.522	3608.5
814.776	3603.5
815.03	3660.5
815.283	3702.5
815.536	3763.5
815.79	3789.5
816.043	3840.5
816.296	3813.5
816.55	3939.5
816.803	3990.5
817.056	4104.5
817.309	4070.5
817.562	4076.5
817.815	4187.5
818.068	4163.5
818.321	4236.5
818.574	4249.5
818.827	4345.5
819.079	4361.5
819.332	4504.5
819.585	4479.5
819.838	4605.5
820.09	4577.5
820.343	4646.5
820.595	4588.5
820.848	4688.5
821.1	4766.5
821.353	4664.5
821.605	4712.5
821.857	4776.5
822.11	4627.5
822.362	4650.5
822.614	4653.5
822.866	4676.5
823.118	4647.5
823.37	4760.5
823.622	4784.5
823.874	4778.5
824.126	4837.5
824.378	4797.5
824.63	4861.5
824.882	4902.5
825.134	4782.5
825.385	4863.5
825.637	4815.5
825.888	4728.5
826.14	4744.5
826.392	4680.5
826.643	4670.5
826.895	4707.5
827.146	4621.5
827.397	4626.5
827.649	4701.5
827.9	4613.5
828.151	4619.5
828.402	4642.5
828.653	4683.5
828.905	4678.5
829.156	4727.5
829.407	4665.5
829.658	4673.5
829.909	4689.5
830.159	4686.5
830.41	4686.5
830.661	4697.5
830.912	4621.5
831.162	4608.5
831.413	4602.5
831.664	4650.5
831.914	4638.5
832.165	4623.5
832.415	4648.5
832.666	4653.5
832.916	4634.5
833.167	4584.5
833.417	4664.5
833.667	4569.5
833.917	4606.5
834.168	4657.5
834.418	4645.5
834.668	4641.5
834.918	4606.5
835.168	4575.5
835.418	4546.5
835.668	4603.5
835.918	4652.5
836.167	4552.5
836.417	4491.5
836.667	4598.5
836.917	4544.5
837.166	4553.5
837.416	4481.5
837.666	4547.5
837.915	4489.5
838.165	4423.5
838.414	4388.5
838.663	4355.5
838.913	4439.5
839.162	4372.5
839.411	4410.5
839.661	4436.5
839.91	4444.5
840.159	4351.5
840.408	4431.5
840.657	4397.5
840.906	4421.5
841.155	4443.5
841.404	4383.5
841.653	4437.5
841.902	4381.5
842.15	4416.5
842.399	4413.5
842.648	4408.5
842.897	4431.5
843.145	4322.5
843.394	4318.5
843.642	4325.5
843.891	4346.5
844.139	4267.5
844.388	4243.5
844.636	4212.5
844.884	4282.5
845.133	4222.5
845.381	4293.5
845.629	4305.5
845.877	4236.5
846.125	4230.5
846.373	4266.5
846.621	4201.5
846.869	4278.5
847.117	4209.5
847.365	4193.5
847.613	4165.5
847.861	4175.5
848.108	4228.5
848.356	4192.5
848.604	4164.5
848.851	4185.5
849.099	4177.5
849.346	4194.5
849.594	4224.5
849.841	4255.5
850.089	4207.5
850.336	4250.5
850.583	4278.5
850.831	4287.5
851.078	4258.5
851.325	4326.5
851.572	4438.5
851.819	4382.5
852.066	4168.5
852.313	4034.5
852.56	3931.5
852.807	3950.5
853.054	3935.5
853.301	4028.5
853.548	4069.5
853.794	4163.5
854.041	4095.5
854.288	4062.5
854.534	4218.5
854.781	4086.5
855.028	4055.5
855.274	4127.5
855.52	4007.5
855.767	4012.5
856.013	4007.5
856.26	4287.5
856.506	3942.5
856.752	4043.5
856.998	3962.5
857.244	3938.5
857.49	4004.5
857.736	4057.5
857.982	3989.5
858.228	4045.5
858.474	3966.5
858.72	3972.5
858.966	3938.5
859.212	3890.5
859.458	3883.5
859.703	3811.5
859.949	3774.5
860.195	3769.5
860.44	3774.5
860.686	3696.5
860.931	3768.5
861.177	3655.5
861.422	3720.5
861.667	3667.5
861.913	3691.5
862.158	3698.5
862.403	3774.5
862.648	3716.5
862.893	3819.5
863.138	3793.5
863.384	3672.5
863.629	3712.5
863.873	3740.5
864.118	3721.5
864.363	3646.5
864.608	3728.5
864.853	3763.5
865.098	3685.5
865.342	3660.5
865.587	3636.5
865.832	3656.5
866.076	3621.5
866.321	3616.5
866.565	3639.5
866.81	3570.5
867.054	3624.5
867.298	3589.5
867.543	3549.5
867.787	3551.5
868.031	3582.5
868.275	3584.5
868.519	3539.5
868.764	3563.5
869.008	3532.5
869.252	3606.5
869.496	3547.5
869.739	3519.5
869.983	3564.5
870.227	3547.5
870.471	3491.5
870.715	3590.5
870.958	3584.5
871.202	3530.5
871.446	3577.5
871.689	3509.5
871.933	3538.5
872.176	3524.5
872.42	3496.5
872.663	3496.5
872.906	3610.5
873.15	3548.5
873.393	3400.5
873.636	3553.5
873.879	3446.5
874.122	3502.5
874.366	3385.5
874.609	3408.5
874.852	3342.5
875.095	3413.5
875.337	3351.5
875.58	3282.5
875.823	3307.5
876.066	3368.5
876.309	3405.5
876.551	3279.5
876.794	3221.5
877.037	3338.5
877.279	3254.5
877.522	3266.5
877.764	3287.5
878.007	3238.5
878.249	3303.5
878.491	3218.5
878.734	3261.5
878.976	3277.5
879.218	3201.5
879.46	3242.5
879.702	3177.5
879.945	3177.5
880.187	3086.5
880.429	3116.5
880.671	3092.5
880.912	3113.5
881.154	3081.5
881.396	3007.5
881.638	3087.5
881.88	3051.5
882.121	3016.5
882.363	3075.5
882.605	3091.5
882.846	3074.5
883.088	3087.5
883.329	2990.5
883.571	3031.5
883.812	3068.5
884.053	3087.5
884.295	3176.5
884.536	3293.5
884.777	3236.5
885.018	3256.5
885.259	3224.5
885.5	3160.5
885.742	3433.5
885.982	3171.5
886.223	3061.5
886.464	3034.5
886.705	3047.5
886.946	3062.5
887.187	2922.5
887.428	2983.5
887.668	2872.5
887.909	2855.5
888.15	2836.5
888.39	2873.5
888.631	2899.5
888.871	2831.5
889.111	2809.5
889.352	2811.5
889.592	2771.5
889.833	2704.5
890.073	2750.5
890.313	2780.5
890.553	2666.5
890.793	2712.5
891.033	2663.5
891.273	2641.5
891.513	2675.5
891.753	2738.5
891.993	2619.5
892.233	2674.5
892.473	2720.5
892.713	2715.5
892.952	2678.5
893.192	2705.5
893.432	2651.5
893.671	2760.5
893.911	2678.5
894.15	2656.5
894.39	2577.5
894.629	2621.5
894.869	2632.5
895.108	2572.5
895.347	2538.5
895.587	2570.5
895.826	2565.5
896.065	2530.5
896.304	2585.5
896.543	2579.5
896.782	2526.5
897.021	2552.5
897.26	2586.5
897.499	2631.5
897.738	2618.5
897.977	2566.5
898.216	2570.5
898.454	2517.5
898.693	2469.5
898.932	2497.5
899.17	2476.5
899.409	2467.5
899.647	2444.5
899.886	2412.5
900.124	2469.5
900.363	2421.5
900.601	2452.5
900.839	2457.5
901.078	2461.5
901.316	2473.5
901.554	2480.5
901.792	2505.5
902.03	2451.5
902.268	2474.5
902.506	2532.5
902.744	2420.5
902.982	2516.5
903.22	2372.5
903.458	2347.5
903.695	2392.5
903.933	2343.5
904.171	2290.5
904.409	2293.5
904.646	2243.5
904.884	2195.5
905.121	2262.5
905.359	2187.5
905.596	2210.5
905.833	2141.5
906.071	2142.5
906.308	2191.5
906.545	2151.5
906.783	2094.5
907.02	2160.5
907.257	2084.5
907.494	2146.5
907.731	2087.5
907.968	2111.5
908.205	2104.5
908.442	2070.5
908.679	2081.5
908.915	2069.5
909.152	2049.5
909.389	1981.5
909.626	2025.5
909.862	2002.5
910.099	1994.5
910.335	2025.5
910.572	1941.5
910.808	1975.5
911.045	1979.5
911.281	1946.5
911.518	2017.5
911.754	1977.5
911.99	1982.5
912.226	1944.5
912.463	1917.5
912.699	1913.5
912.935	1937.5
913.171	1880.5
913.407	1848.5
913.643	1931.5
913.879	1884.5
914.114	1854.5
914.35	1803.5
914.586	1813.5
914.822	1774.5
915.057	1861.5
915.293	1742.5
915.529	1726.5
915.764	1813.5
916	1802.5
916.235	1776.5
916.471	1784.5
916.706	1722.5
916.941	1751.5
917.177	1734.5
917.412	1795.5
917.647	1806.5
917.882	1738.5
918.117	1788.5
918.352	1739.5
918.588	1823.5
918.823	1746.5
919.057	1711.5
919.292	1616.5
919.527	1751.5
919.762	1668.5
919.997	1723.5
920.232	1662.5
920.466	1711.5
920.701	1607.5
920.935	1634.5
921.17	1628.5
921.405	1580.5
921.639	1645.5
921.873	1600.5
922.108	1661.5
922.342	1624.5
922.576	1580.5
922.811	1588.5
923.045	1633.5
923.279	1661.5
923.513	1507.5
923.747	1613.5
923.981	1585.5
924.215	1561.5
924.449	1558.5
924.683	1496.5
924.917	1522.5
925.151	1512.5
925.385	1579.5
925.618	1577.5
925.852	1518.5
926.086	1466.5
926.319	1533.5
926.553	1529.5
926.786	1534.5
927.02	1499.5
927.253	1572.5
927.486	1535.5
927.72	1466.5
927.953	1549.5
928.186	1493.5
928.42	1535.5
928.653	1475.5
928.886	1474.5
929.119	1517.5
929.352	1477.5
929.585	1498.5
929.818	1435.5
930.051	1472.5
930.284	1478.5
930.516	1401.5
930.749	1410.5
930.982	1493.5
931.215	1462.5
931.447	1389.5
931.68	1397.5
931.912	1394.5
932.145	1394.5
932.377	1398.5
932.61	1546.5
932.842	1354.5
933.074	1437.5
933.307	1354.5
933.539	1463.5
933.771	1465.5
934.003	1407.5
934.236	1458.5
934.468	1503.5
934.7	1399.5
934.932	1465.5
935.164	1361.5
935.395	1368.5
935.627	1419.5
935.859	1405.5
936.091	1341.5
936.323	1417.5
936.554	1444.5
936.786	1374.5
937.017	1342.5
937.249	1423.5
937.481	1312.5
937.712	1408.5
937.943	1382.5
938.175	1365.5
938.406	1335.5
938.637	1413.5
938.869	1326.5
939.1	1373.5
939.331	1351.5
939.562	1360.5
939.793	1357.5
940.024	1399.5
940.255	1411.5
940.486	1348.5
940.717	1364.5
940.948	1362.5
941.179	1300.5
941.409	1331.5
941.64	1297.5
941.871	1339.5
942.102	1318.5
942.332	1315.5
942.563	1341.5
942.793	1326.5
943.024	1273.5
943.254	1310.5
943.484	1356.5
943.715	1374.5
943.945	1355.5
944.175	1265.5
944.405	1255.5
944.636	1265.5
944.866	1355.5
945.096	1346.5
945.326	1243.5
945.556	1312.5
945.786	1357.5
946.016	1292.5
946.245	1242.5
946.475	1251.5
946.705	1269.5
946.935	1290.5
947.164	1273.5
947.394	1244.5
947.624	1288.5
947.853	1290.5
948.083	1256.5
948.312	1241.5
948.542	1224.5
948.771	1199.5
949	1198.5
949.23	1242.5
949.459	1253.5
949.688	1288.5
949.917	1277.5
950.146	1250.5
950.375	1295.5
950.604	1201.5
950.833	1296.5
951.062	1297.5
951.291	1255.5
951.52	1197.5
951.749	1237.5
951.978	1207.5
952.206	1193.5
952.435	1223.5
952.664	1249.5
952.892	1264.5
953.121	1230.5
953.349	1262.5
953.578	1229.5
953.806	1201.5
954.035	1180.5
954.263	1205.5
954.491	1156.5
954.719	1234.5
954.948	1174.5
955.176	1201.5
955.404	1108.5
955.632	1187.5
955.86	1220.5
956.088	1172.5
956.316	1232.5
956.544	1236.5
956.772	1176.5
956.999	1171.5
957.227	1254.5
957.455	1151.5
957.683	1172.5
957.91	1130.5
958.138	1160.5
958.365	1150.5
958.593	1157.5
958.82	1089.5
959.048	1165.5
959.275	1157.5
959.502	1131.5
959.73	1108.5
959.957	1195.5
960.184	1202.5
960.411	1178.5
960.638	1223.5
960.865	1171.5
961.092	1181.5
961.319	1065.5
961.546	1177.5
961.773	1198.5
962	1111.5
962.227	1194.5
962.454	1136.5
962.68	1133.5
962.907	1143.5
963.134	1093.5
963.36	1126.5
963.587	1162.5
963.813	1104.5
964.04	1150.5
964.266	1087.5
964.493	1184.5
964.719	1135.5
964.945	1186.5
965.171	1052.5
965.398	1136.5
965.624	1144.5
965.85	1075.5
966.076	1061.5
966.302	1138.5
966.528	1081.5
966.754	1112.5
966.98	1127.5
967.206	1113.5
967.431	1057.5
967.657	1141.5
967.883	1138.5
968.109	1134.5
968.334	1080.5
968.56	1045.5
968.785	1095.5
969.011	1038.5
969.236	1098.5
969.462	1026.5
969.687	1074.5
969.912	1121.5
970.138	1122.5
970.363	1035.5
970.588	1049.5
970.813	1067.5
971.038	1036.5
971.263	1063.5
971.488	1063.5
971.713	1108.5
971.938	1095.5
972.163	1007.5
972.388	1040.5
972.613	1035.5
972.838	1074.5
973.062	1025.5
973.287	1032.5
973.512	972.5
973.736	1041.5
973.961	1018.5
974.185	1008.5
974.41	1051.5
974.634	949.5
974.858	977.5
975.083	1010.5
975.307	1036.5
975.531	962.5
975.755	938.5
975.98	954.5
976.204	923.5
976.428	912.5
976.652	935.5
976.876	907.5
977.1	949.5
977.324	935.5
977.547	986.5
977.771	987.5
977.995	961.5
978.219	900.5
978.442	1049.5
978.666	932.5
978.89	967.5
979.113	961.5
979.337	946.5
979.56	934.5
979.783	996.5
980.007	927.5
980.23	939.5
980.453	920.5
980.677	965.5
980.9	950.5
981.123	864.5
981.346	955.5
981.569	939.5
981.792	968.5
982.015	936.5
982.238	892.5
982.461	917.5
982.684	895.5
982.907	892.5
983.129	862.5
983.352	946.5
983.575	914.5
983.797	947.5
984.02	878.5
984.242	896.5
984.465	906.5
984.687	941.5
984.91	967.5
985.132	925.5
985.354	946.5
985.577	915.5
985.799	913.5
986.021	852.5
986.243	893.5
986.465	900.5
986.687	942.5
986.909	980.5
987.131	932.5
987.353	886.5
987.575	919.5
987.797	901.5
988.019	834.5
988.241	889.5
988.462	871.5
988.684	914.5
988.906	940.5
989.127	973.5
989.349	874.5
989.57	911.5
989.792	942.5
990.013	954.5
990.234	940.5
990.456	979.5
990.677	962.5
990.898	887.5
991.119	916.5
991.341	942.5
991.562	865.5
991.783	921.5
992.004	871.5
992.225	848.5
992.446	909.5
992.667	817.5
992.887	914.5
993.108	791.5
993.329	966.5
993.55	913.5
993.77	856.5
993.991	840.5
994.212	892.5
994.432	866.5
994.653	901.5
994.873	903.5
995.093	801.5
995.314	845.5
995.534	916.5
995.754	952.5
995.975	939.5
996.195	833.5
996.415	901.5
996.635	891.5
996.855	897.5
997.075	862.5
997.295	881.5
997.515	837.5
997.735	895.5
997.955	866.5
998.174	855.5
998.394	845.5
998.614	894.5
998.834	868.5
999.053	945.5
999.273	880.5
999.492	950.5
999.712	860.5
999.931	852.5
1000.151	894.5
1000.37	894.5
1000.589	931.5
1000.809	861.5
1001.028	983.5
1001.247	929.5
1001.466	835.5
1001.685	965.5
1001.904	914.5
1002.123	915.5
1002.342	919.5
1002.561	892.5
1002.78	912.5
1002.999	975.5
1003.218	924.5
1003.436	910.5
1003.655	963.5
1003.874	884.5
1004.092	923.5
1004.311	952.5
1004.53	931.5
1004.748	1000.5
1004.966	944.5
1005.185	971.5
1005.403	968.5
1005.622	945.5
1005.84	1017.5
1006.058	915.5
1006.276	962.5
1006.494	1445.5
1006.712	940.5
1006.931	1002.5
1007.149	894.5
1007.367	936.5
1007.584	964.5
1007.802	970.5
1008.02	946.5
1008.238	1018.5
1008.456	1019.5
1008.673	854.5
1008.891	966.5
1009.109	931.5
1009.326	959.5
1009.544	1035.5
1009.761	944.5
1009.979	1007.5
1010.196	971.5
1010.413	1049.5
1010.631	1060.5
1010.848	1093.5
1011.065	1060.5
1011.282	1036.5
1011.5	977.5
1011.717	1078.5
1011.934	1017.5
1012.151	1087.5
1012.368	1044.5
1012.585	1006.5
1012.801	1038.5
1013.018	1017.5
1013.235	966.5
1013.452	989.5
1013.669	1016.5
1013.885	975.5
1014.102	1022.5
1014.318	970.5
1014.535	925.5
1014.751	973.5
1014.968	981.5
1015.184	1016.5
1015.401	933.5
1015.617	976.5
1015.833	942.5
1016.049	941.5
1016.266	942.5
1016.482	953.5
1016.698	885.5
1016.914	928.5
1017.13	879.5
1017.346	914.5
1017.562	984.5
1017.778	906.5
1017.993	893.5
1018.209	934.5
1018.425	911.5
1018.641	878.5
1018.856	854.5
1019.072	885.5
1019.288	939.5
1019.503	887.5
1019.719	803.5
1019.934	836.5
1020.149	907.5
1020.365	867.5
1020.58	790.5
1020.795	908.5
1021.011	819.5
1021.226	814.5
1021.441	860.5
1021.656	775.5
1021.871	729.5
1022.086	742.5
1022.301	743.5
1022.516	736.5
1022.731	783.5
1022.946	723.5
1023.16	708.5
1023.375	689.5
1023.59	679.5
1023.804	666.5
1024.019	772.5
1024.234	653.5
1024.448	701.5
1024.663	625.5
1024.877	657.5
1025.092	665.5
1025.306	681.5
1025.52	600.5
1025.734	670.5
1025.949	618.5
1026.163	587.5
1026.377	544.5
1026.591	597.5
1026.805	544.5
1027.019	538.5
1027.233	502.5
1027.447	467.5
1027.661	565.5
1027.875	524.5
1028.088	515.5
1028.302	465.5
1028.516	456.5
1028.73	472.5
1028.943	475.5
1029.157	432.5
1029.37	395.5
1029.584	-0.5
1029.797	-3.5
1030.011	-0.5
1030.224	-1.5
