Data from QEP037381__95__10-19-12-732.txt Node

Date: Wed Dec 21 10:19:12 EST 2022
User: dcclab
Spectrometer: QEP03738
Trigger mode: 4
Integration Time (sec): 1.000000E1
Scans to average: 1
Electric dark correction enabled: true
Nonlinearity correction enabled: false
Boxcar width: 0
XAxis mode: Wavelengths
Number of Pixels in Spectrum: 1044
>>>>>Begin Spectral Data<<<<<
784.041	11.12
784.3	3.12
784.558	-2.88
784.817	-2.88
785.075	77377.12
785.334	13112.12
785.592	6052.12
785.851	4161.12
786.109	3195.12
786.368	2468.12
786.626	2008.12
786.884	1681.12
787.143	1419.12
787.401	1143.12
787.659	1093.12
787.917	920.12
788.175	864.12
788.433	759.12
788.691	694.12
788.949	644.12
789.207	615.12
789.465	545.12
789.723	508.12
789.98	476.12
790.238	532.12
790.496	499.12
790.753	470.12
791.011	524.12
791.268	458.12
791.526	452.12
791.783	449.12
792.041	454.12
792.298	374.12
792.556	456.12
792.813	406.12
793.07	409.12
793.327	395.12
793.584	475.12
793.841	388.12
794.099	413.12
794.356	456.12
794.613	354.12
794.869	409.12
795.126	383.12
795.383	350.12
795.64	381.12
795.897	333.12
796.153	390.12
796.41	374.12
796.667	354.12
796.923	356.12
797.18	366.12
797.436	369.12
797.693	345.12
797.949	391.12
798.206	441.12
798.462	340.12
798.718	391.12
798.974	372.12
799.231	387.12
799.487	383.12
799.743	381.12
799.999	416.12
800.255	401.12
800.511	375.12
800.767	413.12
801.023	383.12
801.279	406.12
801.534	416.12
801.79	423.12
802.046	413.12
802.302	473.12
802.557	475.12
802.813	527.12
803.068	530.12
803.324	692.12
803.579	801.12
803.835	987.12
804.09	1333.12
804.345	1608.12
804.601	1993.12
804.856	2389.12
805.111	2710.12
805.366	2979.12
805.621	3111.12
805.876	3246.12
806.131	3282.12
806.386	3344.12
806.641	3361.12
806.896	3407.12
807.151	3543.12
807.406	3533.12
807.661	3613.12
807.915	3672.12
808.17	3691.12
808.425	3745.12
808.679	3735.12
808.934	3826.12
809.188	3837.12
809.443	3905.12
809.697	3945.12
809.951	3902.12
810.206	3965.12
810.46	4043.12
810.714	4094.12
810.968	4142.12
811.223	4087.12
811.477	4190.12
811.731	4225.12
811.985	4152.12
812.239	4134.12
812.493	4228.12
812.747	4278.12
813	4248.12
813.254	4277.12
813.508	4298.12
813.762	4279.12
814.015	4294.12
814.269	4380.12
814.522	4435.12
814.776	4486.12
815.03	4508.12
815.283	4540.12
815.536	4688.12
815.79	4744.12
816.043	4750.12
816.296	4814.12
816.55	4812.12
816.803	4945.12
817.056	5105.12
817.309	5021.12
817.562	5035.12
817.815	5134.12
818.068	5203.12
818.321	5176.12
818.574	5247.12
818.827	5400.12
819.079	5392.12
819.332	5611.12
819.585	5568.12
819.838	5712.12
820.09	5693.12
820.343	5751.12
820.595	5679.12
820.848	5778.12
821.1	5857.12
821.353	5827.12
821.605	5831.12
821.857	5881.12
822.11	5764.12
822.362	5781.12
822.614	5725.12
822.866	5802.12
823.118	5784.12
823.37	5824.12
823.622	5881.12
823.874	5889.12
824.126	5989.12
824.378	5934.12
824.63	6017.12
824.882	5990.12
825.134	5944.12
825.385	5917.12
825.637	5911.12
825.888	5866.12
826.14	5877.12
826.392	5831.12
826.643	5761.12
826.895	5797.12
827.146	5776.12
827.397	5729.12
827.649	5833.12
827.9	5715.12
828.151	5720.12
828.402	5736.12
828.653	5757.12
828.905	5784.12
829.156	5869.12
829.407	5751.12
829.658	5823.12
829.909	5883.12
830.159	5783.12
830.41	5830.12
830.661	5796.12
830.912	5704.12
831.162	5700.12
831.413	5697.12
831.664	5770.12
831.914	5696.12
832.165	5705.12
832.415	5703.12
832.666	5748.12
832.916	5755.12
833.167	5668.12
833.417	5781.12
833.667	5719.12
833.917	5677.12
834.168	5773.12
834.418	5733.12
834.668	5692.12
834.918	5649.12
835.168	5641.12
835.418	5588.12
835.668	5595.12
835.918	5679.12
836.167	5593.12
836.417	5626.12
836.667	5637.12
836.917	5630.12
837.166	5607.12
837.416	5591.12
837.666	5620.12
837.915	5538.12
838.165	5540.12
838.414	5452.12
838.663	5450.12
838.913	5498.12
839.162	5409.12
839.411	5517.12
839.661	5422.12
839.91	5466.12
840.159	5449.12
840.408	5483.12
840.657	5468.12
840.906	5530.12
841.155	5494.12
841.404	5483.12
841.653	5465.12
841.902	5438.12
842.15	5503.12
842.399	5473.12
842.648	5433.12
842.897	5457.12
843.145	5374.12
843.394	5364.12
843.642	5311.12
843.891	5375.12
844.139	5346.12
844.388	5247.12
844.636	5231.12
844.884	5258.12
845.133	5287.12
845.381	5279.12
845.629	5227.12
845.877	5186.12
846.125	5207.12
846.373	5298.12
846.621	5234.12
846.869	5237.12
847.117	5195.12
847.365	5193.12
847.613	5162.12
847.861	5164.12
848.108	5206.12
848.356	5186.12
848.604	5133.12
848.851	5131.12
849.099	5167.12
849.346	5195.12
849.594	5197.12
849.841	5258.12
850.089	5211.12
850.336	5191.12
850.583	5237.12
850.831	5235.12
851.078	5246.12
851.325	5272.12
851.572	5386.12
851.819	5299.12
852.066	5110.12
852.313	5010.12
852.56	4915.12
852.807	4895.12
853.054	4849.12
853.301	4916.12
853.548	4944.12
853.794	5059.12
854.041	5066.12
854.288	4996.12
854.534	5112.12
854.781	5071.12
855.028	5015.12
855.274	5070.12
855.52	4969.12
855.767	4916.12
856.013	4994.12
856.26	5235.12
856.506	4908.12
856.752	4933.12
856.998	4899.12
857.244	4890.12
857.49	4925.12
857.736	4987.12
857.982	4981.12
858.228	4939.12
858.474	4911.12
858.72	4851.12
858.966	4867.12
859.212	4765.12
859.458	4742.12
859.703	4745.12
859.949	4624.12
860.195	4636.12
860.44	4622.12
860.686	4580.12
860.931	4601.12
861.177	4536.12
861.422	4565.12
861.667	4542.12
861.913	4519.12
862.158	4574.12
862.403	4644.12
862.648	4596.12
862.893	4672.12
863.138	4601.12
863.384	4524.12
863.629	4580.12
863.873	4577.12
864.118	4601.12
864.363	4486.12
864.608	4544.12
864.853	4530.12
865.098	4441.12
865.342	4527.12
865.587	4443.12
865.832	4481.12
866.076	4476.12
866.321	4436.12
866.565	4461.12
866.81	4386.12
867.054	4414.12
867.298	4392.12
867.543	4345.12
867.787	4431.12
868.031	4378.12
868.275	4399.12
868.519	4389.12
868.764	4395.12
869.008	4348.12
869.252	4377.12
869.496	4317.12
869.739	4319.12
869.983	4360.12
870.227	4374.12
870.471	4304.12
870.715	4384.12
870.958	4401.12
871.202	4329.12
871.446	4347.12
871.689	4392.12
871.933	4350.12
872.176	4354.12
872.42	4382.12
872.663	4335.12
872.906	4338.12
873.15	4300.12
873.393	4206.12
873.636	4339.12
873.879	4303.12
874.122	4256.12
874.366	4173.12
874.609	4214.12
874.852	4164.12
875.095	4121.12
875.337	4091.12
875.58	4045.12
875.823	4111.12
876.066	4118.12
876.309	4138.12
876.551	4008.12
876.794	3980.12
877.037	4069.12
877.279	3982.12
877.522	3996.12
877.764	4035.12
878.007	3926.12
878.249	4036.12
878.491	3954.12
878.734	4025.12
878.976	3980.12
879.218	3925.12
879.46	4002.12
879.702	3954.12
879.945	3864.12
880.187	3831.12
880.429	3824.12
880.671	3816.12
880.912	3808.12
881.154	3748.12
881.396	3707.12
881.638	3772.12
881.88	3836.12
882.121	3707.12
882.363	3732.12
882.605	3819.12
882.846	3743.12
883.088	3792.12
883.329	3751.12
883.571	3713.12
883.812	3739.12
884.053	3861.12
884.295	3897.12
884.536	4002.12
884.777	3945.12
885.018	3934.12
885.259	3929.12
885.5	3897.12
885.742	4156.12
885.982	3897.12
886.223	3780.12
886.464	3788.12
886.705	3700.12
886.946	3714.12
887.187	3627.12
887.428	3675.12
887.668	3544.12
887.909	3549.12
888.15	3502.12
888.39	3540.12
888.631	3524.12
888.871	3483.12
889.111	3445.12
889.352	3434.12
889.592	3384.12
889.833	3374.12
890.073	3359.12
890.313	3393.12
890.553	3249.12
890.793	3268.12
891.033	3256.12
891.273	3247.12
891.513	3246.12
891.753	3307.12
891.993	3231.12
892.233	3284.12
892.473	3348.12
892.713	3293.12
892.952	3244.12
893.192	3286.12
893.432	3262.12
893.671	3331.12
893.911	3300.12
894.15	3265.12
894.39	3210.12
894.629	3180.12
894.869	3187.12
895.108	3148.12
895.347	3165.12
895.587	3146.12
895.826	3125.12
896.065	3101.12
896.304	3121.12
896.543	3192.12
896.782	3059.12
897.021	3104.12
897.26	3153.12
897.499	3207.12
897.738	3187.12
897.977	3100.12
898.216	3087.12
898.454	3080.12
898.693	3032.12
898.932	3007.12
899.17	2973.12
899.409	3005.12
899.647	3005.12
899.886	2985.12
900.124	2975.12
900.363	2945.12
900.601	2999.12
900.839	3015.12
901.078	3007.12
901.316	3031.12
901.554	3046.12
901.792	3062.12
902.03	2988.12
902.268	3007.12
902.506	3031.12
902.744	3024.12
902.982	3005.12
903.22	2952.12
903.458	2866.12
903.695	2878.12
903.933	2838.12
904.171	2791.12
904.409	2760.12
904.646	2783.12
904.884	2736.12
905.121	2779.12
905.359	2662.12
905.596	2667.12
905.833	2639.12
906.071	2597.12
906.308	2628.12
906.545	2625.12
906.783	2590.12
907.02	2627.12
907.257	2572.12
907.494	2567.12
907.731	2598.12
907.968	2589.12
908.205	2525.12
908.442	2533.12
908.679	2540.12
908.915	2537.12
909.152	2524.12
909.389	2455.12
909.626	2458.12
909.862	2445.12
910.099	2442.12
910.335	2487.12
910.572	2398.12
910.808	2407.12
911.045	2398.12
911.281	2385.12
911.518	2439.12
911.754	2404.12
911.99	2408.12
912.226	2326.12
912.463	2305.12
912.699	2344.12
912.935	2321.12
913.171	2290.12
913.407	2263.12
913.643	2326.12
913.879	2273.12
914.114	2254.12
914.35	2205.12
914.586	2183.12
914.822	2173.12
915.057	2254.12
915.293	2093.12
915.529	2119.12
915.764	2213.12
916	2181.12
916.235	2149.12
916.471	2199.12
916.706	2088.12
916.941	2106.12
917.177	2121.12
917.412	2170.12
917.647	2194.12
917.882	2122.12
918.117	2168.12
918.352	2138.12
918.588	2149.12
918.823	2110.12
919.057	2089.12
919.292	1978.12
919.527	2116.12
919.762	2010.12
919.997	2128.12
920.232	1999.12
920.466	2029.12
920.701	1944.12
920.935	1982.12
921.17	1955.12
921.405	1930.12
921.639	1989.12
921.873	1963.12
922.108	1963.12
922.342	1944.12
922.576	1906.12
922.811	1905.12
923.045	1940.12
923.279	1986.12
923.513	1842.12
923.747	1942.12
923.981	1906.12
924.215	1860.12
924.449	1861.12
924.683	1813.12
924.917	1823.12
925.151	1813.12
925.385	1896.12
925.618	1850.12
925.852	1841.12
926.086	1763.12
926.319	1835.12
926.553	1790.12
926.786	1854.12
927.02	1815.12
927.253	1848.12
927.486	1846.12
927.72	1813.12
927.953	1832.12
928.186	1793.12
928.42	1810.12
928.653	1758.12
928.886	1784.12
929.119	1800.12
929.352	1820.12
929.585	1798.12
929.818	1734.12
930.051	1771.12
930.284	1738.12
930.516	1685.12
930.749	1690.12
930.982	1746.12
931.215	1730.12
931.447	1649.12
931.68	1662.12
931.912	1678.12
932.145	1690.12
932.377	1708.12
932.61	1819.12
932.842	1618.12
933.074	1717.12
933.307	1658.12
933.539	1752.12
933.771	1736.12
934.003	1664.12
934.236	1751.12
934.468	1765.12
934.7	1683.12
934.932	1706.12
935.164	1642.12
935.395	1660.12
935.627	1686.12
935.859	1648.12
936.091	1592.12
936.323	1683.12
936.554	1689.12
936.786	1638.12
937.017	1603.12
937.249	1662.12
937.481	1579.12
937.712	1667.12
937.943	1632.12
938.175	1641.12
938.406	1621.12
938.637	1679.12
938.869	1572.12
939.1	1626.12
939.331	1609.12
939.562	1617.12
939.793	1648.12
940.024	1639.12
940.255	1651.12
940.486	1600.12
940.717	1602.12
940.948	1613.12
941.179	1549.12
941.409	1574.12
941.64	1550.12
941.871	1567.12
942.102	1569.12
942.332	1580.12
942.563	1611.12
942.793	1578.12
943.024	1513.12
943.254	1573.12
943.484	1606.12
943.715	1614.12
943.945	1584.12
944.175	1520.12
944.405	1504.12
944.636	1519.12
944.866	1551.12
945.096	1581.12
945.326	1508.12
945.556	1571.12
945.786	1587.12
946.016	1563.12
946.245	1509.12
946.475	1492.12
946.705	1506.12
946.935	1523.12
947.164	1571.12
947.394	1473.12
947.624	1504.12
947.853	1534.12
948.083	1527.12
948.312	1474.12
948.542	1411.12
948.771	1427.12
949	1455.12
949.23	1449.12
949.459	1456.12
949.688	1497.12
949.917	1486.12
950.146	1501.12
950.375	1525.12
950.604	1437.12
950.833	1543.12
951.062	1519.12
951.291	1474.12
951.52	1440.12
951.749	1472.12
951.978	1438.12
952.206	1422.12
952.435	1436.12
952.664	1457.12
952.892	1487.12
953.121	1456.12
953.349	1472.12
953.578	1465.12
953.806	1430.12
954.035	1405.12
954.263	1447.12
954.491	1404.12
954.719	1409.12
954.948	1385.12
955.176	1370.12
955.404	1338.12
955.632	1413.12
955.86	1381.12
956.088	1392.12
956.316	1428.12
956.544	1431.12
956.772	1382.12
956.999	1359.12
957.227	1447.12
957.455	1355.12
957.683	1362.12
957.91	1346.12
958.138	1326.12
958.365	1342.12
958.593	1350.12
958.82	1282.12
959.048	1365.12
959.275	1334.12
959.502	1346.12
959.73	1319.12
959.957	1380.12
960.184	1409.12
960.411	1365.12
960.638	1443.12
960.865	1343.12
961.092	1359.12
961.319	1277.12
961.546	1381.12
961.773	1373.12
962	1325.12
962.227	1371.12
962.454	1291.12
962.68	1307.12
962.907	1334.12
963.134	1297.12
963.36	1340.12
963.587	1363.12
963.813	1295.12
964.04	1332.12
964.266	1277.12
964.493	1338.12
964.719	1348.12
964.945	1337.12
965.171	1218.12
965.398	1279.12
965.624	1297.12
965.85	1246.12
966.076	1245.12
966.302	1301.12
966.528	1256.12
966.754	1287.12
966.98	1277.12
967.206	1265.12
967.431	1215.12
967.657	1275.12
967.883	1282.12
968.109	1270.12
968.334	1223.12
968.56	1223.12
968.785	1239.12
969.011	1203.12
969.236	1281.12
969.462	1202.12
969.687	1225.12
969.912	1285.12
970.138	1260.12
970.363	1199.12
970.588	1208.12
970.813	1205.12
971.038	1193.12
971.263	1263.12
971.488	1203.12
971.713	1277.12
971.938	1243.12
972.163	1162.12
972.388	1204.12
972.613	1189.12
972.838	1191.12
973.062	1177.12
973.287	1179.12
973.512	1118.12
973.736	1170.12
973.961	1165.12
974.185	1157.12
974.41	1188.12
974.634	1092.12
974.858	1103.12
975.083	1147.12
975.307	1160.12
975.531	1145.12
975.755	1069.12
975.98	1116.12
976.204	1062.12
976.428	1071.12
976.652	1094.12
976.876	1065.12
977.1	1094.12
977.324	1043.12
977.547	1113.12
977.771	1129.12
977.995	1101.12
978.219	1029.12
978.442	1161.12
978.666	1089.12
978.89	1093.12
979.113	1095.12
979.337	1082.12
979.56	1043.12
979.783	1144.12
980.007	1043.12
980.23	1093.12
980.453	1045.12
980.677	1063.12
980.9	1063.12
981.123	972.12
981.346	1093.12
981.569	1087.12
981.792	1116.12
982.015	1053.12
982.238	1027.12
982.461	1065.12
982.684	1017.12
982.907	1013.12
983.129	1024.12
983.352	1062.12
983.575	1030.12
983.797	1049.12
984.02	1008.12
984.242	1022.12
984.465	1024.12
984.687	1053.12
984.91	1054.12
985.132	1021.12
985.354	1065.12
985.577	1039.12
985.799	1046.12
986.021	960.12
986.243	988.12
986.465	1022.12
986.687	1048.12
986.909	1092.12
987.131	1025.12
987.353	993.12
987.575	1030.12
987.797	1017.12
988.019	953.12
988.241	1014.12
988.462	948.12
988.684	1014.12
988.906	1055.12
989.127	1072.12
989.349	975.12
989.57	1008.12
989.792	1050.12
990.013	1045.12
990.234	1067.12
990.456	1084.12
990.677	1065.12
990.898	997.12
991.119	994.12
991.341	1048.12
991.562	982.12
991.783	1026.12
992.004	972.12
992.225	955.12
992.446	1010.12
992.667	904.12
992.887	1015.12
993.108	903.12
993.329	1055.12
993.55	986.12
993.77	924.12
993.991	964.12
994.212	1004.12
994.432	983.12
994.653	996.12
994.873	988.12
995.093	879.12
995.314	936.12
995.534	1005.12
995.754	1029.12
995.975	1037.12
996.195	941.12
996.415	984.12
996.635	937.12
996.855	996.12
997.075	970.12
997.295	957.12
997.515	932.12
997.735	978.12
997.955	966.12
998.174	952.12
998.394	931.12
998.614	989.12
998.834	929.12
999.053	995.12
999.273	974.12
999.492	1064.12
999.712	985.12
999.931	941.12
1000.151	991.12
1000.37	967.12
1000.589	1018.12
1000.809	971.12
1001.028	1070.12
1001.247	1014.12
1001.466	905.12
1001.685	1051.12
1001.904	1003.12
1002.123	989.12
1002.342	996.12
1002.561	943.12
1002.78	994.12
1002.999	1061.12
1003.218	1011.12
1003.436	985.12
1003.655	1043.12
1003.874	945.12
1004.092	980.12
1004.311	1051.12
1004.53	1010.12
1004.748	1087.12
1004.966	981.12
1005.185	1077.12
1005.403	1037.12
1005.622	1047.12
1005.84	1073.12
1006.058	997.12
1006.276	1023.12
1006.494	1491.12
1006.712	992.12
1006.931	1103.12
1007.149	988.12
1007.367	987.12
1007.584	1025.12
1007.802	1043.12
1008.02	997.12
1008.238	1099.12
1008.456	1065.12
1008.673	941.12
1008.891	1051.12
1009.109	991.12
1009.326	1035.12
1009.544	1147.12
1009.761	1008.12
1009.979	1073.12
1010.196	1069.12
1010.413	1150.12
1010.631	1160.12
1010.848	1147.12
1011.065	1167.12
1011.282	1126.12
1011.5	1066.12
1011.717	1150.12
1011.934	1130.12
1012.151	1141.12
1012.368	1156.12
1012.585	1083.12
1012.801	1128.12
1013.018	1109.12
1013.235	1062.12
1013.452	1089.12
1013.669	1102.12
1013.885	1072.12
1014.102	1085.12
1014.318	1067.12
1014.535	1066.12
1014.751	1071.12
1014.968	1078.12
1015.184	1117.12
1015.401	1030.12
1015.617	1065.12
1015.833	1013.12
1016.049	1016.12
1016.266	1012.12
1016.482	1040.12
1016.698	964.12
1016.914	1040.12
1017.13	959.12
1017.346	977.12
1017.562	1039.12
1017.778	962.12
1017.993	963.12
1018.209	1027.12
1018.425	985.12
1018.641	952.12
1018.856	935.12
1019.072	976.12
1019.288	1016.12
1019.503	963.12
1019.719	891.12
1019.934	901.12
1020.149	965.12
1020.365	928.12
1020.58	886.12
1020.795	955.12
1021.011	894.12
1021.226	887.12
1021.441	920.12
1021.656	849.12
1021.871	784.12
1022.086	812.12
1022.301	771.12
1022.516	790.12
1022.731	881.12
1022.946	766.12
1023.16	762.12
1023.375	730.12
1023.59	718.12
1023.804	718.12
1024.019	799.12
1024.234	689.12
1024.448	710.12
1024.663	672.12
1024.877	686.12
1025.092	712.12
1025.306	714.12
1025.52	625.12
1025.734	733.12
1025.949	648.12
1026.163	641.12
1026.377	579.12
1026.591	640.12
1026.805	580.12
1027.019	582.12
1027.233	546.12
1027.447	487.12
1027.661	595.12
1027.875	546.12
1028.088	563.12
1028.302	490.12
1028.516	493.12
1028.73	517.12
1028.943	500.12
1029.157	469.12
1029.37	430.12
1029.584	-1.88
1029.797	1.12
1030.011	-5.88
1030.224	-1.88
