Data from QEP037381__142__10-27-02-735.txt Node

Date: Wed Dec 21 10:27:02 EST 2022
User: dcclab
Spectrometer: QEP03738
Trigger mode: 4
Integration Time (sec): 1.000000E1
Scans to average: 1
Electric dark correction enabled: true
Nonlinearity correction enabled: false
Boxcar width: 0
XAxis mode: Wavelengths
Number of Pixels in Spectrum: 1044
>>>>>Begin Spectral Data<<<<<
784.041	9.5
784.3	1.5
784.558	0.5
784.817	-3.5
785.075	76477.5
785.334	13451.5
785.592	6261.5
785.851	4362.5
786.109	3296.5
786.368	2611.5
786.626	2088.5
786.884	1757.5
787.143	1478.5
787.401	1225.5
787.659	1123.5
787.917	960.5
788.175	904.5
788.433	794.5
788.691	721.5
788.949	670.5
789.207	648.5
789.465	566.5
789.723	537.5
789.98	509.5
790.238	534.5
790.496	517.5
790.753	489.5
791.011	522.5
791.268	467.5
791.526	465.5
791.783	476.5
792.041	438.5
792.298	366.5
792.556	440.5
792.813	424.5
793.07	412.5
793.327	387.5
793.584	475.5
793.841	400.5
794.099	427.5
794.356	463.5
794.613	372.5
794.869	406.5
795.126	382.5
795.383	367.5
795.64	373.5
795.897	325.5
796.153	395.5
796.41	372.5
796.667	360.5
796.923	361.5
797.18	369.5
797.436	381.5
797.693	346.5
797.949	406.5
798.206	420.5
798.462	337.5
798.718	380.5
798.974	360.5
799.231	397.5
799.487	394.5
799.743	382.5
799.999	404.5
800.255	410.5
800.511	367.5
800.767	405.5
801.023	377.5
801.279	392.5
801.534	398.5
801.79	422.5
802.046	394.5
802.302	474.5
802.557	454.5
802.813	527.5
803.068	490.5
803.324	639.5
803.579	734.5
803.835	889.5
804.09	1175.5
804.345	1386.5
804.601	1671.5
804.856	2071.5
805.111	2342.5
805.366	2487.5
805.621	2624.5
805.876	2728.5
806.131	2794.5
806.386	2782.5
806.641	2846.5
806.896	2886.5
807.151	2942.5
807.406	2982.5
807.661	3027.5
807.915	3055.5
808.17	3090.5
808.425	3142.5
808.679	3124.5
808.934	3227.5
809.188	3204.5
809.443	3242.5
809.697	3299.5
809.951	3301.5
810.206	3314.5
810.46	3391.5
810.714	3448.5
810.968	3464.5
811.223	3393.5
811.477	3461.5
811.731	3478.5
811.985	3438.5
812.239	3450.5
812.493	3457.5
812.747	3537.5
813	3474.5
813.254	3571.5
813.508	3601.5
813.762	3606.5
814.015	3596.5
814.269	3664.5
814.522	3683.5
814.776	3732.5
815.03	3755.5
815.283	3795.5
815.536	3860.5
815.79	3894.5
816.043	3952.5
816.296	4008.5
816.55	4019.5
816.803	4080.5
817.056	4204.5
817.309	4145.5
817.562	4215.5
817.815	4293.5
818.068	4210.5
818.321	4246.5
818.574	4310.5
818.827	4395.5
819.079	4443.5
819.332	4572.5
819.585	4582.5
819.838	4711.5
820.09	4613.5
820.343	4720.5
820.595	4625.5
820.848	4767.5
821.1	4767.5
821.353	4756.5
821.605	4766.5
821.857	4796.5
822.11	4717.5
822.362	4755.5
822.614	4705.5
822.866	4747.5
823.118	4732.5
823.37	4854.5
823.622	4782.5
823.874	4825.5
824.126	4904.5
824.378	4894.5
824.63	4913.5
824.882	4962.5
825.134	4923.5
825.385	4905.5
825.637	4802.5
825.888	4766.5
826.14	4833.5
826.392	4785.5
826.643	4692.5
826.895	4791.5
827.146	4717.5
827.397	4671.5
827.649	4742.5
827.9	4670.5
828.151	4656.5
828.402	4674.5
828.653	4702.5
828.905	4735.5
829.156	4779.5
829.407	4705.5
829.658	4712.5
829.909	4785.5
830.159	4789.5
830.41	4778.5
830.661	4781.5
830.912	4692.5
831.162	4652.5
831.413	4638.5
831.664	4732.5
831.914	4632.5
832.165	4707.5
832.415	4713.5
832.666	4680.5
832.916	4725.5
833.167	4659.5
833.417	4751.5
833.667	4692.5
833.917	4678.5
834.168	4726.5
834.418	4700.5
834.668	4666.5
834.918	4650.5
835.168	4681.5
835.418	4566.5
835.668	4622.5
835.918	4628.5
836.167	4610.5
836.417	4566.5
836.667	4650.5
836.917	4574.5
837.166	4577.5
837.416	4587.5
837.666	4589.5
837.915	4572.5
838.165	4500.5
838.414	4507.5
838.663	4424.5
838.913	4479.5
839.162	4468.5
839.411	4569.5
839.661	4498.5
839.91	4470.5
840.159	4503.5
840.408	4504.5
840.657	4538.5
840.906	4518.5
841.155	4567.5
841.404	4507.5
841.653	4473.5
841.902	4435.5
842.15	4523.5
842.399	4480.5
842.648	4471.5
842.897	4540.5
843.145	4419.5
843.394	4433.5
843.642	4390.5
843.891	4460.5
844.139	4435.5
844.388	4321.5
844.636	4282.5
844.884	4316.5
845.133	4308.5
845.381	4317.5
845.629	4381.5
845.877	4298.5
846.125	4330.5
846.373	4298.5
846.621	4256.5
846.869	4410.5
847.117	4284.5
847.365	4257.5
847.613	4202.5
847.861	4259.5
848.108	4266.5
848.356	4253.5
848.604	4222.5
848.851	4268.5
849.099	4243.5
849.346	4241.5
849.594	4283.5
849.841	4286.5
850.089	4319.5
850.336	4274.5
850.583	4307.5
850.831	4338.5
851.078	4332.5
851.325	4379.5
851.572	4495.5
851.819	4391.5
852.066	4206.5
852.313	4114.5
852.56	4095.5
852.807	4017.5
853.054	4059.5
853.301	4082.5
853.548	4139.5
853.794	4166.5
854.041	4127.5
854.288	4104.5
854.534	4237.5
854.781	4184.5
855.028	4136.5
855.274	4211.5
855.52	4154.5
855.767	4118.5
856.013	4131.5
856.26	4434.5
856.506	4087.5
856.752	4103.5
856.998	4060.5
857.244	4055.5
857.49	4141.5
857.736	4093.5
857.982	4122.5
858.228	4099.5
858.474	4026.5
858.72	4089.5
858.966	4040.5
859.212	3961.5
859.458	3958.5
859.703	3904.5
859.949	3896.5
860.195	3856.5
860.44	3830.5
860.686	3784.5
860.931	3867.5
861.177	3782.5
861.422	3811.5
861.667	3730.5
861.913	3752.5
862.158	3781.5
862.403	3777.5
862.648	3800.5
862.893	3828.5
863.138	3802.5
863.384	3780.5
863.629	3812.5
863.873	3735.5
864.118	3746.5
864.363	3707.5
864.608	3787.5
864.853	3796.5
865.098	3712.5
865.342	3735.5
865.587	3684.5
865.832	3715.5
866.076	3745.5
866.321	3654.5
866.565	3660.5
866.81	3637.5
867.054	3642.5
867.298	3588.5
867.543	3623.5
867.787	3659.5
868.031	3666.5
868.275	3618.5
868.519	3557.5
868.764	3628.5
869.008	3613.5
869.252	3625.5
869.496	3602.5
869.739	3633.5
869.983	3634.5
870.227	3651.5
870.471	3588.5
870.715	3672.5
870.958	3673.5
871.202	3617.5
871.446	3621.5
871.689	3673.5
871.933	3644.5
872.176	3660.5
872.42	3643.5
872.663	3593.5
872.906	3675.5
873.15	3618.5
873.393	3622.5
873.636	3666.5
873.879	3602.5
874.122	3613.5
874.366	3503.5
874.609	3500.5
874.852	3461.5
875.095	3481.5
875.337	3442.5
875.58	3388.5
875.823	3376.5
876.066	3425.5
876.309	3450.5
876.551	3347.5
876.794	3308.5
877.037	3396.5
877.279	3309.5
877.522	3319.5
877.764	3389.5
878.007	3309.5
878.249	3339.5
878.491	3279.5
878.734	3372.5
878.976	3336.5
879.218	3255.5
879.46	3319.5
879.702	3300.5
879.945	3264.5
880.187	3152.5
880.429	3201.5
880.671	3180.5
880.912	3190.5
881.154	3126.5
881.396	3046.5
881.638	3141.5
881.88	3116.5
882.121	3051.5
882.363	3094.5
882.605	3159.5
882.846	3120.5
883.088	3125.5
883.329	3087.5
883.571	3097.5
883.812	3158.5
884.053	3237.5
884.295	3375.5
884.536	3484.5
884.777	3419.5
885.018	3412.5
885.259	3400.5
885.5	3275.5
885.742	3625.5
885.982	3284.5
886.223	3235.5
886.464	3208.5
886.705	3165.5
886.946	3160.5
887.187	3064.5
887.428	3121.5
887.668	2990.5
887.909	2928.5
888.15	2882.5
888.39	2898.5
888.631	2943.5
888.871	2912.5
889.111	2927.5
889.352	2847.5
889.592	2747.5
889.833	2828.5
890.073	2799.5
890.313	2838.5
890.553	2699.5
890.793	2732.5
891.033	2716.5
891.273	2684.5
891.513	2687.5
891.753	2773.5
891.993	2696.5
892.233	2734.5
892.473	2844.5
892.713	2734.5
892.952	2659.5
893.192	2737.5
893.432	2737.5
893.671	2780.5
893.911	2721.5
894.15	2675.5
894.39	2632.5
894.629	2653.5
894.869	2670.5
895.108	2681.5
895.347	2599.5
895.587	2622.5
895.826	2639.5
896.065	2601.5
896.304	2633.5
896.543	2681.5
896.782	2563.5
897.021	2590.5
897.26	2653.5
897.499	2651.5
897.738	2659.5
897.977	2601.5
898.216	2565.5
898.454	2575.5
898.693	2523.5
898.932	2501.5
899.17	2511.5
899.409	2465.5
899.647	2505.5
899.886	2487.5
900.124	2518.5
900.363	2470.5
900.601	2517.5
900.839	2533.5
901.078	2539.5
901.316	2572.5
901.554	2588.5
901.792	2614.5
902.03	2533.5
902.268	2559.5
902.506	2606.5
902.744	2556.5
902.982	2597.5
903.22	2478.5
903.458	2441.5
903.695	2435.5
903.933	2435.5
904.171	2364.5
904.409	2310.5
904.646	2299.5
904.884	2252.5
905.121	2307.5
905.359	2285.5
905.596	2268.5
905.833	2189.5
906.071	2169.5
906.308	2214.5
906.545	2203.5
906.783	2159.5
907.02	2170.5
907.257	2150.5
907.494	2167.5
907.731	2178.5
907.968	2156.5
908.205	2132.5
908.442	2106.5
908.679	2152.5
908.915	2110.5
909.152	2079.5
909.389	2013.5
909.626	2065.5
909.862	2046.5
910.099	2040.5
910.335	2094.5
910.572	2013.5
910.808	2042.5
911.045	2010.5
911.281	1963.5
911.518	2042.5
911.754	2019.5
911.99	1993.5
912.226	1989.5
912.463	1908.5
912.699	1954.5
912.935	1929.5
913.171	1921.5
913.407	1883.5
913.643	1969.5
913.879	1897.5
914.114	1880.5
914.35	1831.5
914.586	1829.5
914.822	1823.5
915.057	1917.5
915.293	1782.5
915.529	1797.5
915.764	1862.5
916	1820.5
916.235	1810.5
916.471	1811.5
916.706	1747.5
916.941	1795.5
917.177	1785.5
917.412	1828.5
917.647	1797.5
917.882	1788.5
918.117	1830.5
918.352	1803.5
918.588	1867.5
918.823	1771.5
919.057	1762.5
919.292	1655.5
919.527	1797.5
919.762	1724.5
919.997	1799.5
920.232	1694.5
920.466	1723.5
920.701	1615.5
920.935	1655.5
921.17	1626.5
921.405	1614.5
921.639	1680.5
921.873	1645.5
922.108	1667.5
922.342	1696.5
922.576	1617.5
922.811	1607.5
923.045	1650.5
923.279	1662.5
923.513	1542.5
923.747	1633.5
923.981	1596.5
924.215	1589.5
924.449	1577.5
924.683	1559.5
924.917	1559.5
925.151	1549.5
925.385	1620.5
925.618	1567.5
925.852	1572.5
926.086	1477.5
926.319	1578.5
926.553	1561.5
926.786	1547.5
927.02	1555.5
927.253	1580.5
927.486	1590.5
927.72	1497.5
927.953	1574.5
928.186	1503.5
928.42	1552.5
928.653	1516.5
928.886	1507.5
929.119	1549.5
929.352	1519.5
929.585	1538.5
929.818	1475.5
930.051	1499.5
930.284	1502.5
930.516	1398.5
930.749	1435.5
930.982	1486.5
931.215	1473.5
931.447	1395.5
931.68	1427.5
931.912	1425.5
932.145	1426.5
932.377	1460.5
932.61	1582.5
932.842	1378.5
933.074	1449.5
933.307	1397.5
933.539	1472.5
933.771	1488.5
934.003	1451.5
934.236	1518.5
934.468	1511.5
934.7	1424.5
934.932	1488.5
935.164	1403.5
935.395	1373.5
935.627	1450.5
935.859	1427.5
936.091	1377.5
936.323	1451.5
936.554	1454.5
936.786	1404.5
937.017	1354.5
937.249	1412.5
937.481	1334.5
937.712	1411.5
937.943	1402.5
938.175	1381.5
938.406	1376.5
938.637	1447.5
938.869	1357.5
939.1	1388.5
939.331	1361.5
939.562	1393.5
939.793	1403.5
940.024	1442.5
940.255	1417.5
940.486	1376.5
940.717	1372.5
940.948	1368.5
941.179	1312.5
941.409	1347.5
941.64	1380.5
941.871	1345.5
942.102	1362.5
942.332	1351.5
942.563	1381.5
942.793	1374.5
943.024	1307.5
943.254	1347.5
943.484	1388.5
943.715	1402.5
943.945	1374.5
944.175	1296.5
944.405	1290.5
944.636	1307.5
944.866	1339.5
945.096	1351.5
945.326	1284.5
945.556	1356.5
945.786	1376.5
946.016	1317.5
946.245	1272.5
946.475	1304.5
946.705	1312.5
946.935	1300.5
947.164	1323.5
947.394	1253.5
947.624	1285.5
947.853	1322.5
948.083	1306.5
948.312	1291.5
948.542	1228.5
948.771	1242.5
949	1241.5
949.23	1258.5
949.459	1247.5
949.688	1319.5
949.917	1274.5
950.146	1276.5
950.375	1332.5
950.604	1228.5
950.833	1324.5
951.062	1325.5
951.291	1272.5
951.52	1227.5
951.749	1266.5
951.978	1209.5
952.206	1261.5
952.435	1218.5
952.664	1289.5
952.892	1302.5
953.121	1266.5
953.349	1292.5
953.578	1262.5
953.806	1246.5
954.035	1213.5
954.263	1248.5
954.491	1181.5
954.719	1274.5
954.948	1203.5
955.176	1222.5
955.404	1130.5
955.632	1190.5
955.86	1230.5
956.088	1230.5
956.316	1219.5
956.544	1260.5
956.772	1178.5
956.999	1175.5
957.227	1271.5
957.455	1167.5
957.683	1214.5
957.91	1163.5
958.138	1157.5
958.365	1174.5
958.593	1159.5
958.82	1104.5
959.048	1214.5
959.275	1177.5
959.502	1140.5
959.73	1159.5
959.957	1220.5
960.184	1213.5
960.411	1181.5
960.638	1282.5
960.865	1183.5
961.092	1196.5
961.319	1105.5
961.546	1194.5
961.773	1187.5
962	1131.5
962.227	1198.5
962.454	1189.5
962.68	1155.5
962.907	1173.5
963.134	1131.5
963.36	1152.5
963.587	1200.5
963.813	1127.5
964.04	1173.5
964.266	1103.5
964.493	1213.5
964.719	1173.5
964.945	1191.5
965.171	1067.5
965.398	1144.5
965.624	1154.5
965.85	1096.5
966.076	1085.5
966.302	1151.5
966.528	1091.5
966.754	1134.5
966.98	1126.5
967.206	1129.5
967.431	1055.5
967.657	1174.5
967.883	1138.5
968.109	1113.5
968.334	1067.5
968.56	1047.5
968.785	1076.5
969.011	1049.5
969.236	1129.5
969.462	1058.5
969.687	1093.5
969.912	1117.5
970.138	1153.5
970.363	1081.5
970.588	1074.5
970.813	1045.5
971.038	1047.5
971.263	1090.5
971.488	1102.5
971.713	1126.5
971.938	1112.5
972.163	1035.5
972.388	1053.5
972.613	1049.5
972.838	1060.5
973.062	1047.5
973.287	1035.5
973.512	999.5
973.736	1053.5
973.961	1032.5
974.185	1033.5
974.41	1071.5
974.634	931.5
974.858	982.5
975.083	1034.5
975.307	1058.5
975.531	1032.5
975.755	946.5
975.98	976.5
976.204	939.5
976.428	949.5
976.652	936.5
976.876	936.5
977.1	949.5
977.324	943.5
977.547	977.5
977.771	981.5
977.995	977.5
978.219	925.5
978.442	1034.5
978.666	962.5
978.89	975.5
979.113	968.5
979.337	966.5
979.56	918.5
979.783	1014.5
980.007	920.5
980.23	945.5
980.453	926.5
980.677	961.5
980.9	974.5
981.123	878.5
981.346	982.5
981.569	959.5
981.792	988.5
982.015	941.5
982.238	925.5
982.461	926.5
982.684	900.5
982.907	903.5
983.129	891.5
983.352	958.5
983.575	941.5
983.797	943.5
984.02	896.5
984.242	896.5
984.465	923.5
984.687	946.5
984.91	966.5
985.132	930.5
985.354	973.5
985.577	937.5
985.799	938.5
986.021	882.5
986.243	893.5
986.465	919.5
986.687	962.5
986.909	996.5
987.131	914.5
987.353	901.5
987.575	937.5
987.797	909.5
988.019	850.5
988.241	910.5
988.462	887.5
988.684	922.5
988.906	963.5
989.127	977.5
989.349	863.5
989.57	900.5
989.792	951.5
990.013	957.5
990.234	967.5
990.456	1010.5
990.677	963.5
990.898	921.5
991.119	925.5
991.341	934.5
991.562	882.5
991.783	942.5
992.004	869.5
992.225	861.5
992.446	921.5
992.667	842.5
992.887	929.5
993.108	816.5
993.329	970.5
993.55	930.5
993.77	857.5
993.991	890.5
994.212	922.5
994.432	887.5
994.653	911.5
994.873	912.5
995.093	830.5
995.314	854.5
995.534	907.5
995.754	944.5
995.975	940.5
996.195	859.5
996.415	911.5
996.635	904.5
996.855	909.5
997.075	878.5
997.295	888.5
997.515	854.5
997.735	917.5
997.955	892.5
998.174	885.5
998.394	864.5
998.614	901.5
998.834	875.5
999.053	936.5
999.273	911.5
999.492	963.5
999.712	886.5
999.931	868.5
1000.151	918.5
1000.37	903.5
1000.589	954.5
1000.809	881.5
1001.028	1009.5
1001.247	947.5
1001.466	861.5
1001.685	985.5
1001.904	928.5
1002.123	919.5
1002.342	950.5
1002.561	905.5
1002.78	918.5
1002.999	988.5
1003.218	943.5
1003.436	906.5
1003.655	975.5
1003.874	911.5
1004.092	931.5
1004.311	966.5
1004.53	924.5
1004.748	1020.5
1004.966	925.5
1005.185	991.5
1005.403	990.5
1005.622	967.5
1005.84	1038.5
1006.058	932.5
1006.276	963.5
1006.494	1458.5
1006.712	948.5
1006.931	1026.5
1007.149	932.5
1007.367	936.5
1007.584	966.5
1007.802	997.5
1008.02	929.5
1008.238	1040.5
1008.456	1044.5
1008.673	896.5
1008.891	993.5
1009.109	948.5
1009.326	1010.5
1009.544	1105.5
1009.761	974.5
1009.979	1047.5
1010.196	1031.5
1010.413	1137.5
1010.631	1158.5
1010.848	1172.5
1011.065	1165.5
1011.282	1096.5
1011.5	1064.5
1011.717	1183.5
1011.934	1132.5
1012.151	1148.5
1012.368	1136.5
1012.585	1077.5
1012.801	1121.5
1013.018	1111.5
1013.235	1087.5
1013.452	1075.5
1013.669	1109.5
1013.885	1078.5
1014.102	1117.5
1014.318	1088.5
1014.535	1046.5
1014.751	1095.5
1014.968	1086.5
1015.184	1100.5
1015.401	1058.5
1015.617	1078.5
1015.833	1014.5
1016.049	1017.5
1016.266	1029.5
1016.482	1036.5
1016.698	982.5
1016.914	1028.5
1017.13	976.5
1017.346	997.5
1017.562	1022.5
1017.778	984.5
1017.993	951.5
1018.209	1001.5
1018.425	1000.5
1018.641	950.5
1018.856	913.5
1019.072	972.5
1019.288	991.5
1019.503	968.5
1019.719	893.5
1019.934	906.5
1020.149	985.5
1020.365	927.5
1020.58	870.5
1020.795	950.5
1021.011	901.5
1021.226	873.5
1021.441	893.5
1021.656	817.5
1021.871	781.5
1022.086	789.5
1022.301	774.5
1022.516	776.5
1022.731	853.5
1022.946	755.5
1023.16	751.5
1023.375	738.5
1023.59	728.5
1023.804	696.5
1024.019	776.5
1024.234	683.5
1024.448	705.5
1024.663	651.5
1024.877	655.5
1025.092	683.5
1025.306	716.5
1025.52	607.5
1025.734	696.5
1025.949	625.5
1026.163	613.5
1026.377	556.5
1026.591	628.5
1026.805	553.5
1027.019	562.5
1027.233	530.5
1027.447	474.5
1027.661	585.5
1027.875	528.5
1028.088	537.5
1028.302	478.5
1028.516	469.5
1028.73	489.5
1028.943	495.5
1029.157	444.5
1029.37	432.5
1029.584	-3.5
1029.797	-1.5
1030.011	-2.5
1030.224	-0.5
