Data from QEP037381__158__10-29-42-733.txt Node

Date: Wed Dec 21 10:29:42 EST 2022
User: dcclab
Spectrometer: QEP03738
Trigger mode: 4
Integration Time (sec): 1.000000E1
Scans to average: 1
Electric dark correction enabled: true
Nonlinearity correction enabled: false
Boxcar width: 0
XAxis mode: Wavelengths
Number of Pixels in Spectrum: 1044
>>>>>Begin Spectral Data<<<<<
784.041	13.38
784.3	0.38
784.558	0.38
784.817	-5.62
785.075	79449.38
785.334	13499.38
785.592	6158.38
785.851	4202.38
786.109	3218.38
786.368	2490.38
786.626	2018.38
786.884	1689.38
787.143	1430.38
787.401	1155.38
787.659	1092.38
787.917	938.38
788.175	874.38
788.433	778.38
788.691	706.38
788.949	650.38
789.207	629.38
789.465	549.38
789.723	538.38
789.98	479.38
790.238	552.38
790.496	496.38
790.753	472.38
791.011	522.38
791.268	464.38
791.526	446.38
791.783	476.38
792.041	447.38
792.298	374.38
792.556	437.38
792.813	429.38
793.07	402.38
793.327	383.38
793.584	468.38
793.841	382.38
794.099	415.38
794.356	467.38
794.613	356.38
794.869	408.38
795.126	358.38
795.383	353.38
795.64	380.38
795.897	316.38
796.153	391.38
796.41	366.38
796.667	342.38
796.923	359.38
797.18	369.38
797.436	391.38
797.693	362.38
797.949	397.38
798.206	410.38
798.462	335.38
798.718	390.38
798.974	362.38
799.231	405.38
799.487	375.38
799.743	373.38
799.999	400.38
800.255	384.38
800.511	363.38
800.767	397.38
801.023	361.38
801.279	394.38
801.534	404.38
801.79	414.38
802.046	379.38
802.302	448.38
802.557	447.38
802.813	495.38
803.068	475.38
803.324	572.38
803.579	677.38
803.835	792.38
804.09	1032.38
804.345	1208.38
804.601	1452.38
804.856	1770.38
805.111	2002.38
805.366	2173.38
805.621	2277.38
805.876	2335.38
806.131	2391.38
806.386	2436.38
806.641	2446.38
806.896	2483.38
807.151	2581.38
807.406	2545.38
807.661	2604.38
807.915	2646.38
808.17	2708.38
808.425	2731.38
808.679	2694.38
808.934	2799.38
809.188	2750.38
809.443	2802.38
809.697	2843.38
809.951	2863.38
810.206	2874.38
810.46	2929.38
810.714	2936.38
810.968	3000.38
811.223	2929.38
811.477	2997.38
811.731	3042.38
811.985	2988.38
812.239	2963.38
812.493	3005.38
812.747	3046.38
813	3022.38
813.254	3040.38
813.508	3098.38
813.762	3083.38
814.015	3099.38
814.269	3155.38
814.522	3132.38
814.776	3215.38
815.03	3270.38
815.283	3300.38
815.536	3317.38
815.79	3368.38
816.043	3415.38
816.296	3474.38
816.55	3441.38
816.803	3530.38
817.056	3645.38
817.309	3584.38
817.562	3630.38
817.815	3699.38
818.068	3640.38
818.321	3710.38
818.574	3720.38
818.827	3849.38
819.079	3858.38
819.332	3990.38
819.585	3987.38
819.838	4079.38
820.09	3977.38
820.343	4134.38
820.595	4030.38
820.848	4166.38
821.1	4137.38
821.353	4128.38
821.605	4091.38
821.857	4169.38
822.11	4109.38
822.362	4081.38
822.614	4097.38
822.866	4119.38
823.118	4088.38
823.37	4202.38
823.622	4196.38
823.874	4207.38
824.126	4251.38
824.378	4179.38
824.63	4318.38
824.882	4270.38
825.134	4257.38
825.385	4186.38
825.637	4208.38
825.888	4177.38
826.14	4129.38
826.392	4112.38
826.643	4103.38
826.895	4117.38
827.146	4074.38
827.397	4081.38
827.649	4101.38
827.9	4061.38
828.151	4038.38
828.402	4045.38
828.653	4121.38
828.905	4129.38
829.156	4135.38
829.407	4015.38
829.658	4094.38
829.909	4169.38
830.159	4113.38
830.41	4146.38
830.661	4103.38
830.912	4059.38
831.162	4010.38
831.413	4076.38
831.664	4076.38
831.914	4091.38
832.165	4056.38
832.415	4081.38
832.666	4088.38
832.916	4123.38
833.167	4035.38
833.417	4090.38
833.667	4055.38
833.917	4098.38
834.168	4105.38
834.418	4070.38
834.668	4079.38
834.918	4004.38
835.168	4053.38
835.418	4027.38
835.668	4033.38
835.918	4042.38
836.167	4049.38
836.417	3958.38
836.667	3995.38
836.917	4043.38
837.166	3937.38
837.416	3996.38
837.666	3961.38
837.915	3926.38
838.165	3920.38
838.414	3878.38
838.663	3852.38
838.913	3881.38
839.162	3854.38
839.411	3960.38
839.661	3879.38
839.91	3866.38
840.159	3876.38
840.408	3938.38
840.657	3914.38
840.906	3944.38
841.155	3920.38
841.404	3929.38
841.653	3888.38
841.902	3867.38
842.15	3902.38
842.399	3897.38
842.648	3913.38
842.897	3892.38
843.145	3801.38
843.394	3785.38
843.642	3825.38
843.891	3862.38
844.139	3787.38
844.388	3735.38
844.636	3707.38
844.884	3733.38
845.133	3707.38
845.381	3756.38
845.629	3837.38
845.877	3714.38
846.125	3713.38
846.373	3726.38
846.621	3719.38
846.869	3784.38
847.117	3739.38
847.365	3703.38
847.613	3688.38
847.861	3700.38
848.108	3722.38
848.356	3668.38
848.604	3612.38
848.851	3675.38
849.099	3659.38
849.346	3696.38
849.594	3695.38
849.841	3791.38
850.089	3729.38
850.336	3730.38
850.583	3761.38
850.831	3759.38
851.078	3777.38
851.325	3821.38
851.572	3962.38
851.819	3892.38
852.066	3691.38
852.313	3586.38
852.56	3519.38
852.807	3476.38
853.054	3488.38
853.301	3548.38
853.548	3597.38
853.794	3714.38
854.041	3643.38
854.288	3581.38
854.534	3726.38
854.781	3640.38
855.028	3561.38
855.274	3690.38
855.52	3577.38
855.767	3503.38
856.013	3557.38
856.26	3869.38
856.506	3524.38
856.752	3563.38
856.998	3517.38
857.244	3493.38
857.49	3559.38
857.736	3554.38
857.982	3562.38
858.228	3580.38
858.474	3482.38
858.72	3491.38
858.966	3470.38
859.212	3466.38
859.458	3427.38
859.703	3381.38
859.949	3336.38
860.195	3334.38
860.44	3412.38
860.686	3269.38
860.931	3360.38
861.177	3243.38
861.422	3321.38
861.667	3246.38
861.913	3255.38
862.158	3279.38
862.403	3307.38
862.648	3366.38
862.893	3334.38
863.138	3283.38
863.384	3270.38
863.629	3321.38
863.873	3258.38
864.118	3242.38
864.363	3223.38
864.608	3276.38
864.853	3281.38
865.098	3268.38
865.342	3259.38
865.587	3203.38
865.832	3235.38
866.076	3196.38
866.321	3195.38
866.565	3190.38
866.81	3144.38
867.054	3165.38
867.298	3191.38
867.543	3126.38
867.787	3204.38
868.031	3135.38
868.275	3169.38
868.519	3187.38
868.764	3152.38
869.008	3125.38
869.252	3168.38
869.496	3110.38
869.739	3121.38
869.983	3178.38
870.227	3162.38
870.471	3106.38
870.715	3177.38
870.958	3151.38
871.202	3160.38
871.446	3170.38
871.689	3151.38
871.933	3151.38
872.176	3165.38
872.42	3117.38
872.663	3124.38
872.906	3188.38
873.15	3137.38
873.393	3083.38
873.636	3149.38
873.879	3114.38
874.122	3137.38
874.366	3036.38
874.609	3019.38
874.852	2982.38
875.095	2977.38
875.337	2948.38
875.58	2870.38
875.823	3001.38
876.066	3007.38
876.309	3007.38
876.551	2932.38
876.794	2878.38
877.037	2945.38
877.279	2863.38
877.522	2858.38
877.764	2942.38
878.007	2895.38
878.249	2903.38
878.491	2841.38
878.734	2896.38
878.976	2863.38
879.218	2797.38
879.46	2856.38
879.702	2835.38
879.945	2830.38
880.187	2760.38
880.429	2770.38
880.671	2713.38
880.912	2765.38
881.154	2728.38
881.396	2660.38
881.638	2739.38
881.88	2724.38
882.121	2676.38
882.363	2696.38
882.605	2722.38
882.846	2699.38
883.088	2762.38
883.329	2700.38
883.571	2656.38
883.812	2699.38
884.053	2788.38
884.295	2876.38
884.536	2980.38
884.777	2940.38
885.018	2925.38
885.259	2940.38
885.5	2851.38
885.742	3108.38
885.982	2855.38
886.223	2804.38
886.464	2772.38
886.705	2720.38
886.946	2694.38
887.187	2630.38
887.428	2682.38
887.668	2575.38
887.909	2529.38
888.15	2513.38
888.39	2552.38
888.631	2551.38
888.871	2527.38
889.111	2509.38
889.352	2484.38
889.592	2463.38
889.833	2431.38
890.073	2417.38
890.313	2457.38
890.553	2375.38
890.793	2405.38
891.033	2354.38
891.273	2378.38
891.513	2360.38
891.753	2401.38
891.993	2356.38
892.233	2367.38
892.473	2413.38
892.713	2389.38
892.952	2328.38
893.192	2393.38
893.432	2372.38
893.671	2438.38
893.911	2373.38
894.15	2370.38
894.39	2294.38
894.629	2313.38
894.869	2303.38
895.108	2294.38
895.347	2293.38
895.587	2286.38
895.826	2257.38
896.065	2262.38
896.304	2278.38
896.543	2320.38
896.782	2239.38
897.021	2286.38
897.26	2278.38
897.499	2354.38
897.738	2363.38
897.977	2272.38
898.216	2215.38
898.454	2217.38
898.693	2182.38
898.932	2229.38
899.17	2184.38
899.409	2160.38
899.647	2174.38
899.886	2169.38
900.124	2217.38
900.363	2171.38
900.601	2216.38
900.839	2194.38
901.078	2200.38
901.316	2202.38
901.554	2259.38
901.792	2291.38
902.03	2223.38
902.268	2208.38
902.506	2279.38
902.744	2194.38
902.982	2234.38
903.22	2166.38
903.458	2144.38
903.695	2172.38
903.933	2122.38
904.171	2045.38
904.409	2043.38
904.646	2069.38
904.884	1981.38
905.121	2037.38
905.359	1953.38
905.596	1969.38
905.833	1922.38
906.071	1892.38
906.308	1975.38
906.545	1944.38
906.783	1879.38
907.02	1901.38
907.257	1844.38
907.494	1876.38
907.731	1889.38
907.968	1918.38
908.205	1869.38
908.442	1806.38
908.679	1842.38
908.915	1850.38
909.152	1863.38
909.389	1772.38
909.626	1799.38
909.862	1770.38
910.099	1794.38
910.335	1828.38
910.572	1730.38
910.808	1763.38
911.045	1779.38
911.281	1741.38
911.518	1813.38
911.754	1733.38
911.99	1754.38
912.226	1762.38
912.463	1668.38
912.699	1704.38
912.935	1690.38
913.171	1685.38
913.407	1658.38
913.643	1713.38
913.879	1677.38
914.114	1680.38
914.35	1640.38
914.586	1627.38
914.822	1598.38
915.057	1694.38
915.293	1560.38
915.529	1560.38
915.764	1646.38
916	1615.38
916.235	1603.38
916.471	1615.38
916.706	1548.38
916.941	1598.38
917.177	1579.38
917.412	1619.38
917.647	1589.38
917.882	1548.38
918.117	1592.38
918.352	1590.38
918.588	1612.38
918.823	1552.38
919.057	1560.38
919.292	1446.38
919.527	1559.38
919.762	1517.38
919.997	1571.38
920.232	1506.38
920.466	1536.38
920.701	1405.38
920.935	1485.38
921.17	1473.38
921.405	1426.38
921.639	1470.38
921.873	1440.38
922.108	1465.38
922.342	1480.38
922.576	1419.38
922.811	1406.38
923.045	1460.38
923.279	1479.38
923.513	1353.38
923.747	1430.38
923.981	1427.38
924.215	1372.38
924.449	1416.38
924.683	1346.38
924.917	1385.38
925.151	1380.38
925.385	1431.38
925.618	1394.38
925.852	1382.38
926.086	1319.38
926.319	1380.38
926.553	1385.38
926.786	1394.38
927.02	1352.38
927.253	1394.38
927.486	1400.38
927.72	1348.38
927.953	1410.38
928.186	1355.38
928.42	1395.38
928.653	1325.38
928.886	1327.38
929.119	1374.38
929.352	1350.38
929.585	1363.38
929.818	1311.38
930.051	1356.38
930.284	1351.38
930.516	1283.38
930.749	1270.38
930.982	1332.38
931.215	1336.38
931.447	1260.38
931.68	1285.38
931.912	1249.38
932.145	1262.38
932.377	1276.38
932.61	1407.38
932.842	1225.38
933.074	1309.38
933.307	1245.38
933.539	1347.38
933.771	1322.38
934.003	1279.38
934.236	1372.38
934.468	1345.38
934.7	1272.38
934.932	1326.38
935.164	1260.38
935.395	1233.38
935.627	1270.38
935.859	1253.38
936.091	1226.38
936.323	1251.38
936.554	1296.38
936.786	1243.38
937.017	1186.38
937.249	1272.38
937.481	1188.38
937.712	1267.38
937.943	1252.38
938.175	1215.38
938.406	1230.38
938.637	1285.38
938.869	1200.38
939.1	1235.38
939.331	1222.38
939.562	1234.38
939.793	1254.38
940.024	1268.38
940.255	1277.38
940.486	1215.38
940.717	1231.38
940.948	1223.38
941.179	1184.38
941.409	1206.38
941.64	1222.38
941.871	1209.38
942.102	1197.38
942.332	1199.38
942.563	1240.38
942.793	1218.38
943.024	1176.38
943.254	1221.38
943.484	1245.38
943.715	1263.38
943.945	1213.38
944.175	1156.38
944.405	1118.38
944.636	1172.38
944.866	1168.38
945.096	1240.38
945.326	1136.38
945.556	1215.38
945.786	1236.38
946.016	1183.38
946.245	1133.38
946.475	1171.38
946.705	1157.38
946.935	1174.38
947.164	1158.38
947.394	1143.38
947.624	1166.38
947.853	1209.38
948.083	1165.38
948.312	1147.38
948.542	1101.38
948.771	1076.38
949	1109.38
949.23	1095.38
949.459	1124.38
949.688	1197.38
949.917	1134.38
950.146	1132.38
950.375	1192.38
950.604	1089.38
950.833	1198.38
951.062	1168.38
951.291	1137.38
951.52	1125.38
951.749	1137.38
951.978	1100.38
952.206	1113.38
952.435	1090.38
952.664	1122.38
952.892	1139.38
953.121	1112.38
953.349	1159.38
953.578	1141.38
953.806	1137.38
954.035	1060.38
954.263	1112.38
954.491	1080.38
954.719	1119.38
954.948	1081.38
955.176	1076.38
955.404	1030.38
955.632	1079.38
955.86	1094.38
956.088	1103.38
956.316	1103.38
956.544	1122.38
956.772	1073.38
956.999	1064.38
957.227	1144.38
957.455	1068.38
957.683	1077.38
957.91	1033.38
958.138	1035.38
958.365	1045.38
958.593	1060.38
958.82	1028.38
959.048	1074.38
959.275	1055.38
959.502	1041.38
959.73	1036.38
959.957	1064.38
960.184	1123.38
960.411	1087.38
960.638	1121.38
960.865	1063.38
961.092	1093.38
961.319	996.38
961.546	1078.38
961.773	1082.38
962	1039.38
962.227	1062.38
962.454	1059.38
962.68	1022.38
962.907	1058.38
963.134	1034.38
963.36	1056.38
963.587	1074.38
963.813	1014.38
964.04	1055.38
964.266	988.38
964.493	1098.38
964.719	1068.38
964.945	1055.38
965.171	975.38
965.398	1065.38
965.624	1062.38
965.85	1003.38
966.076	998.38
966.302	1039.38
966.528	992.38
966.754	1053.38
966.98	1052.38
967.206	1027.38
967.431	958.38
967.657	1037.38
967.883	1029.38
968.109	1039.38
968.334	958.38
968.56	976.38
968.785	1008.38
969.011	953.38
969.236	1033.38
969.462	952.38
969.687	990.38
969.912	1020.38
970.138	1024.38
970.363	978.38
970.588	985.38
970.813	994.38
971.038	963.38
971.263	1000.38
971.488	1009.38
971.713	1046.38
971.938	1022.38
972.163	928.38
972.388	954.38
972.613	950.38
972.838	972.38
973.062	951.38
973.287	974.38
973.512	889.38
973.736	958.38
973.961	953.38
974.185	913.38
974.41	961.38
974.634	877.38
974.858	909.38
975.083	946.38
975.307	980.38
975.531	906.38
975.755	861.38
975.98	900.38
976.204	870.38
976.428	864.38
976.652	876.38
976.876	859.38
977.1	881.38
977.324	874.38
977.547	909.38
977.771	913.38
977.995	887.38
978.219	853.38
978.442	970.38
978.666	886.38
978.89	888.38
979.113	888.38
979.337	871.38
979.56	859.38
979.783	943.38
980.007	867.38
980.23	869.38
980.453	838.38
980.677	890.38
980.9	878.38
981.123	799.38
981.346	897.38
981.569	877.38
981.792	909.38
982.015	869.38
982.238	824.38
982.461	874.38
982.684	831.38
982.907	823.38
983.129	843.38
983.352	888.38
983.575	858.38
983.797	872.38
984.02	827.38
984.242	853.38
984.465	855.38
984.687	866.38
984.91	906.38
985.132	848.38
985.354	894.38
985.577	855.38
985.799	853.38
986.021	792.38
986.243	836.38
986.465	842.38
986.687	886.38
986.909	932.38
987.131	859.38
987.353	848.38
987.575	860.38
987.797	847.38
988.019	769.38
988.241	822.38
988.462	823.38
988.684	868.38
988.906	890.38
989.127	921.38
989.349	811.38
989.57	858.38
989.792	891.38
990.013	889.38
990.234	891.38
990.456	913.38
990.677	913.38
990.898	852.38
991.119	845.38
991.341	885.38
991.562	832.38
991.783	855.38
992.004	836.38
992.225	796.38
992.446	866.38
992.667	784.38
992.887	872.38
993.108	767.38
993.329	910.38
993.55	859.38
993.77	797.38
993.991	798.38
994.212	817.38
994.432	834.38
994.653	862.38
994.873	848.38
995.093	749.38
995.314	791.38
995.534	861.38
995.754	871.38
995.975	909.38
996.195	801.38
996.415	873.38
996.635	834.38
996.855	836.38
997.075	833.38
997.295	825.38
997.515	808.38
997.735	866.38
997.955	839.38
998.174	824.38
998.394	794.38
998.614	859.38
998.834	815.38
999.053	880.38
999.273	838.38
999.492	918.38
999.712	842.38
999.931	809.38
1000.151	871.38
1000.37	857.38
1000.589	911.38
1000.809	814.38
1001.028	953.38
1001.247	902.38
1001.466	796.38
1001.685	928.38
1001.904	890.38
1002.123	869.38
1002.342	885.38
1002.561	834.38
1002.78	879.38
1002.999	966.38
1003.218	901.38
1003.436	885.38
1003.655	937.38
1003.874	871.38
1004.092	887.38
1004.311	946.38
1004.53	890.38
1004.748	988.38
1004.966	896.38
1005.185	964.38
1005.403	918.38
1005.622	902.38
1005.84	984.38
1006.058	915.38
1006.276	914.38
1006.494	1417.38
1006.712	923.38
1006.931	994.38
1007.149	879.38
1007.367	903.38
1007.584	945.38
1007.802	954.38
1008.02	922.38
1008.238	993.38
1008.456	978.38
1008.673	848.38
1008.891	948.38
1009.109	893.38
1009.326	935.38
1009.544	1023.38
1009.761	905.38
1009.979	973.38
1010.196	987.38
1010.413	1033.38
1010.631	1085.38
1010.848	1064.38
1011.065	1083.38
1011.282	1008.38
1011.5	967.38
1011.717	1079.38
1011.934	1049.38
1012.151	1073.38
1012.368	1037.38
1012.585	977.38
1012.801	1081.38
1013.018	1022.38
1013.235	994.38
1013.452	988.38
1013.669	1024.38
1013.885	985.38
1014.102	1013.38
1014.318	986.38
1014.535	947.38
1014.751	978.38
1014.968	994.38
1015.184	1045.38
1015.401	930.38
1015.617	982.38
1015.833	916.38
1016.049	966.38
1016.266	951.38
1016.482	942.38
1016.698	895.38
1016.914	967.38
1017.13	903.38
1017.346	898.38
1017.562	981.38
1017.778	875.38
1017.993	874.38
1018.209	941.38
1018.425	914.38
1018.641	882.38
1018.856	868.38
1019.072	888.38
1019.288	936.38
1019.503	886.38
1019.719	808.38
1019.934	813.38
1020.149	907.38
1020.365	849.38
1020.58	833.38
1020.795	868.38
1021.011	824.38
1021.226	818.38
1021.441	835.38
1021.656	781.38
1021.871	736.38
1022.086	735.38
1022.301	720.38
1022.516	725.38
1022.731	822.38
1022.946	707.38
1023.16	699.38
1023.375	668.38
1023.59	660.38
1023.804	629.38
1024.019	749.38
1024.234	629.38
1024.448	665.38
1024.663	627.38
1024.877	643.38
1025.092	658.38
1025.306	670.38
1025.52	596.38
1025.734	670.38
1025.949	612.38
1026.163	580.38
1026.377	550.38
1026.591	596.38
1026.805	541.38
1027.019	516.38
1027.233	508.38
1027.447	463.38
1027.661	565.38
1027.875	500.38
1028.088	527.38
1028.302	462.38
1028.516	456.38
1028.73	460.38
1028.943	454.38
1029.157	426.38
1029.37	398.38
1029.584	-2.62
1029.797	-0.62
1030.011	-0.62
1030.224	-4.62
