Data from QEP037381__112__10-22-02-733.txt Node

Date: Wed Dec 21 10:22:02 EST 2022
User: dcclab
Spectrometer: QEP03738
Trigger mode: 4
Integration Time (sec): 1.000000E1
Scans to average: 1
Electric dark correction enabled: true
Nonlinearity correction enabled: false
Boxcar width: 0
XAxis mode: Wavelengths
Number of Pixels in Spectrum: 1044
>>>>>Begin Spectral Data<<<<<
784.041	12.75
784.3	0.75
784.558	-3.25
784.817	-2.25
785.075	81850.75
785.334	13848.75
785.592	6347.75
785.851	4387.75
786.109	3292.75
786.368	2615.75
786.626	2101.75
786.884	1736.75
787.143	1453.75
787.401	1188.75
787.659	1085.75
787.917	925.75
788.175	886.75
788.433	767.75
788.691	704.75
788.949	646.75
789.207	638.75
789.465	561.75
789.723	540.75
789.98	487.75
790.238	547.75
790.496	500.75
790.753	479.75
791.011	534.75
791.268	455.75
791.526	444.75
791.783	469.75
792.041	452.75
792.298	372.75
792.556	434.75
792.813	417.75
793.07	399.75
793.327	388.75
793.584	468.75
793.841	393.75
794.099	410.75
794.356	462.75
794.613	374.75
794.869	410.75
795.126	363.75
795.383	359.75
795.64	373.75
795.897	326.75
796.153	401.75
796.41	369.75
796.667	335.75
796.923	352.75
797.18	360.75
797.436	376.75
797.693	355.75
797.949	403.75
798.206	404.75
798.462	331.75
798.718	384.75
798.974	359.75
799.231	405.75
799.487	394.75
799.743	396.75
799.999	403.75
800.255	388.75
800.511	371.75
800.767	396.75
801.023	380.75
801.279	390.75
801.534	402.75
801.79	414.75
802.046	393.75
802.302	460.75
802.557	450.75
802.813	508.75
803.068	507.75
803.324	631.75
803.579	715.75
803.835	869.75
804.09	1168.75
804.345	1356.75
804.601	1694.75
804.856	2046.75
805.111	2295.75
805.366	2476.75
805.621	2590.75
805.876	2688.75
806.131	2730.75
806.386	2762.75
806.641	2782.75
806.896	2822.75
807.151	2926.75
807.406	2899.75
807.661	2981.75
807.915	3016.75
808.17	3060.75
808.425	3100.75
808.679	3057.75
808.934	3183.75
809.188	3124.75
809.443	3180.75
809.697	3251.75
809.951	3231.75
810.206	3293.75
810.46	3354.75
810.714	3358.75
810.968	3367.75
811.223	3340.75
811.477	3366.75
811.731	3435.75
811.985	3445.75
812.239	3397.75
812.493	3454.75
812.747	3491.75
813	3445.75
813.254	3513.75
813.508	3577.75
813.762	3490.75
814.015	3561.75
814.269	3604.75
814.522	3663.75
814.776	3680.75
815.03	3771.75
815.283	3767.75
815.536	3818.75
815.79	3826.75
816.043	3880.75
816.296	3927.75
816.55	3982.75
816.803	3963.75
817.056	4156.75
817.309	4105.75
817.562	4132.75
817.815	4187.75
818.068	4187.75
818.321	4225.75
818.574	4260.75
818.827	4387.75
819.079	4357.75
819.332	4559.75
819.585	4505.75
819.838	4640.75
820.09	4606.75
820.343	4667.75
820.595	4601.75
820.848	4709.75
821.1	4717.75
821.353	4744.75
821.605	4752.75
821.857	4788.75
822.11	4675.75
822.362	4674.75
822.614	4700.75
822.866	4753.75
823.118	4682.75
823.37	4820.75
823.622	4782.75
823.874	4797.75
824.126	4846.75
824.378	4800.75
824.63	4842.75
824.882	4889.75
825.134	4820.75
825.385	4854.75
825.637	4836.75
825.888	4731.75
826.14	4731.75
826.392	4716.75
826.643	4692.75
826.895	4695.75
827.146	4626.75
827.397	4633.75
827.649	4690.75
827.9	4604.75
828.151	4592.75
828.402	4655.75
828.653	4668.75
828.905	4736.75
829.156	4748.75
829.407	4651.75
829.658	4701.75
829.909	4723.75
830.159	4703.75
830.41	4706.75
830.661	4690.75
830.912	4616.75
831.162	4618.75
831.413	4620.75
831.664	4630.75
831.914	4618.75
832.165	4660.75
832.415	4625.75
832.666	4637.75
832.916	4685.75
833.167	4613.75
833.417	4665.75
833.667	4621.75
833.917	4659.75
834.168	4677.75
834.418	4630.75
834.668	4612.75
834.918	4568.75
835.168	4594.75
835.418	4573.75
835.668	4572.75
835.918	4563.75
836.167	4529.75
836.417	4533.75
836.667	4579.75
836.917	4544.75
837.166	4551.75
837.416	4556.75
837.666	4492.75
837.915	4490.75
838.165	4478.75
838.414	4414.75
838.663	4404.75
838.913	4433.75
839.162	4418.75
839.411	4467.75
839.661	4411.75
839.91	4405.75
840.159	4421.75
840.408	4427.75
840.657	4418.75
840.906	4476.75
841.155	4491.75
841.404	4411.75
841.653	4436.75
841.902	4337.75
842.15	4471.75
842.399	4457.75
842.648	4417.75
842.897	4451.75
843.145	4351.75
843.394	4363.75
843.642	4327.75
843.891	4342.75
844.139	4311.75
844.388	4231.75
844.636	4245.75
844.884	4243.75
845.133	4282.75
845.381	4215.75
845.629	4275.75
845.877	4279.75
846.125	4249.75
846.373	4247.75
846.621	4206.75
846.869	4288.75
847.117	4211.75
847.365	4185.75
847.613	4207.75
847.861	4225.75
848.108	4247.75
848.356	4188.75
848.604	4155.75
848.851	4191.75
849.099	4191.75
849.346	4200.75
849.594	4201.75
849.841	4218.75
850.089	4233.75
850.336	4196.75
850.583	4248.75
850.831	4304.75
851.078	4278.75
851.325	4345.75
851.572	4430.75
851.819	4370.75
852.066	4156.75
852.313	4069.75
852.56	4038.75
852.807	3952.75
853.054	4017.75
853.301	4041.75
853.548	4094.75
853.794	4151.75
854.041	4093.75
854.288	4058.75
854.534	4193.75
854.781	4125.75
855.028	4072.75
855.274	4101.75
855.52	4043.75
855.767	4042.75
856.013	4047.75
856.26	4332.75
856.506	4023.75
856.752	3999.75
856.998	3974.75
857.244	3970.75
857.49	4037.75
857.736	4054.75
857.982	4031.75
858.228	4094.75
858.474	4009.75
858.72	4004.75
858.966	3937.75
859.212	3921.75
859.458	3889.75
859.703	3854.75
859.949	3798.75
860.195	3770.75
860.44	3839.75
860.686	3730.75
860.931	3779.75
861.177	3712.75
861.422	3699.75
861.667	3684.75
861.913	3682.75
862.158	3734.75
862.403	3784.75
862.648	3768.75
862.893	3783.75
863.138	3760.75
863.384	3707.75
863.629	3740.75
863.873	3759.75
864.118	3739.75
864.363	3629.75
864.608	3694.75
864.853	3720.75
865.098	3645.75
865.342	3677.75
865.587	3615.75
865.832	3708.75
866.076	3638.75
866.321	3618.75
866.565	3608.75
866.81	3535.75
867.054	3594.75
867.298	3592.75
867.543	3577.75
867.787	3577.75
868.031	3561.75
868.275	3608.75
868.519	3581.75
868.764	3583.75
869.008	3557.75
869.252	3594.75
869.496	3527.75
869.739	3554.75
869.983	3567.75
870.227	3585.75
870.471	3510.75
870.715	3569.75
870.958	3616.75
871.202	3526.75
871.446	3592.75
871.689	3555.75
871.933	3562.75
872.176	3585.75
872.42	3541.75
872.663	3562.75
872.906	3564.75
873.15	3521.75
873.393	3482.75
873.636	3556.75
873.879	3513.75
874.122	3511.75
874.366	3408.75
874.609	3450.75
874.852	3370.75
875.095	3419.75
875.337	3340.75
875.58	3304.75
875.823	3369.75
876.066	3377.75
876.309	3421.75
876.551	3290.75
876.794	3274.75
877.037	3351.75
877.279	3243.75
877.522	3288.75
877.764	3278.75
878.007	3242.75
878.249	3266.75
878.491	3249.75
878.734	3294.75
878.976	3271.75
879.218	3176.75
879.46	3249.75
879.702	3199.75
879.945	3187.75
880.187	3094.75
880.429	3138.75
880.671	3139.75
880.912	3083.75
881.154	3102.75
881.396	3034.75
881.638	3095.75
881.88	3090.75
882.121	3037.75
882.363	3041.75
882.605	3116.75
882.846	3086.75
883.088	3087.75
883.329	3046.75
883.571	3026.75
883.812	3099.75
884.053	3128.75
884.295	3205.75
884.536	3306.75
884.777	3281.75
885.018	3274.75
885.259	3271.75
885.5	3181.75
885.742	3466.75
885.982	3203.75
886.223	3161.75
886.464	3134.75
886.705	3045.75
886.946	3084.75
887.187	2956.75
887.428	3005.75
887.668	2900.75
887.909	2896.75
888.15	2817.75
888.39	2884.75
888.631	2918.75
888.871	2880.75
889.111	2831.75
889.352	2825.75
889.592	2792.75
889.833	2771.75
890.073	2711.75
890.313	2767.75
890.553	2683.75
890.793	2703.75
891.033	2674.75
891.273	2669.75
891.513	2658.75
891.753	2754.75
891.993	2650.75
892.233	2660.75
892.473	2750.75
892.713	2682.75
892.952	2663.75
893.192	2664.75
893.432	2685.75
893.671	2731.75
893.911	2736.75
894.15	2675.75
894.39	2627.75
894.629	2610.75
894.869	2585.75
895.108	2567.75
895.347	2567.75
895.587	2581.75
895.826	2583.75
896.065	2556.75
896.304	2554.75
896.543	2589.75
896.782	2509.75
897.021	2568.75
897.26	2594.75
897.499	2617.75
897.738	2656.75
897.977	2554.75
898.216	2540.75
898.454	2512.75
898.693	2485.75
898.932	2489.75
899.17	2472.75
899.409	2459.75
899.647	2451.75
899.886	2421.75
900.124	2474.75
900.363	2426.75
900.601	2476.75
900.839	2486.75
901.078	2484.75
901.316	2499.75
901.554	2499.75
901.792	2534.75
902.03	2480.75
902.268	2505.75
902.506	2580.75
902.744	2500.75
902.982	2521.75
903.22	2428.75
903.458	2438.75
903.695	2416.75
903.933	2383.75
904.171	2314.75
904.409	2289.75
904.646	2296.75
904.884	2250.75
905.121	2314.75
905.359	2233.75
905.596	2185.75
905.833	2150.75
906.071	2153.75
906.308	2203.75
906.545	2140.75
906.783	2102.75
907.02	2144.75
907.257	2101.75
907.494	2114.75
907.731	2150.75
907.968	2127.75
908.205	2063.75
908.442	2096.75
908.679	2115.75
908.915	2074.75
909.152	2075.75
909.389	2007.75
909.626	2012.75
909.862	2005.75
910.099	2019.75
910.335	2067.75
910.572	1940.75
910.808	2010.75
911.045	1983.75
911.281	1978.75
911.518	1997.75
911.754	1962.75
911.99	1986.75
912.226	1967.75
912.463	1935.75
912.699	1893.75
912.935	1907.75
913.171	1914.75
913.407	1867.75
913.643	1928.75
913.879	1886.75
914.114	1830.75
914.35	1850.75
914.586	1815.75
914.822	1785.75
915.057	1882.75
915.293	1767.75
915.529	1762.75
915.764	1846.75
916	1787.75
916.235	1787.75
916.471	1811.75
916.706	1762.75
916.941	1790.75
917.177	1761.75
917.412	1793.75
917.647	1773.75
917.882	1747.75
918.117	1801.75
918.352	1780.75
918.588	1795.75
918.823	1758.75
919.057	1720.75
919.292	1652.75
919.527	1751.75
919.762	1687.75
919.997	1726.75
920.232	1663.75
920.466	1707.75
920.701	1594.75
920.935	1670.75
921.17	1615.75
921.405	1599.75
921.639	1637.75
921.873	1621.75
922.108	1632.75
922.342	1646.75
922.576	1586.75
922.811	1578.75
923.045	1665.75
923.279	1663.75
923.513	1518.75
923.747	1649.75
923.981	1599.75
924.215	1556.75
924.449	1561.75
924.683	1530.75
924.917	1535.75
925.151	1537.75
925.385	1579.75
925.618	1539.75
925.852	1564.75
926.086	1468.75
926.319	1544.75
926.553	1506.75
926.786	1527.75
927.02	1528.75
927.253	1566.75
927.486	1587.75
927.72	1513.75
927.953	1573.75
928.186	1486.75
928.42	1550.75
928.653	1486.75
928.886	1469.75
929.119	1512.75
929.352	1479.75
929.585	1508.75
929.818	1455.75
930.051	1486.75
930.284	1483.75
930.516	1418.75
930.749	1447.75
930.982	1482.75
931.215	1459.75
931.447	1385.75
931.68	1433.75
931.912	1406.75
932.145	1397.75
932.377	1442.75
932.61	1571.75
932.842	1363.75
933.074	1425.75
933.307	1391.75
933.539	1484.75
933.771	1461.75
934.003	1406.75
934.236	1466.75
934.468	1521.75
934.7	1396.75
934.932	1435.75
935.164	1405.75
935.395	1388.75
935.627	1406.75
935.859	1406.75
936.091	1362.75
936.323	1434.75
936.554	1435.75
936.786	1414.75
937.017	1357.75
937.249	1373.75
937.481	1335.75
937.712	1412.75
937.943	1385.75
938.175	1364.75
938.406	1340.75
938.637	1447.75
938.869	1330.75
939.1	1420.75
939.331	1366.75
939.562	1369.75
939.793	1385.75
940.024	1401.75
940.255	1428.75
940.486	1351.75
940.717	1360.75
940.948	1348.75
941.179	1307.75
941.409	1326.75
941.64	1343.75
941.871	1335.75
942.102	1307.75
942.332	1335.75
942.563	1352.75
942.793	1335.75
943.024	1287.75
943.254	1312.75
943.484	1367.75
943.715	1356.75
943.945	1356.75
944.175	1294.75
944.405	1255.75
944.636	1304.75
944.866	1325.75
945.096	1329.75
945.326	1246.75
945.556	1330.75
945.786	1341.75
946.016	1310.75
946.245	1269.75
946.475	1278.75
946.705	1288.75
946.935	1282.75
947.164	1286.75
947.394	1242.75
947.624	1291.75
947.853	1300.75
948.083	1283.75
948.312	1255.75
948.542	1192.75
948.771	1203.75
949	1227.75
949.23	1240.75
949.459	1270.75
949.688	1317.75
949.917	1230.75
950.146	1234.75
950.375	1315.75
950.604	1205.75
950.833	1314.75
951.062	1300.75
951.291	1243.75
951.52	1243.75
951.749	1246.75
951.978	1197.75
952.206	1236.75
952.435	1210.75
952.664	1262.75
952.892	1286.75
953.121	1256.75
953.349	1259.75
953.578	1260.75
953.806	1231.75
954.035	1189.75
954.263	1234.75
954.491	1173.75
954.719	1243.75
954.948	1177.75
955.176	1198.75
955.404	1133.75
955.632	1231.75
955.86	1212.75
956.088	1196.75
956.316	1234.75
956.544	1244.75
956.772	1183.75
956.999	1145.75
957.227	1261.75
957.455	1177.75
957.683	1199.75
957.91	1157.75
958.138	1142.75
958.365	1137.75
958.593	1155.75
958.82	1098.75
959.048	1176.75
959.275	1135.75
959.502	1163.75
959.73	1114.75
959.957	1186.75
960.184	1228.75
960.411	1162.75
960.638	1224.75
960.865	1165.75
961.092	1189.75
961.319	1079.75
961.546	1166.75
961.773	1171.75
962	1165.75
962.227	1186.75
962.454	1158.75
962.68	1130.75
962.907	1156.75
963.134	1099.75
963.36	1111.75
963.587	1201.75
963.813	1090.75
964.04	1148.75
964.266	1085.75
964.493	1155.75
964.719	1161.75
964.945	1160.75
965.171	1073.75
965.398	1127.75
965.624	1165.75
965.85	1081.75
966.076	1091.75
966.302	1128.75
966.528	1077.75
966.754	1118.75
966.98	1108.75
967.206	1118.75
967.431	1057.75
967.657	1145.75
967.883	1134.75
968.109	1095.75
968.334	1069.75
968.56	1073.75
968.785	1070.75
969.011	1027.75
969.236	1084.75
969.462	1039.75
969.687	1059.75
969.912	1097.75
970.138	1131.75
970.363	1033.75
970.588	1088.75
970.813	1067.75
971.038	1028.75
971.263	1069.75
971.488	1064.75
971.713	1101.75
971.938	1086.75
972.163	987.75
972.388	1035.75
972.613	1018.75
972.838	1045.75
973.062	1038.75
973.287	1051.75
973.512	957.75
973.736	1059.75
973.961	1022.75
974.185	995.75
974.41	1050.75
974.634	941.75
974.858	978.75
975.083	1028.75
975.307	1026.75
975.531	977.75
975.755	941.75
975.98	995.75
976.204	913.75
976.428	923.75
976.652	937.75
976.876	923.75
977.1	965.75
977.324	935.75
977.547	989.75
977.771	979.75
977.995	952.75
978.219	907.75
978.442	1024.75
978.666	971.75
978.89	967.75
979.113	945.75
979.337	953.75
979.56	931.75
979.783	1004.75
980.007	919.75
980.23	955.75
980.453	907.75
980.677	966.75
980.9	944.75
981.123	862.75
981.346	951.75
981.569	949.75
981.792	963.75
982.015	916.75
982.238	920.75
982.461	937.75
982.684	922.75
982.907	914.75
983.129	895.75
983.352	974.75
983.575	919.75
983.797	923.75
984.02	889.75
984.242	895.75
984.465	904.75
984.687	922.75
984.91	965.75
985.132	932.75
985.354	964.75
985.577	926.75
985.799	940.75
986.021	847.75
986.243	877.75
986.465	892.75
986.687	950.75
986.909	970.75
987.131	909.75
987.353	872.75
987.575	942.75
987.797	897.75
988.019	864.75
988.241	913.75
988.462	880.75
988.684	932.75
988.906	934.75
989.127	958.75
989.349	843.75
989.57	893.75
989.792	922.75
990.013	964.75
990.234	946.75
990.456	982.75
990.677	951.75
990.898	893.75
991.119	920.75
991.341	925.75
991.562	903.75
991.783	930.75
992.004	867.75
992.225	840.75
992.446	925.75
992.667	834.75
992.887	928.75
993.108	825.75
993.329	944.75
993.55	900.75
993.77	861.75
993.991	843.75
994.212	903.75
994.432	892.75
994.653	915.75
994.873	902.75
995.093	792.75
995.314	833.75
995.534	915.75
995.754	931.75
995.975	952.75
996.195	855.75
996.415	893.75
996.635	887.75
996.855	892.75
997.075	854.75
997.295	865.75
997.515	860.75
997.735	902.75
997.955	885.75
998.174	868.75
998.394	837.75
998.614	884.75
998.834	863.75
999.053	915.75
999.273	908.75
999.492	930.75
999.712	924.75
999.931	861.75
1000.151	913.75
1000.37	880.75
1000.589	948.75
1000.809	901.75
1001.028	995.75
1001.247	935.75
1001.466	840.75
1001.685	976.75
1001.904	928.75
1002.123	907.75
1002.342	937.75
1002.561	892.75
1002.78	917.75
1002.999	996.75
1003.218	926.75
1003.436	928.75
1003.655	978.75
1003.874	896.75
1004.092	945.75
1004.311	953.75
1004.53	933.75
1004.748	1001.75
1004.966	951.75
1005.185	993.75
1005.403	959.75
1005.622	957.75
1005.84	1032.75
1006.058	915.75
1006.276	966.75
1006.494	1437.75
1006.712	959.75
1006.931	1025.75
1007.149	907.75
1007.367	935.75
1007.584	955.75
1007.802	978.75
1008.02	936.75
1008.238	1027.75
1008.456	1025.75
1008.673	893.75
1008.891	1007.75
1009.109	932.75
1009.326	964.75
1009.544	1053.75
1009.761	937.75
1009.979	1051.75
1010.196	1004.75
1010.413	1070.75
1010.631	1103.75
1010.848	1107.75
1011.065	1105.75
1011.282	1059.75
1011.5	1023.75
1011.717	1142.75
1011.934	1080.75
1012.151	1115.75
1012.368	1094.75
1012.585	1014.75
1012.801	1099.75
1013.018	1036.75
1013.235	1016.75
1013.452	1058.75
1013.669	1051.75
1013.885	1019.75
1014.102	1079.75
1014.318	1024.75
1014.535	973.75
1014.751	1018.75
1014.968	1032.75
1015.184	1061.75
1015.401	983.75
1015.617	1032.75
1015.833	977.75
1016.049	985.75
1016.266	986.75
1016.482	973.75
1016.698	925.75
1016.914	984.75
1017.13	937.75
1017.346	940.75
1017.562	1016.75
1017.778	958.75
1017.993	898.75
1018.209	986.75
1018.425	957.75
1018.641	907.75
1018.856	887.75
1019.072	924.75
1019.288	975.75
1019.503	909.75
1019.719	847.75
1019.934	864.75
1020.149	917.75
1020.365	873.75
1020.58	830.75
1020.795	900.75
1021.011	859.75
1021.226	832.75
1021.441	873.75
1021.656	799.75
1021.871	748.75
1022.086	777.75
1022.301	770.75
1022.516	758.75
1022.731	849.75
1022.946	735.75
1023.16	726.75
1023.375	710.75
1023.59	704.75
1023.804	679.75
1024.019	783.75
1024.234	679.75
1024.448	700.75
1024.663	636.75
1024.877	652.75
1025.092	690.75
1025.306	683.75
1025.52	594.75
1025.734	704.75
1025.949	628.75
1026.163	603.75
1026.377	550.75
1026.591	636.75
1026.805	562.75
1027.019	548.75
1027.233	509.75
1027.447	466.75
1027.661	564.75
1027.875	524.75
1028.088	530.75
1028.302	464.75
1028.516	480.75
1028.73	485.75
1028.943	480.75
1029.157	433.75
1029.37	409.75
1029.584	-0.25
1029.797	-0.25
1030.011	-3.25
1030.224	-4.25
