Data from QEP037381__107__10-21-12-732.txt Node

Date: Wed Dec 21 10:21:12 EST 2022
User: dcclab
Spectrometer: QEP03738
Trigger mode: 4
Integration Time (sec): 1.000000E1
Scans to average: 1
Electric dark correction enabled: true
Nonlinearity correction enabled: false
Boxcar width: 0
XAxis mode: Wavelengths
Number of Pixels in Spectrum: 1044
>>>>>Begin Spectral Data<<<<<
784.041	8.12
784.3	-1.88
784.558	0.12
784.817	-0.88
785.075	78093.12
785.334	13472.12
785.592	6315.12
785.851	4343.12
786.109	3307.12
786.368	2586.12
786.626	2089.12
786.884	1722.12
787.143	1447.12
787.401	1214.12
787.659	1125.12
787.917	949.12
788.175	890.12
788.433	777.12
788.691	720.12
788.949	666.12
789.207	638.12
789.465	576.12
789.723	532.12
789.98	496.12
790.238	546.12
790.496	499.12
790.753	469.12
791.011	534.12
791.268	483.12
791.526	459.12
791.783	482.12
792.041	465.12
792.298	374.12
792.556	446.12
792.813	427.12
793.07	399.12
793.327	388.12
793.584	474.12
793.841	395.12
794.099	420.12
794.356	478.12
794.613	376.12
794.869	421.12
795.126	366.12
795.383	358.12
795.64	380.12
795.897	340.12
796.153	382.12
796.41	362.12
796.667	357.12
796.923	353.12
797.18	370.12
797.436	382.12
797.693	358.12
797.949	401.12
798.206	435.12
798.462	336.12
798.718	402.12
798.974	362.12
799.231	402.12
799.487	393.12
799.743	385.12
799.999	408.12
800.255	397.12
800.511	379.12
800.767	419.12
801.023	377.12
801.279	410.12
801.534	422.12
801.79	422.12
802.046	406.12
802.302	482.12
802.557	496.12
802.813	546.12
803.068	544.12
803.324	700.12
803.579	819.12
803.835	1028.12
804.09	1362.12
804.345	1692.12
804.601	2051.12
804.856	2473.12
805.111	2846.12
805.366	3099.12
805.621	3259.12
805.876	3399.12
806.131	3509.12
806.386	3516.12
806.641	3547.12
806.896	3667.12
807.151	3718.12
807.406	3740.12
807.661	3828.12
807.915	3857.12
808.17	3938.12
808.425	3952.12
808.679	3974.12
808.934	4081.12
809.188	4058.12
809.443	4128.12
809.697	4206.12
809.951	4154.12
810.206	4206.12
810.46	4271.12
810.714	4294.12
810.968	4370.12
811.223	4266.12
811.477	4432.12
811.731	4382.12
811.985	4373.12
812.239	4375.12
812.493	4409.12
812.747	4490.12
813	4423.12
813.254	4549.12
813.508	4551.12
813.762	4490.12
814.015	4547.12
814.269	4597.12
814.522	4657.12
814.776	4723.12
815.03	4738.12
815.283	4830.12
815.536	4912.12
815.79	4973.12
816.043	5027.12
816.296	5057.12
816.55	5090.12
816.803	5147.12
817.056	5362.12
817.309	5232.12
817.562	5326.12
817.815	5387.12
818.068	5400.12
818.321	5448.12
818.574	5507.12
818.827	5643.12
819.079	5671.12
819.332	5843.12
819.585	5850.12
819.838	5978.12
820.09	5928.12
820.343	6035.12
820.595	5979.12
820.848	6083.12
821.1	6092.12
821.353	6074.12
821.605	6103.12
821.857	6168.12
822.11	5985.12
822.362	6015.12
822.614	6006.12
822.866	6065.12
823.118	6059.12
823.37	6172.12
823.622	6131.12
823.874	6188.12
824.126	6205.12
824.378	6160.12
824.63	6204.12
824.882	6268.12
825.134	6216.12
825.385	6244.12
825.637	6152.12
825.888	6183.12
826.14	6146.12
826.392	6117.12
826.643	6053.12
826.895	6118.12
827.146	6050.12
827.397	5991.12
827.649	6039.12
827.9	6025.12
828.151	5948.12
828.402	6006.12
828.653	6029.12
828.905	6032.12
829.156	6162.12
829.407	6056.12
829.658	6056.12
829.909	6091.12
830.159	6044.12
830.41	6075.12
830.661	6111.12
830.912	6049.12
831.162	6010.12
831.413	5990.12
831.664	6039.12
831.914	5989.12
832.165	6002.12
832.415	5998.12
832.666	6031.12
832.916	5988.12
833.167	5966.12
833.417	6048.12
833.667	6019.12
833.917	5943.12
834.168	6004.12
834.418	5931.12
834.668	5950.12
834.918	5912.12
835.168	5936.12
835.418	5842.12
835.668	5873.12
835.918	5950.12
836.167	5850.12
836.417	5846.12
836.667	5821.12
836.917	5868.12
837.166	5790.12
837.416	5816.12
837.666	5893.12
837.915	5833.12
838.165	5759.12
838.414	5765.12
838.663	5679.12
838.913	5710.12
839.162	5743.12
839.411	5801.12
839.661	5651.12
839.91	5701.12
840.159	5705.12
840.408	5726.12
840.657	5737.12
840.906	5718.12
841.155	5776.12
841.404	5768.12
841.653	5767.12
841.902	5760.12
842.15	5793.12
842.399	5725.12
842.648	5734.12
842.897	5713.12
843.145	5656.12
843.394	5654.12
843.642	5614.12
843.891	5642.12
844.139	5588.12
844.388	5504.12
844.636	5532.12
844.884	5509.12
845.133	5461.12
845.381	5453.12
845.629	5567.12
845.877	5535.12
846.125	5480.12
846.373	5494.12
846.621	5469.12
846.869	5448.12
847.117	5480.12
847.365	5425.12
847.613	5416.12
847.861	5404.12
848.108	5438.12
848.356	5406.12
848.604	5403.12
848.851	5461.12
849.099	5396.12
849.346	5368.12
849.594	5449.12
849.841	5492.12
850.089	5427.12
850.336	5512.12
850.583	5517.12
850.831	5536.12
851.078	5497.12
851.325	5538.12
851.572	5599.12
851.819	5514.12
852.066	5318.12
852.313	5223.12
852.56	5213.12
852.807	5165.12
853.054	5133.12
853.301	5189.12
853.548	5196.12
853.794	5355.12
854.041	5293.12
854.288	5239.12
854.534	5411.12
854.781	5302.12
855.028	5297.12
855.274	5336.12
855.52	5231.12
855.767	5220.12
856.013	5248.12
856.26	5514.12
856.506	5184.12
856.752	5152.12
856.998	5135.12
857.244	5183.12
857.49	5266.12
857.736	5260.12
857.982	5273.12
858.228	5231.12
858.474	5130.12
858.72	5162.12
858.966	5069.12
859.212	5059.12
859.458	4989.12
859.703	4954.12
859.949	4903.12
860.195	4927.12
860.44	4863.12
860.686	4810.12
860.931	4905.12
861.177	4822.12
861.422	4827.12
861.667	4766.12
861.913	4770.12
862.158	4817.12
862.403	4859.12
862.648	4808.12
862.893	4868.12
863.138	4875.12
863.384	4783.12
863.629	4829.12
863.873	4797.12
864.118	4788.12
864.363	4724.12
864.608	4773.12
864.853	4807.12
865.098	4742.12
865.342	4734.12
865.587	4687.12
865.832	4743.12
866.076	4744.12
866.321	4633.12
866.565	4661.12
866.81	4589.12
867.054	4660.12
867.298	4631.12
867.543	4604.12
867.787	4612.12
868.031	4639.12
868.275	4634.12
868.519	4598.12
868.764	4627.12
869.008	4589.12
869.252	4630.12
869.496	4626.12
869.739	4577.12
869.983	4589.12
870.227	4608.12
870.471	4565.12
870.715	4596.12
870.958	4667.12
871.202	4551.12
871.446	4609.12
871.689	4591.12
871.933	4640.12
872.176	4587.12
872.42	4622.12
872.663	4594.12
872.906	4605.12
873.15	4598.12
873.393	4552.12
873.636	4655.12
873.879	4577.12
874.122	4557.12
874.366	4448.12
874.609	4428.12
874.852	4356.12
875.095	4391.12
875.337	4354.12
875.58	4306.12
875.823	4308.12
876.066	4335.12
876.309	4376.12
876.551	4231.12
876.794	4244.12
877.037	4256.12
877.279	4205.12
877.522	4195.12
877.764	4225.12
878.007	4189.12
878.249	4218.12
878.491	4203.12
878.734	4235.12
878.976	4227.12
879.218	4116.12
879.46	4152.12
879.702	4129.12
879.945	4083.12
880.187	4033.12
880.429	4063.12
880.671	3963.12
880.912	4017.12
881.154	3996.12
881.396	3870.12
881.638	3992.12
881.88	3985.12
882.121	3932.12
882.363	3950.12
882.605	4000.12
882.846	3926.12
883.088	3980.12
883.329	3929.12
883.571	3925.12
883.812	3969.12
884.053	4062.12
884.295	4212.12
884.536	4321.12
884.777	4285.12
885.018	4303.12
885.259	4208.12
885.5	4144.12
885.742	4440.12
885.982	4143.12
886.223	4079.12
886.464	4046.12
886.705	3934.12
886.946	3967.12
887.187	3846.12
887.428	3871.12
887.668	3788.12
887.909	3736.12
888.15	3696.12
888.39	3708.12
888.631	3760.12
888.871	3647.12
889.111	3602.12
889.352	3610.12
889.592	3547.12
889.833	3517.12
890.073	3527.12
890.313	3553.12
890.553	3418.12
890.793	3465.12
891.033	3456.12
891.273	3421.12
891.513	3444.12
891.753	3452.12
891.993	3365.12
892.233	3448.12
892.473	3476.12
892.713	3429.12
892.952	3400.12
893.192	3507.12
893.432	3415.12
893.671	3484.12
893.911	3435.12
894.15	3399.12
894.39	3309.12
894.629	3360.12
894.869	3356.12
895.108	3306.12
895.347	3264.12
895.587	3339.12
895.826	3281.12
896.065	3245.12
896.304	3286.12
896.543	3344.12
896.782	3224.12
897.021	3271.12
897.26	3279.12
897.499	3331.12
897.738	3356.12
897.977	3271.12
898.216	3235.12
898.454	3230.12
898.693	3186.12
898.932	3238.12
899.17	3150.12
899.409	3183.12
899.647	3132.12
899.886	3152.12
900.124	3137.12
900.363	3113.12
900.601	3173.12
900.839	3189.12
901.078	3190.12
901.316	3221.12
901.554	3227.12
901.792	3250.12
902.03	3208.12
902.268	3205.12
902.506	3282.12
902.744	3182.12
902.982	3201.12
903.22	3104.12
903.458	3086.12
903.695	3058.12
903.933	3082.12
904.171	2975.12
904.409	2940.12
904.646	2931.12
904.884	2834.12
905.121	2881.12
905.359	2824.12
905.596	2814.12
905.833	2757.12
906.071	2746.12
906.308	2766.12
906.545	2722.12
906.783	2698.12
907.02	2762.12
907.257	2690.12
907.494	2714.12
907.731	2762.12
907.968	2716.12
908.205	2670.12
908.442	2665.12
908.679	2642.12
908.915	2626.12
909.152	2654.12
909.389	2543.12
909.626	2581.12
909.862	2561.12
910.099	2579.12
910.335	2547.12
910.572	2504.12
910.808	2546.12
911.045	2497.12
911.281	2480.12
911.518	2575.12
911.754	2510.12
911.99	2504.12
912.226	2480.12
912.463	2442.12
912.699	2468.12
912.935	2432.12
913.171	2389.12
913.407	2345.12
913.643	2407.12
913.879	2350.12
914.114	2378.12
914.35	2356.12
914.586	2305.12
914.822	2283.12
915.057	2373.12
915.293	2197.12
915.529	2227.12
915.764	2322.12
916	2260.12
916.235	2247.12
916.471	2301.12
916.706	2172.12
916.941	2247.12
917.177	2241.12
917.412	2257.12
917.647	2273.12
917.882	2211.12
918.117	2245.12
918.352	2203.12
918.588	2270.12
918.823	2193.12
919.057	2193.12
919.292	2099.12
919.527	2243.12
919.762	2140.12
919.997	2216.12
920.232	2084.12
920.466	2119.12
920.701	2000.12
920.935	2093.12
921.17	2041.12
921.405	1986.12
921.639	2088.12
921.873	2022.12
922.108	2071.12
922.342	2078.12
922.576	1988.12
922.811	1984.12
923.045	2037.12
923.279	2048.12
923.513	1919.12
923.747	2042.12
923.981	1987.12
924.215	1957.12
924.449	1959.12
924.683	1910.12
924.917	1929.12
925.151	1926.12
925.385	1983.12
925.618	1920.12
925.852	1926.12
926.086	1869.12
926.319	1932.12
926.553	1890.12
926.786	1939.12
927.02	1898.12
927.253	1958.12
927.486	1945.12
927.72	1853.12
927.953	1945.12
928.186	1888.12
928.42	1945.12
928.653	1855.12
928.886	1880.12
929.119	1907.12
929.352	1864.12
929.585	1892.12
929.818	1828.12
930.051	1851.12
930.284	1864.12
930.516	1746.12
930.749	1774.12
930.982	1809.12
931.215	1805.12
931.447	1745.12
931.68	1771.12
931.912	1754.12
932.145	1784.12
932.377	1748.12
932.61	1893.12
932.842	1698.12
933.074	1790.12
933.307	1734.12
933.539	1813.12
933.771	1813.12
934.003	1807.12
934.236	1855.12
934.468	1894.12
934.7	1813.12
934.932	1840.12
935.164	1797.12
935.395	1788.12
935.627	1753.12
935.859	1781.12
936.091	1731.12
936.323	1762.12
936.554	1769.12
936.786	1709.12
937.017	1690.12
937.249	1731.12
937.481	1654.12
937.712	1719.12
937.943	1702.12
938.175	1677.12
938.406	1675.12
938.637	1782.12
938.869	1691.12
939.1	1733.12
939.331	1679.12
939.562	1701.12
939.793	1701.12
940.024	1766.12
940.255	1747.12
940.486	1675.12
940.717	1669.12
940.948	1672.12
941.179	1637.12
941.409	1679.12
941.64	1642.12
941.871	1632.12
942.102	1586.12
942.332	1607.12
942.563	1672.12
942.793	1635.12
943.024	1564.12
943.254	1628.12
943.484	1696.12
943.715	1705.12
943.945	1635.12
944.175	1582.12
944.405	1582.12
944.636	1585.12
944.866	1637.12
945.096	1648.12
945.326	1600.12
945.556	1653.12
945.786	1623.12
946.016	1592.12
946.245	1569.12
946.475	1574.12
946.705	1580.12
946.935	1585.12
947.164	1582.12
947.394	1542.12
947.624	1576.12
947.853	1629.12
948.083	1576.12
948.312	1565.12
948.542	1514.12
948.771	1487.12
949	1515.12
949.23	1516.12
949.459	1522.12
949.688	1608.12
949.917	1551.12
950.146	1536.12
950.375	1589.12
950.604	1503.12
950.833	1591.12
951.062	1604.12
951.291	1531.12
951.52	1516.12
951.749	1540.12
951.978	1483.12
952.206	1524.12
952.435	1522.12
952.664	1520.12
952.892	1535.12
953.121	1511.12
953.349	1566.12
953.578	1538.12
953.806	1483.12
954.035	1452.12
954.263	1498.12
954.491	1448.12
954.719	1511.12
954.948	1469.12
955.176	1480.12
955.404	1379.12
955.632	1472.12
955.86	1498.12
956.088	1445.12
956.316	1475.12
956.544	1510.12
956.772	1424.12
956.999	1437.12
957.227	1512.12
957.455	1388.12
957.683	1470.12
957.91	1409.12
958.138	1368.12
958.365	1373.12
958.593	1379.12
958.82	1347.12
959.048	1435.12
959.275	1409.12
959.502	1406.12
959.73	1367.12
959.957	1422.12
960.184	1446.12
960.411	1375.12
960.638	1454.12
960.865	1392.12
961.092	1438.12
961.319	1315.12
961.546	1443.12
961.773	1425.12
962	1386.12
962.227	1438.12
962.454	1387.12
962.68	1361.12
962.907	1394.12
963.134	1369.12
963.36	1372.12
963.587	1406.12
963.813	1310.12
964.04	1390.12
964.266	1310.12
964.493	1418.12
964.719	1397.12
964.945	1350.12
965.171	1293.12
965.398	1362.12
965.624	1363.12
965.85	1298.12
966.076	1315.12
966.302	1342.12
966.528	1327.12
966.754	1340.12
966.98	1354.12
967.206	1326.12
967.431	1250.12
967.657	1373.12
967.883	1324.12
968.109	1335.12
968.334	1287.12
968.56	1261.12
968.785	1315.12
969.011	1227.12
969.236	1301.12
969.462	1250.12
969.687	1272.12
969.912	1297.12
970.138	1328.12
970.363	1220.12
970.588	1300.12
970.813	1258.12
971.038	1225.12
971.263	1284.12
971.488	1264.12
971.713	1314.12
971.938	1318.12
972.163	1203.12
972.388	1236.12
972.613	1226.12
972.838	1243.12
973.062	1232.12
973.287	1236.12
973.512	1166.12
973.736	1206.12
973.961	1198.12
974.185	1192.12
974.41	1205.12
974.634	1161.12
974.858	1141.12
975.083	1201.12
975.307	1221.12
975.531	1164.12
975.755	1120.12
975.98	1155.12
976.204	1087.12
976.428	1128.12
976.652	1119.12
976.876	1106.12
977.1	1135.12
977.324	1091.12
977.547	1142.12
977.771	1160.12
977.995	1144.12
978.219	1074.12
978.442	1202.12
978.666	1121.12
978.89	1148.12
979.113	1118.12
979.337	1127.12
979.56	1087.12
979.783	1209.12
980.007	1067.12
980.23	1105.12
980.453	1099.12
980.677	1122.12
980.9	1106.12
981.123	1024.12
981.346	1147.12
981.569	1103.12
981.792	1139.12
982.015	1087.12
982.238	1055.12
982.461	1086.12
982.684	1077.12
982.907	1036.12
983.129	1042.12
983.352	1109.12
983.575	1079.12
983.797	1098.12
984.02	1027.12
984.242	1051.12
984.465	1052.12
984.687	1099.12
984.91	1117.12
985.132	1103.12
985.354	1099.12
985.577	1084.12
985.799	1078.12
986.021	983.12
986.243	1034.12
986.465	1059.12
986.687	1104.12
986.909	1134.12
987.131	1094.12
987.353	1022.12
987.575	1056.12
987.797	1023.12
988.019	979.12
988.241	1051.12
988.462	977.12
988.684	1067.12
988.906	1098.12
989.127	1113.12
989.349	983.12
989.57	1057.12
989.792	1079.12
990.013	1089.12
990.234	1085.12
990.456	1134.12
990.677	1091.12
990.898	1043.12
991.119	1053.12
991.341	1065.12
991.562	1024.12
991.783	1047.12
992.004	1001.12
992.225	971.12
992.446	1056.12
992.667	957.12
992.887	1031.12
993.108	943.12
993.329	1100.12
993.55	1027.12
993.77	993.12
993.991	966.12
994.212	992.12
994.432	991.12
994.653	1023.12
994.873	1031.12
995.093	920.12
995.314	972.12
995.534	1035.12
995.754	1034.12
995.975	1092.12
996.195	950.12
996.415	1016.12
996.635	998.12
996.855	1030.12
997.075	987.12
997.295	986.12
997.515	957.12
997.735	1026.12
997.955	1005.12
998.174	977.12
998.394	954.12
998.614	1012.12
998.834	962.12
999.053	1035.12
999.273	1016.12
999.492	1058.12
999.712	998.12
999.931	963.12
1000.151	1018.12
1000.37	1019.12
1000.589	1047.12
1000.809	990.12
1001.028	1097.12
1001.247	1027.12
1001.466	942.12
1001.685	1088.12
1001.904	1036.12
1002.123	1006.12
1002.342	1008.12
1002.561	991.12
1002.78	1035.12
1002.999	1080.12
1003.218	1039.12
1003.436	1030.12
1003.655	1057.12
1003.874	993.12
1004.092	1025.12
1004.311	1064.12
1004.53	1012.12
1004.748	1101.12
1004.966	1039.12
1005.185	1088.12
1005.403	1064.12
1005.622	1052.12
1005.84	1111.12
1006.058	1022.12
1006.276	1031.12
1006.494	1541.12
1006.712	1050.12
1006.931	1105.12
1007.149	1009.12
1007.367	1046.12
1007.584	1047.12
1007.802	1109.12
1008.02	1050.12
1008.238	1140.12
1008.456	1125.12
1008.673	973.12
1008.891	1095.12
1009.109	1073.12
1009.326	1104.12
1009.544	1190.12
1009.761	1082.12
1009.979	1154.12
1010.196	1160.12
1010.413	1227.12
1010.631	1264.12
1010.848	1288.12
1011.065	1283.12
1011.282	1229.12
1011.5	1170.12
1011.717	1272.12
1011.934	1229.12
1012.151	1262.12
1012.368	1242.12
1012.585	1205.12
1012.801	1253.12
1013.018	1240.12
1013.235	1188.12
1013.452	1225.12
1013.669	1233.12
1013.885	1190.12
1014.102	1227.12
1014.318	1200.12
1014.535	1162.12
1014.751	1187.12
1014.968	1221.12
1015.184	1222.12
1015.401	1138.12
1015.617	1200.12
1015.833	1125.12
1016.049	1163.12
1016.266	1141.12
1016.482	1120.12
1016.698	1068.12
1016.914	1160.12
1017.13	1088.12
1017.346	1078.12
1017.562	1144.12
1017.778	1084.12
1017.993	1059.12
1018.209	1108.12
1018.425	1096.12
1018.641	1060.12
1018.856	1040.12
1019.072	1049.12
1019.288	1120.12
1019.503	1048.12
1019.719	1000.12
1019.934	1000.12
1020.149	1090.12
1020.365	1013.12
1020.58	980.12
1020.795	1028.12
1021.011	963.12
1021.226	958.12
1021.441	992.12
1021.656	910.12
1021.871	882.12
1022.086	868.12
1022.301	880.12
1022.516	859.12
1022.731	973.12
1022.946	836.12
1023.16	823.12
1023.375	807.12
1023.59	792.12
1023.804	763.12
1024.019	877.12
1024.234	741.12
1024.448	777.12
1024.663	714.12
1024.877	724.12
1025.092	759.12
1025.306	758.12
1025.52	672.12
1025.734	759.12
1025.949	697.12
1026.163	684.12
1026.377	635.12
1026.591	676.12
1026.805	627.12
1027.019	608.12
1027.233	573.12
1027.447	533.12
1027.661	623.12
1027.875	566.12
1028.088	589.12
1028.302	526.12
1028.516	506.12
1028.73	539.12
1028.943	522.12
1029.157	498.12
1029.37	456.12
1029.584	-4.88
1029.797	-0.88
1030.011	1.12
1030.224	-0.88
