Data from QEP037381__161__10-30-12-735.txt Node

Date: Wed Dec 21 10:30:12 EST 2022
User: dcclab
Spectrometer: QEP03738
Trigger mode: 4
Integration Time (sec): 1.000000E1
Scans to average: 1
Electric dark correction enabled: true
Nonlinearity correction enabled: false
Boxcar width: 0
XAxis mode: Wavelengths
Number of Pixels in Spectrum: 1044
>>>>>Begin Spectral Data<<<<<
784.041	11.25
784.3	-1.75
784.558	-0.75
784.817	-2.75
785.075	77398.25
785.334	13409.25
785.592	6251.25
785.851	4290.25
786.109	3313.25
786.368	2544.25
786.626	2095.25
786.884	1772.25
787.143	1455.25
787.401	1219.25
787.659	1117.25
787.917	955.25
788.175	909.25
788.433	775.25
788.691	698.25
788.949	644.25
789.207	646.25
789.465	571.25
789.723	549.25
789.98	492.25
790.238	539.25
790.496	511.25
790.753	474.25
791.011	520.25
791.268	468.25
791.526	452.25
791.783	485.25
792.041	456.25
792.298	374.25
792.556	428.25
792.813	442.25
793.07	400.25
793.327	384.25
793.584	474.25
793.841	395.25
794.099	412.25
794.356	484.25
794.613	371.25
794.869	408.25
795.126	360.25
795.383	354.25
795.64	379.25
795.897	331.25
796.153	391.25
796.41	371.25
796.667	355.25
796.923	351.25
797.18	356.25
797.436	378.25
797.693	349.25
797.949	386.25
798.206	417.25
798.462	330.25
798.718	376.25
798.974	369.25
799.231	393.25
799.487	380.25
799.743	397.25
799.999	412.25
800.255	391.25
800.511	371.25
800.767	396.25
801.023	382.25
801.279	397.25
801.534	403.25
801.79	427.25
802.046	412.25
802.302	472.25
802.557	449.25
802.813	515.25
803.068	525.25
803.324	641.25
803.579	753.25
803.835	923.25
804.09	1204.25
804.345	1468.25
804.601	1821.25
804.856	2199.25
805.111	2462.25
805.366	2716.25
805.621	2837.25
805.876	2976.25
806.131	3038.25
806.386	3069.25
806.641	3067.25
806.896	3134.25
807.151	3248.25
807.406	3210.25
807.661	3302.25
807.915	3360.25
808.17	3401.25
808.425	3450.25
808.679	3404.25
808.934	3549.25
809.188	3549.25
809.443	3630.25
809.697	3608.25
809.951	3629.25
810.206	3649.25
810.46	3699.25
810.714	3736.25
810.968	3784.25
811.223	3762.25
811.477	3831.25
811.731	3821.25
811.985	3810.25
812.239	3778.25
812.493	3868.25
812.747	3876.25
813	3851.25
813.254	3931.25
813.508	3983.25
813.762	3922.25
814.015	3945.25
814.269	4012.25
814.522	4018.25
814.776	4120.25
815.03	4086.25
815.283	4192.25
815.536	4221.25
815.79	4277.25
816.043	4348.25
816.296	4435.25
816.55	4461.25
816.803	4495.25
817.056	4690.25
817.309	4600.25
817.562	4655.25
817.815	4725.25
818.068	4696.25
818.321	4732.25
818.574	4775.25
818.827	4899.25
819.079	4928.25
819.332	5105.25
819.585	5098.25
819.838	5254.25
820.09	5183.25
820.343	5332.25
820.595	5200.25
820.848	5314.25
821.1	5348.25
821.353	5297.25
821.605	5349.25
821.857	5348.25
822.11	5317.25
822.362	5309.25
822.614	5260.25
822.866	5292.25
823.118	5300.25
823.37	5396.25
823.622	5394.25
823.874	5385.25
824.126	5455.25
824.378	5418.25
824.63	5524.25
824.882	5489.25
825.134	5450.25
825.385	5487.25
825.637	5452.25
825.888	5367.25
826.14	5341.25
826.392	5348.25
826.643	5291.25
826.895	5330.25
827.146	5267.25
827.397	5268.25
827.649	5315.25
827.9	5264.25
828.151	5279.25
828.402	5262.25
828.653	5294.25
828.905	5328.25
829.156	5369.25
829.407	5294.25
829.658	5317.25
829.909	5361.25
830.159	5346.25
830.41	5363.25
830.661	5272.25
830.912	5269.25
831.162	5214.25
831.413	5218.25
831.664	5274.25
831.914	5218.25
832.165	5215.25
832.415	5270.25
832.666	5304.25
832.916	5286.25
833.167	5226.25
833.417	5353.25
833.667	5266.25
833.917	5195.25
834.168	5294.25
834.418	5257.25
834.668	5263.25
834.918	5209.25
835.168	5246.25
835.418	5183.25
835.668	5124.25
835.918	5225.25
836.167	5167.25
836.417	5147.25
836.667	5152.25
836.917	5165.25
837.166	5097.25
837.416	5107.25
837.666	5140.25
837.915	5118.25
838.165	5133.25
838.414	5020.25
838.663	4962.25
838.913	5011.25
839.162	5001.25
839.411	5022.25
839.661	4994.25
839.91	5055.25
840.159	5049.25
840.408	5039.25
840.657	5055.25
840.906	5029.25
841.155	5067.25
841.404	5006.25
841.653	5048.25
841.902	5007.25
842.15	5051.25
842.399	5018.25
842.648	5037.25
842.897	5058.25
843.145	5033.25
843.394	4919.25
843.642	4931.25
843.891	4984.25
844.139	4899.25
844.388	4826.25
844.636	4804.25
844.884	4896.25
845.133	4834.25
845.381	4861.25
845.629	4892.25
845.877	4822.25
846.125	4795.25
846.373	4795.25
846.621	4811.25
846.869	4856.25
847.117	4802.25
847.365	4762.25
847.613	4754.25
847.861	4767.25
848.108	4830.25
848.356	4760.25
848.604	4694.25
848.851	4764.25
849.099	4765.25
849.346	4759.25
849.594	4824.25
849.841	4844.25
850.089	4820.25
850.336	4764.25
850.583	4835.25
850.831	4867.25
851.078	4845.25
851.325	4888.25
851.572	4931.25
851.819	4927.25
852.066	4649.25
852.313	4608.25
852.56	4518.25
852.807	4495.25
853.054	4476.25
853.301	4544.25
853.548	4617.25
853.794	4692.25
854.041	4658.25
854.288	4650.25
854.534	4760.25
854.781	4742.25
855.028	4643.25
855.274	4675.25
855.52	4624.25
855.767	4557.25
856.013	4598.25
856.26	4884.25
856.506	4510.25
856.752	4583.25
856.998	4547.25
857.244	4523.25
857.49	4549.25
857.736	4571.25
857.982	4600.25
858.228	4599.25
858.474	4505.25
858.72	4523.25
858.966	4532.25
859.212	4431.25
859.458	4389.25
859.703	4393.25
859.949	4296.25
860.195	4328.25
860.44	4295.25
860.686	4238.25
860.931	4325.25
861.177	4193.25
861.422	4283.25
861.667	4166.25
861.913	4220.25
862.158	4238.25
862.403	4283.25
862.648	4333.25
862.893	4311.25
863.138	4228.25
863.384	4246.25
863.629	4239.25
863.873	4249.25
864.118	4232.25
864.363	4168.25
864.608	4216.25
864.853	4284.25
865.098	4178.25
865.342	4209.25
865.587	4120.25
865.832	4194.25
866.076	4174.25
866.321	4109.25
866.565	4131.25
866.81	4022.25
867.054	4108.25
867.298	4081.25
867.543	4046.25
867.787	4120.25
868.031	4054.25
868.275	4095.25
868.519	4051.25
868.764	4034.25
869.008	4017.25
869.252	4105.25
869.496	4016.25
869.739	4066.25
869.983	4078.25
870.227	4070.25
870.471	4074.25
870.715	4116.25
870.958	4115.25
871.202	4088.25
871.446	4082.25
871.689	4076.25
871.933	4077.25
872.176	4103.25
872.42	4080.25
872.663	4056.25
872.906	4066.25
873.15	4058.25
873.393	3988.25
873.636	4070.25
873.879	4018.25
874.122	4030.25
874.366	3900.25
874.609	3957.25
874.852	3885.25
875.095	3825.25
875.337	3816.25
875.58	3706.25
875.823	3780.25
876.066	3806.25
876.309	3839.25
876.551	3750.25
876.794	3748.25
877.037	3788.25
877.279	3729.25
877.522	3729.25
877.764	3733.25
878.007	3726.25
878.249	3700.25
878.491	3735.25
878.734	3789.25
878.976	3690.25
879.218	3640.25
879.46	3700.25
879.702	3692.25
879.945	3635.25
880.187	3547.25
880.429	3580.25
880.671	3558.25
880.912	3541.25
881.154	3525.25
881.396	3417.25
881.638	3525.25
881.88	3525.25
882.121	3504.25
882.363	3449.25
882.605	3552.25
882.846	3508.25
883.088	3515.25
883.329	3471.25
883.571	3453.25
883.812	3557.25
884.053	3577.25
884.295	3663.25
884.536	3856.25
884.777	3741.25
885.018	3732.25
885.259	3758.25
885.5	3659.25
885.742	3924.25
885.982	3687.25
886.223	3558.25
886.464	3576.25
886.705	3465.25
886.946	3497.25
887.187	3401.25
887.428	3449.25
887.668	3338.25
887.909	3282.25
888.15	3247.25
888.39	3280.25
888.631	3295.25
888.871	3271.25
889.111	3209.25
889.352	3185.25
889.592	3154.25
889.833	3126.25
890.073	3118.25
890.313	3182.25
890.553	3026.25
890.793	3067.25
891.033	3052.25
891.273	2989.25
891.513	3025.25
891.753	3074.25
891.993	3035.25
892.233	3017.25
892.473	3140.25
892.713	3069.25
892.952	3023.25
893.192	3099.25
893.432	3060.25
893.671	3122.25
893.911	3092.25
894.15	3033.25
894.39	2958.25
894.629	2985.25
894.869	2980.25
895.108	2986.25
895.347	2906.25
895.587	2978.25
895.826	2905.25
896.065	2892.25
896.304	2941.25
896.543	2961.25
896.782	2907.25
897.021	2922.25
897.26	2907.25
897.499	3001.25
897.738	2972.25
897.977	2900.25
898.216	2871.25
898.454	2856.25
898.693	2811.25
898.932	2868.25
899.17	2790.25
899.409	2787.25
899.647	2800.25
899.886	2808.25
900.124	2820.25
900.363	2788.25
900.601	2802.25
900.839	2818.25
901.078	2823.25
901.316	2835.25
901.554	2859.25
901.792	2877.25
902.03	2851.25
902.268	2895.25
902.506	2901.25
902.744	2827.25
902.982	2840.25
903.22	2749.25
903.458	2770.25
903.695	2742.25
903.933	2687.25
904.171	2640.25
904.409	2637.25
904.646	2609.25
904.884	2533.25
905.121	2595.25
905.359	2521.25
905.596	2502.25
905.833	2434.25
906.071	2443.25
906.308	2519.25
906.545	2469.25
906.783	2404.25
907.02	2439.25
907.257	2394.25
907.494	2410.25
907.731	2427.25
907.968	2432.25
908.205	2380.25
908.442	2364.25
908.679	2393.25
908.915	2387.25
909.152	2390.25
909.389	2247.25
909.626	2310.25
909.862	2259.25
910.099	2308.25
910.335	2333.25
910.572	2238.25
910.808	2292.25
911.045	2230.25
911.281	2266.25
911.518	2296.25
911.754	2238.25
911.99	2250.25
912.226	2206.25
912.463	2193.25
912.699	2147.25
912.935	2156.25
913.171	2142.25
913.407	2126.25
913.643	2171.25
913.879	2167.25
914.114	2102.25
914.35	2074.25
914.586	2084.25
914.822	2056.25
915.057	2102.25
915.293	1990.25
915.529	2012.25
915.764	2067.25
916	2080.25
916.235	2024.25
916.471	2027.25
916.706	1925.25
916.941	1990.25
917.177	2005.25
917.412	2020.25
917.647	2037.25
917.882	1979.25
918.117	2028.25
918.352	2000.25
918.588	2047.25
918.823	1974.25
919.057	1974.25
919.292	1865.25
919.527	2005.25
919.762	1900.25
919.997	1948.25
920.232	1893.25
920.466	1937.25
920.701	1810.25
920.935	1855.25
921.17	1871.25
921.405	1806.25
921.639	1879.25
921.873	1822.25
922.108	1831.25
922.342	1864.25
922.576	1758.25
922.811	1821.25
923.045	1830.25
923.279	1845.25
923.513	1724.25
923.747	1828.25
923.981	1803.25
924.215	1773.25
924.449	1748.25
924.683	1703.25
924.917	1743.25
925.151	1751.25
925.385	1798.25
925.618	1737.25
925.852	1753.25
926.086	1667.25
926.319	1724.25
926.553	1724.25
926.786	1748.25
927.02	1699.25
927.253	1780.25
927.486	1761.25
927.72	1670.25
927.953	1738.25
928.186	1689.25
928.42	1719.25
928.653	1680.25
928.886	1666.25
929.119	1728.25
929.352	1673.25
929.585	1707.25
929.818	1661.25
930.051	1686.25
930.284	1679.25
930.516	1612.25
930.749	1601.25
930.982	1642.25
931.215	1649.25
931.447	1550.25
931.68	1621.25
931.912	1593.25
932.145	1588.25
932.377	1629.25
932.61	1713.25
932.842	1553.25
933.074	1606.25
933.307	1557.25
933.539	1649.25
933.771	1628.25
934.003	1608.25
934.236	1687.25
934.468	1674.25
934.7	1597.25
934.932	1634.25
935.164	1567.25
935.395	1556.25
935.627	1587.25
935.859	1603.25
936.091	1501.25
936.323	1599.25
936.554	1624.25
936.786	1571.25
937.017	1505.25
937.249	1564.25
937.481	1499.25
937.712	1578.25
937.943	1542.25
938.175	1520.25
938.406	1539.25
938.637	1587.25
938.869	1507.25
939.1	1572.25
939.331	1522.25
939.562	1554.25
939.793	1569.25
940.024	1560.25
940.255	1565.25
940.486	1549.25
940.717	1536.25
940.948	1494.25
941.179	1475.25
941.409	1499.25
941.64	1475.25
941.871	1524.25
942.102	1441.25
942.332	1455.25
942.563	1543.25
942.793	1522.25
943.024	1461.25
943.254	1471.25
943.484	1517.25
943.715	1525.25
943.945	1490.25
944.175	1424.25
944.405	1428.25
944.636	1431.25
944.866	1470.25
945.096	1508.25
945.326	1422.25
945.556	1510.25
945.786	1500.25
946.016	1442.25
946.245	1438.25
946.475	1430.25
946.705	1426.25
946.935	1446.25
947.164	1430.25
947.394	1412.25
947.624	1435.25
947.853	1440.25
948.083	1438.25
948.312	1411.25
948.542	1334.25
948.771	1361.25
949	1361.25
949.23	1404.25
949.459	1376.25
949.688	1456.25
949.917	1386.25
950.146	1410.25
950.375	1469.25
950.604	1368.25
950.833	1463.25
951.062	1452.25
951.291	1395.25
951.52	1356.25
951.749	1414.25
951.978	1351.25
952.206	1357.25
952.435	1358.25
952.664	1373.25
952.892	1422.25
953.121	1401.25
953.349	1397.25
953.578	1400.25
953.806	1371.25
954.035	1345.25
954.263	1365.25
954.491	1322.25
954.719	1359.25
954.948	1342.25
955.176	1329.25
955.404	1272.25
955.632	1341.25
955.86	1339.25
956.088	1343.25
956.316	1375.25
956.544	1365.25
956.772	1331.25
956.999	1295.25
957.227	1410.25
957.455	1301.25
957.683	1328.25
957.91	1277.25
958.138	1280.25
958.365	1279.25
958.593	1272.25
958.82	1251.25
959.048	1310.25
959.275	1290.25
959.502	1298.25
959.73	1263.25
959.957	1324.25
960.184	1333.25
960.411	1293.25
960.638	1350.25
960.865	1280.25
961.092	1312.25
961.319	1209.25
961.546	1302.25
961.773	1314.25
962	1277.25
962.227	1287.25
962.454	1254.25
962.68	1276.25
962.907	1300.25
963.134	1226.25
963.36	1272.25
963.587	1295.25
963.813	1207.25
964.04	1279.25
964.266	1216.25
964.493	1303.25
964.719	1238.25
964.945	1280.25
965.171	1179.25
965.398	1243.25
965.624	1253.25
965.85	1187.25
966.076	1239.25
966.302	1241.25
966.528	1216.25
966.754	1247.25
966.98	1229.25
967.206	1244.25
967.431	1184.25
967.657	1246.25
967.883	1245.25
968.109	1226.25
968.334	1208.25
968.56	1176.25
968.785	1202.25
969.011	1156.25
969.236	1213.25
969.462	1172.25
969.687	1166.25
969.912	1243.25
970.138	1228.25
970.363	1166.25
970.588	1189.25
970.813	1171.25
971.038	1159.25
971.263	1225.25
971.488	1180.25
971.713	1227.25
971.938	1209.25
972.163	1142.25
972.388	1161.25
972.613	1135.25
972.838	1148.25
973.062	1123.25
973.287	1141.25
973.512	1078.25
973.736	1139.25
973.961	1126.25
974.185	1102.25
974.41	1142.25
974.634	1060.25
974.858	1075.25
975.083	1112.25
975.307	1141.25
975.531	1069.25
975.755	1040.25
975.98	1078.25
976.204	1005.25
976.428	1024.25
976.652	1053.25
976.876	1011.25
977.1	1059.25
977.324	1008.25
977.547	1070.25
977.771	1046.25
977.995	1037.25
978.219	978.25
978.442	1123.25
978.666	1057.25
978.89	1046.25
979.113	1056.25
979.337	1056.25
979.56	1012.25
979.783	1092.25
980.007	994.25
980.23	1044.25
980.453	998.25
980.677	1050.25
980.9	1040.25
981.123	936.25
981.346	1040.25
981.569	1048.25
981.792	1065.25
982.015	1006.25
982.238	996.25
982.461	1007.25
982.684	989.25
982.907	975.25
983.129	958.25
983.352	1016.25
983.575	999.25
983.797	1030.25
984.02	972.25
984.242	975.25
984.465	988.25
984.687	1035.25
984.91	1049.25
985.132	1011.25
985.354	1027.25
985.577	1013.25
985.799	1019.25
986.021	930.25
986.243	958.25
986.465	964.25
986.687	1028.25
986.909	1065.25
987.131	1015.25
987.353	974.25
987.575	1007.25
987.797	951.25
988.019	892.25
988.241	988.25
988.462	928.25
988.684	1015.25
988.906	1023.25
989.127	1051.25
989.349	932.25
989.57	976.25
989.792	1002.25
990.013	1028.25
990.234	1025.25
990.456	1047.25
990.677	1040.25
990.898	962.25
991.119	976.25
991.341	998.25
991.562	971.25
991.783	990.25
992.004	959.25
992.225	912.25
992.446	986.25
992.667	887.25
992.887	997.25
993.108	903.25
993.329	1019.25
993.55	976.25
993.77	929.25
993.991	926.25
994.212	960.25
994.432	965.25
994.653	980.25
994.873	981.25
995.093	850.25
995.314	926.25
995.534	962.25
995.754	990.25
995.975	1009.25
996.195	908.25
996.415	972.25
996.635	942.25
996.855	956.25
997.075	930.25
997.295	932.25
997.515	920.25
997.735	982.25
997.955	950.25
998.174	911.25
998.394	896.25
998.614	938.25
998.834	914.25
999.053	978.25
999.273	956.25
999.492	1008.25
999.712	958.25
999.931	911.25
1000.151	972.25
1000.37	938.25
1000.589	1001.25
1000.809	912.25
1001.028	1063.25
1001.247	1001.25
1001.466	901.25
1001.685	1022.25
1001.904	979.25
1002.123	979.25
1002.342	973.25
1002.561	935.25
1002.78	970.25
1002.999	1048.25
1003.218	979.25
1003.436	971.25
1003.655	1000.25
1003.874	961.25
1004.092	986.25
1004.311	1008.25
1004.53	976.25
1004.748	1069.25
1004.966	980.25
1005.185	1043.25
1005.403	1019.25
1005.622	999.25
1005.84	1072.25
1006.058	977.25
1006.276	1004.25
1006.494	1493.25
1006.712	1020.25
1006.931	1067.25
1007.149	971.25
1007.367	994.25
1007.584	1020.25
1007.802	1047.25
1008.02	997.25
1008.238	1095.25
1008.456	1069.25
1008.673	938.25
1008.891	1056.25
1009.109	983.25
1009.326	1045.25
1009.544	1112.25
1009.761	1011.25
1009.979	1071.25
1010.196	1073.25
1010.413	1148.25
1010.631	1190.25
1010.848	1199.25
1011.065	1194.25
1011.282	1140.25
1011.5	1093.25
1011.717	1185.25
1011.934	1139.25
1012.151	1167.25
1012.368	1164.25
1012.585	1100.25
1012.801	1162.25
1013.018	1112.25
1013.235	1104.25
1013.452	1140.25
1013.669	1109.25
1013.885	1076.25
1014.102	1132.25
1014.318	1072.25
1014.535	1052.25
1014.751	1120.25
1014.968	1107.25
1015.184	1136.25
1015.401	1038.25
1015.617	1092.25
1015.833	1052.25
1016.049	1079.25
1016.266	1028.25
1016.482	1052.25
1016.698	1001.25
1016.914	1054.25
1017.13	1018.25
1017.346	1000.25
1017.562	1064.25
1017.778	998.25
1017.993	963.25
1018.209	1044.25
1018.425	1018.25
1018.641	968.25
1018.856	930.25
1019.072	988.25
1019.288	1025.25
1019.503	978.25
1019.719	900.25
1019.934	910.25
1020.149	999.25
1020.365	933.25
1020.58	904.25
1020.795	950.25
1021.011	897.25
1021.226	886.25
1021.441	937.25
1021.656	861.25
1021.871	812.25
1022.086	833.25
1022.301	808.25
1022.516	799.25
1022.731	868.25
1022.946	781.25
1023.16	764.25
1023.375	750.25
1023.59	733.25
1023.804	704.25
1024.019	810.25
1024.234	683.25
1024.448	730.25
1024.663	664.25
1024.877	689.25
1025.092	703.25
1025.306	726.25
1025.52	645.25
1025.734	720.25
1025.949	666.25
1026.163	641.25
1026.377	593.25
1026.591	647.25
1026.805	559.25
1027.019	582.25
1027.233	542.25
1027.447	492.25
1027.661	600.25
1027.875	551.25
1028.088	556.25
1028.302	496.25
1028.516	486.25
1028.73	510.25
1028.943	495.25
1029.157	457.25
1029.37	422.25
1029.584	-2.75
1029.797	0.25
1030.011	-2.75
1030.224	-0.75
