Data from QEP037381__103__10-20-32-731.txt Node

Date: Wed Dec 21 10:20:32 EST 2022
User: dcclab
Spectrometer: QEP03738
Trigger mode: 4
Integration Time (sec): 1.000000E1
Scans to average: 1
Electric dark correction enabled: true
Nonlinearity correction enabled: false
Boxcar width: 0
XAxis mode: Wavelengths
Number of Pixels in Spectrum: 1044
>>>>>Begin Spectral Data<<<<<
784.041	12.38
784.3	2.38
784.558	-6.62
784.817	-2.62
785.075	82220.38
785.334	14037.38
785.592	6470.38
785.851	4502.38
786.109	3367.38
786.368	2636.38
786.626	2154.38
786.884	1780.38
787.143	1498.38
787.401	1196.38
787.659	1104.38
787.917	948.38
788.175	888.38
788.433	788.38
788.691	718.38
788.949	670.38
789.207	645.38
789.465	554.38
789.723	560.38
789.98	499.38
790.238	535.38
790.496	503.38
790.753	483.38
791.011	530.38
791.268	473.38
791.526	450.38
791.783	487.38
792.041	454.38
792.298	373.38
792.556	455.38
792.813	429.38
793.07	407.38
793.327	398.38
793.584	491.38
793.841	382.38
794.099	427.38
794.356	477.38
794.613	373.38
794.869	417.38
795.126	377.38
795.383	365.38
795.64	386.38
795.897	330.38
796.153	382.38
796.41	381.38
796.667	351.38
796.923	373.38
797.18	368.38
797.436	385.38
797.693	350.38
797.949	407.38
798.206	434.38
798.462	343.38
798.718	399.38
798.974	375.38
799.231	399.38
799.487	402.38
799.743	387.38
799.999	409.38
800.255	401.38
800.511	364.38
800.767	396.38
801.023	388.38
801.279	420.38
801.534	399.38
801.79	413.38
802.046	407.38
802.302	460.38
802.557	463.38
802.813	518.38
803.068	515.38
803.324	649.38
803.579	730.38
803.835	915.38
804.09	1199.38
804.345	1465.38
804.601	1805.38
804.856	2196.38
805.111	2505.38
805.366	2716.38
805.621	2867.38
805.876	2991.38
806.131	2994.38
806.386	3041.38
806.641	3035.38
806.896	3123.38
807.151	3198.38
807.406	3181.38
807.661	3291.38
807.915	3337.38
808.17	3387.38
808.425	3432.38
808.679	3404.38
808.934	3534.38
809.188	3495.38
809.443	3536.38
809.697	3641.38
809.951	3565.38
810.206	3595.38
810.46	3696.38
810.714	3663.38
810.968	3762.38
811.223	3740.38
811.477	3777.38
811.731	3816.38
811.985	3770.38
812.239	3736.38
812.493	3792.38
812.747	3856.38
813	3828.38
813.254	3904.38
813.508	3949.38
813.762	3879.38
814.015	3909.38
814.269	3987.38
814.522	4006.38
814.776	4043.38
815.03	4092.38
815.283	4146.38
815.536	4222.38
815.79	4309.38
816.043	4376.38
816.296	4377.38
816.55	4415.38
816.803	4460.38
817.056	4582.38
817.309	4560.38
817.562	4620.38
817.815	4670.38
818.068	4629.38
818.321	4706.38
818.574	4722.38
818.827	4792.38
819.079	4912.38
819.332	5056.38
819.585	5065.38
819.838	5200.38
820.09	5132.38
820.343	5190.38
820.595	5193.38
820.848	5292.38
821.1	5337.38
821.353	5254.38
821.605	5315.38
821.857	5296.38
822.11	5209.38
822.362	5205.38
822.614	5263.38
822.866	5295.38
823.118	5217.38
823.37	5375.38
823.622	5333.38
823.874	5342.38
824.126	5408.38
824.378	5358.38
824.63	5416.38
824.882	5464.38
825.134	5413.38
825.385	5414.38
825.637	5364.38
825.888	5354.38
826.14	5334.38
826.392	5219.38
826.643	5243.38
826.895	5283.38
827.146	5219.38
827.397	5237.38
827.649	5230.38
827.9	5156.38
828.151	5156.38
828.402	5187.38
828.653	5231.38
828.905	5230.38
829.156	5339.38
829.407	5167.38
829.658	5279.38
829.909	5271.38
830.159	5272.38
830.41	5293.38
830.661	5221.38
830.912	5220.38
831.162	5177.38
831.413	5185.38
831.664	5196.38
831.914	5184.38
832.165	5217.38
832.415	5207.38
832.666	5225.38
832.916	5258.38
833.167	5197.38
833.417	5231.38
833.667	5183.38
833.917	5186.38
834.168	5227.38
834.418	5214.38
834.668	5184.38
834.918	5141.38
835.168	5205.38
835.418	5110.38
835.668	5120.38
835.918	5136.38
836.167	5118.38
836.417	5056.38
836.667	5097.38
836.917	5125.38
837.166	5053.38
837.416	5100.38
837.666	5096.38
837.915	4994.38
838.165	5055.38
838.414	4919.38
838.663	4906.38
838.913	4973.38
839.162	4947.38
839.411	5052.38
839.661	4934.38
839.91	4994.38
840.159	4952.38
840.408	4986.38
840.657	4998.38
840.906	5018.38
841.155	5022.38
841.404	4960.38
841.653	4923.38
841.902	4923.38
842.15	4981.38
842.399	4998.38
842.648	4946.38
842.897	4964.38
843.145	4834.38
843.394	4872.38
843.642	4881.38
843.891	4873.38
844.139	4843.38
844.388	4796.38
844.636	4754.38
844.884	4799.38
845.133	4748.38
845.381	4783.38
845.629	4769.38
845.877	4790.38
846.125	4790.38
846.373	4795.38
846.621	4695.38
846.869	4799.38
847.117	4718.38
847.365	4746.38
847.613	4715.38
847.861	4663.38
848.108	4763.38
848.356	4706.38
848.604	4658.38
848.851	4699.38
849.099	4730.38
849.346	4713.38
849.594	4737.38
849.841	4770.38
850.089	4745.38
850.336	4732.38
850.583	4766.38
850.831	4782.38
851.078	4813.38
851.325	4847.38
851.572	4964.38
851.819	4906.38
852.066	4653.38
852.313	4488.38
852.56	4505.38
852.807	4512.38
853.054	4462.38
853.301	4484.38
853.548	4534.38
853.794	4659.38
854.041	4643.38
854.288	4580.38
854.534	4706.38
854.781	4655.38
855.028	4581.38
855.274	4670.38
855.52	4546.38
855.767	4507.38
856.013	4524.38
856.26	4813.38
856.506	4500.38
856.752	4524.38
856.998	4402.38
857.244	4418.38
857.49	4498.38
857.736	4497.38
857.982	4531.38
858.228	4557.38
858.474	4440.38
858.72	4484.38
858.966	4440.38
859.212	4402.38
859.458	4352.38
859.703	4312.38
859.949	4230.38
860.195	4307.38
860.44	4264.38
860.686	4197.38
860.931	4244.38
861.177	4169.38
861.422	4204.38
861.667	4153.38
861.913	4121.38
862.158	4160.38
862.403	4223.38
862.648	4261.38
862.893	4244.38
863.138	4202.38
863.384	4192.38
863.629	4183.38
863.873	4212.38
864.118	4147.38
864.363	4125.38
864.608	4167.38
864.853	4191.38
865.098	4147.38
865.342	4156.38
865.587	4086.38
865.832	4154.38
866.076	4144.38
866.321	4049.38
866.565	4044.38
866.81	4032.38
867.054	4049.38
867.298	4069.38
867.543	3952.38
867.787	4078.38
868.031	4048.38
868.275	4033.38
868.519	4030.38
868.764	4009.38
869.008	3981.38
869.252	4034.38
869.496	3970.38
869.739	3969.38
869.983	4051.38
870.227	4037.38
870.471	3901.38
870.715	4009.38
870.958	4026.38
871.202	4003.38
871.446	3990.38
871.689	3972.38
871.933	3981.38
872.176	3977.38
872.42	4047.38
872.663	4002.38
872.906	3990.38
873.15	3970.38
873.393	3909.38
873.636	4016.38
873.879	3945.38
874.122	3943.38
874.366	3843.38
874.609	3881.38
874.852	3801.38
875.095	3794.38
875.337	3778.38
875.58	3705.38
875.823	3771.38
876.066	3797.38
876.309	3805.38
876.551	3671.38
876.794	3668.38
877.037	3737.38
877.279	3622.38
877.522	3678.38
877.764	3688.38
878.007	3675.38
878.249	3665.38
878.491	3634.38
878.734	3709.38
878.976	3666.38
879.218	3626.38
879.46	3637.38
879.702	3608.38
879.945	3596.38
880.187	3516.38
880.429	3533.38
880.671	3517.38
880.912	3530.38
881.154	3440.38
881.396	3435.38
881.638	3533.38
881.88	3474.38
882.121	3428.38
882.363	3435.38
882.605	3510.38
882.846	3451.38
883.088	3468.38
883.329	3424.38
883.571	3427.38
883.812	3513.38
884.053	3546.38
884.295	3634.38
884.536	3745.38
884.777	3659.38
885.018	3660.38
885.259	3673.38
885.5	3556.38
885.742	3859.38
885.982	3596.38
886.223	3531.38
886.464	3470.38
886.705	3424.38
886.946	3425.38
887.187	3319.38
887.428	3386.38
887.668	3272.38
887.909	3210.38
888.15	3221.38
888.39	3253.38
888.631	3267.38
888.871	3194.38
889.111	3176.38
889.352	3131.38
889.592	3119.38
889.833	3096.38
890.073	3059.38
890.313	3105.38
890.553	3021.38
890.793	3041.38
891.033	3017.38
891.273	3011.38
891.513	3023.38
891.753	3037.38
891.993	2999.38
892.233	2980.38
892.473	3060.38
892.713	2997.38
892.952	2989.38
893.192	3060.38
893.432	3024.38
893.671	3066.38
893.911	2998.38
894.15	3010.38
894.39	2931.38
894.629	2939.38
894.869	2956.38
895.108	2968.38
895.347	2898.38
895.587	2917.38
895.826	2894.38
896.065	2893.38
896.304	2904.38
896.543	2928.38
896.782	2834.38
897.021	2896.38
897.26	2890.38
897.499	2944.38
897.738	2969.38
897.977	2869.38
898.216	2846.38
898.454	2863.38
898.693	2789.38
898.932	2801.38
899.17	2807.38
899.409	2777.38
899.647	2797.38
899.886	2782.38
900.124	2791.38
900.363	2765.38
900.601	2798.38
900.839	2780.38
901.078	2762.38
901.316	2826.38
901.554	2813.38
901.792	2848.38
902.03	2804.38
902.268	2824.38
902.506	2842.38
902.744	2810.38
902.982	2832.38
903.22	2724.38
903.458	2717.38
903.695	2681.38
903.933	2650.38
904.171	2577.38
904.409	2556.38
904.646	2559.38
904.884	2521.38
905.121	2523.38
905.359	2476.38
905.596	2470.38
905.833	2374.38
906.071	2415.38
906.308	2443.38
906.545	2452.38
906.783	2378.38
907.02	2418.38
907.257	2355.38
907.494	2376.38
907.731	2400.38
907.968	2396.38
908.205	2352.38
908.442	2365.38
908.679	2350.38
908.915	2332.38
909.152	2341.38
909.389	2232.38
909.626	2272.38
909.862	2234.38
910.099	2273.38
910.335	2272.38
910.572	2202.38
910.808	2237.38
911.045	2232.38
911.281	2210.38
911.518	2321.38
911.754	2180.38
911.99	2197.38
912.226	2188.38
912.463	2169.38
912.699	2152.38
912.935	2122.38
913.171	2149.38
913.407	2121.38
913.643	2153.38
913.879	2094.38
914.114	2084.38
914.35	2042.38
914.586	2055.38
914.822	2006.38
915.057	2121.38
915.293	1943.38
915.529	1970.38
915.764	2043.38
916	2028.38
916.235	2026.38
916.471	1985.38
916.706	1962.38
916.941	1979.38
917.177	1995.38
917.412	2003.38
917.647	2012.38
917.882	1967.38
918.117	2004.38
918.352	1986.38
918.588	2039.38
918.823	1990.38
919.057	1947.38
919.292	1871.38
919.527	1996.38
919.762	1924.38
919.997	1921.38
920.232	1880.38
920.466	1917.38
920.701	1813.38
920.935	1847.38
921.17	1823.38
921.405	1776.38
921.639	1841.38
921.873	1804.38
922.108	1827.38
922.342	1830.38
922.576	1737.38
922.811	1761.38
923.045	1823.38
923.279	1841.38
923.513	1714.38
923.747	1793.38
923.981	1793.38
924.215	1730.38
924.449	1745.38
924.683	1686.38
924.917	1707.38
925.151	1701.38
925.385	1777.38
925.618	1723.38
925.852	1738.38
926.086	1657.38
926.319	1728.38
926.553	1679.38
926.786	1717.38
927.02	1690.38
927.253	1739.38
927.486	1722.38
927.72	1653.38
927.953	1756.38
928.186	1683.38
928.42	1747.38
928.653	1644.38
928.886	1638.38
929.119	1691.38
929.352	1662.38
929.585	1666.38
929.818	1646.38
930.051	1663.38
930.284	1655.38
930.516	1562.38
930.749	1581.38
930.982	1639.38
931.215	1606.38
931.447	1547.38
931.68	1581.38
931.912	1553.38
932.145	1571.38
932.377	1602.38
932.61	1712.38
932.842	1491.38
933.074	1621.38
933.307	1533.38
933.539	1626.38
933.771	1647.38
934.003	1554.38
934.236	1645.38
934.468	1666.38
934.7	1576.38
934.932	1610.38
935.164	1542.38
935.395	1528.38
935.627	1573.38
935.859	1584.38
936.091	1508.38
936.323	1597.38
936.554	1577.38
936.786	1505.38
937.017	1463.38
937.249	1550.38
937.481	1468.38
937.712	1559.38
937.943	1539.38
938.175	1514.38
938.406	1501.38
938.637	1567.38
938.869	1474.38
939.1	1565.38
939.331	1494.38
939.562	1529.38
939.793	1520.38
940.024	1543.38
940.255	1566.38
940.486	1506.38
940.717	1503.38
940.948	1490.38
941.179	1450.38
941.409	1483.38
941.64	1469.38
941.871	1497.38
942.102	1477.38
942.332	1472.38
942.563	1507.38
942.793	1495.38
943.024	1430.38
943.254	1477.38
943.484	1481.38
943.715	1544.38
943.945	1476.38
944.175	1422.38
944.405	1421.38
944.636	1443.38
944.866	1490.38
945.096	1498.38
945.326	1417.38
945.556	1499.38
945.786	1501.38
946.016	1462.38
946.245	1388.38
946.475	1422.38
946.705	1428.38
946.935	1427.38
947.164	1422.38
947.394	1412.38
947.624	1452.38
947.853	1447.38
948.083	1417.38
948.312	1388.38
948.542	1355.38
948.771	1348.38
949	1362.38
949.23	1347.38
949.459	1367.38
949.688	1458.38
949.917	1384.38
950.146	1373.38
950.375	1450.38
950.604	1343.38
950.833	1432.38
951.062	1435.38
951.291	1380.38
951.52	1370.38
951.749	1418.38
951.978	1362.38
952.206	1343.38
952.435	1364.38
952.664	1407.38
952.892	1392.38
953.121	1376.38
953.349	1398.38
953.578	1384.38
953.806	1358.38
954.035	1319.38
954.263	1356.38
954.491	1326.38
954.719	1355.38
954.948	1309.38
955.176	1304.38
955.404	1269.38
955.632	1322.38
955.86	1333.38
956.088	1326.38
956.316	1336.38
956.544	1355.38
956.772	1311.38
956.999	1288.38
957.227	1363.38
957.455	1285.38
957.683	1276.38
957.91	1263.38
958.138	1259.38
958.365	1253.38
958.593	1261.38
958.82	1201.38
959.048	1287.38
959.275	1261.38
959.502	1279.38
959.73	1223.38
959.957	1297.38
960.184	1338.38
960.411	1299.38
960.638	1322.38
960.865	1277.38
961.092	1312.38
961.319	1203.38
961.546	1286.38
961.773	1289.38
962	1240.38
962.227	1314.38
962.454	1286.38
962.68	1244.38
962.907	1301.38
963.134	1222.38
963.36	1244.38
963.587	1288.38
963.813	1199.38
964.04	1273.38
964.266	1214.38
964.493	1304.38
964.719	1268.38
964.945	1266.38
965.171	1165.38
965.398	1239.38
965.624	1251.38
965.85	1179.38
966.076	1199.38
966.302	1228.38
966.528	1208.38
966.754	1223.38
966.98	1213.38
967.206	1211.38
967.431	1139.38
967.657	1246.38
967.883	1202.38
968.109	1225.38
968.334	1168.38
968.56	1168.38
968.785	1206.38
969.011	1134.38
969.236	1211.38
969.462	1160.38
969.687	1166.38
969.912	1219.38
970.138	1227.38
970.363	1138.38
970.588	1165.38
970.813	1161.38
971.038	1134.38
971.263	1185.38
971.488	1161.38
971.713	1212.38
971.938	1183.38
972.163	1100.38
972.388	1153.38
972.613	1119.38
972.838	1135.38
973.062	1136.38
973.287	1125.38
973.512	1060.38
973.736	1102.38
973.961	1088.38
974.185	1084.38
974.41	1128.38
974.634	1059.38
974.858	1083.38
975.083	1096.38
975.307	1129.38
975.531	1081.38
975.755	1034.38
975.98	1065.38
976.204	1012.38
976.428	1018.38
976.652	1015.38
976.876	1015.38
977.1	1020.38
977.324	995.38
977.547	1067.38
977.771	1068.38
977.995	1032.38
978.219	984.38
978.442	1123.38
978.666	1054.38
978.89	1049.38
979.113	1015.38
979.337	1042.38
979.56	997.38
979.783	1100.38
980.007	994.38
980.23	1027.38
980.453	996.38
980.677	1033.38
980.9	1009.38
981.123	949.38
981.346	1033.38
981.569	1025.38
981.792	1047.38
982.015	1015.38
982.238	972.38
982.461	1023.38
982.684	955.38
982.907	985.38
983.129	960.38
983.352	1026.38
983.575	986.38
983.797	1001.38
984.02	964.38
984.242	957.38
984.465	988.38
984.687	994.38
984.91	1038.38
985.132	995.38
985.354	1030.38
985.577	1005.38
985.799	979.38
986.021	900.38
986.243	949.38
986.465	974.38
986.687	1016.38
986.909	1046.38
987.131	998.38
987.353	963.38
987.575	993.38
987.797	953.38
988.019	917.38
988.241	976.38
988.462	924.38
988.684	987.38
988.906	1026.38
989.127	1028.38
989.349	929.38
989.57	971.38
989.792	1008.38
990.013	995.38
990.234	1012.38
990.456	1042.38
990.677	1045.38
990.898	984.38
991.119	998.38
991.341	1011.38
991.562	926.38
991.783	976.38
992.004	935.38
992.225	903.38
992.446	969.38
992.667	892.38
992.887	958.38
993.108	869.38
993.329	1023.38
993.55	941.38
993.77	926.38
993.991	912.38
994.212	970.38
994.432	946.38
994.653	993.38
994.873	940.38
995.093	841.38
995.314	925.38
995.534	974.38
995.754	979.38
995.975	1015.38
996.195	905.38
996.415	927.38
996.635	928.38
996.855	943.38
997.075	926.38
997.295	923.38
997.515	917.38
997.735	970.38
997.955	939.38
998.174	935.38
998.394	890.38
998.614	925.38
998.834	900.38
999.053	973.38
999.273	935.38
999.492	1005.38
999.712	943.38
999.931	903.38
1000.151	947.38
1000.37	949.38
1000.589	1002.38
1000.809	931.38
1001.028	1042.38
1001.247	977.38
1001.466	877.38
1001.685	1042.38
1001.904	976.38
1002.123	948.38
1002.342	968.38
1002.561	944.38
1002.78	960.38
1002.999	1041.38
1003.218	976.38
1003.436	950.38
1003.655	1019.38
1003.874	952.38
1004.092	962.38
1004.311	1008.38
1004.53	975.38
1004.748	1043.38
1004.966	963.38
1005.185	1027.38
1005.403	1005.38
1005.622	1001.38
1005.84	1064.38
1006.058	965.38
1006.276	990.38
1006.494	1504.38
1006.712	999.38
1006.931	1075.38
1007.149	969.38
1007.367	979.38
1007.584	997.38
1007.802	1046.38
1008.02	976.38
1008.238	1086.38
1008.456	1062.38
1008.673	928.38
1008.891	1023.38
1009.109	976.38
1009.326	1037.38
1009.544	1082.38
1009.761	977.38
1009.979	1068.38
1010.196	1060.38
1010.413	1139.38
1010.631	1141.38
1010.848	1160.38
1011.065	1142.38
1011.282	1115.38
1011.5	1082.38
1011.717	1180.38
1011.934	1119.38
1012.151	1127.38
1012.368	1114.38
1012.585	1084.38
1012.801	1128.38
1013.018	1086.38
1013.235	1078.38
1013.452	1065.38
1013.669	1092.38
1013.885	1059.38
1014.102	1094.38
1014.318	1067.38
1014.535	1044.38
1014.751	1075.38
1014.968	1057.38
1015.184	1112.38
1015.401	1025.38
1015.617	1055.38
1015.833	1016.38
1016.049	1034.38
1016.266	1023.38
1016.482	1014.38
1016.698	966.38
1016.914	1020.38
1017.13	989.38
1017.346	988.38
1017.562	1034.38
1017.778	982.38
1017.993	952.38
1018.209	994.38
1018.425	988.38
1018.641	954.38
1018.856	923.38
1019.072	965.38
1019.288	1004.38
1019.503	950.38
1019.719	900.38
1019.934	892.38
1020.149	982.38
1020.365	941.38
1020.58	896.38
1020.795	946.38
1021.011	890.38
1021.226	878.38
1021.441	923.38
1021.656	836.38
1021.871	789.38
1022.086	783.38
1022.301	799.38
1022.516	786.38
1022.731	878.38
1022.946	752.38
1023.16	765.38
1023.375	743.38
1023.59	716.38
1023.804	711.38
1024.019	829.38
1024.234	704.38
1024.448	730.38
1024.663	668.38
1024.877	679.38
1025.092	711.38
1025.306	733.38
1025.52	629.38
1025.734	718.38
1025.949	674.38
1026.163	636.38
1026.377	573.38
1026.591	633.38
1026.805	575.38
1027.019	576.38
1027.233	532.38
1027.447	496.38
1027.661	595.38
1027.875	537.38
1028.088	553.38
1028.302	487.38
1028.516	489.38
1028.73	496.38
1028.943	495.38
1029.157	464.38
1029.37	440.38
1029.584	-0.62
1029.797	-2.62
1030.011	-1.62
1030.224	-0.62
