Data from QEP037381__130__10-25-02-734.txt Node

Date: Wed Dec 21 10:25:02 EST 2022
User: dcclab
Spectrometer: QEP03738
Trigger mode: 4
Integration Time (sec): 1.000000E1
Scans to average: 1
Electric dark correction enabled: true
Nonlinearity correction enabled: false
Boxcar width: 0
XAxis mode: Wavelengths
Number of Pixels in Spectrum: 1044
>>>>>Begin Spectral Data<<<<<
784.041	12.5
784.3	-0.5
784.558	-0.5
784.817	-0.5
785.075	82039.5
785.334	14310.5
785.592	6740.5
785.851	4642.5
786.109	3549.5
786.368	2767.5
786.626	2193.5
786.884	1857.5
787.143	1550.5
787.401	1259.5
787.659	1173.5
787.917	976.5
788.175	929.5
788.433	802.5
788.691	722.5
788.949	673.5
789.207	652.5
789.465	591.5
789.723	554.5
789.98	502.5
790.238	560.5
790.496	525.5
790.753	478.5
791.011	548.5
791.268	475.5
791.526	451.5
791.783	476.5
792.041	473.5
792.298	392.5
792.556	469.5
792.813	425.5
793.07	406.5
793.327	400.5
793.584	463.5
793.841	398.5
794.099	423.5
794.356	468.5
794.613	380.5
794.869	416.5
795.126	377.5
795.383	350.5
795.64	370.5
795.897	330.5
796.153	393.5
796.41	387.5
796.667	364.5
796.923	367.5
797.18	366.5
797.436	381.5
797.693	349.5
797.949	406.5
798.206	429.5
798.462	338.5
798.718	383.5
798.974	362.5
799.231	397.5
799.487	396.5
799.743	397.5
799.999	413.5
800.255	406.5
800.511	369.5
800.767	389.5
801.023	381.5
801.279	392.5
801.534	406.5
801.79	426.5
802.046	388.5
802.302	453.5
802.557	459.5
802.813	491.5
803.068	498.5
803.324	593.5
803.579	688.5
803.835	837.5
804.09	1095.5
804.345	1290.5
804.601	1550.5
804.856	1832.5
805.111	2103.5
805.366	2286.5
805.621	2380.5
805.876	2472.5
806.131	2496.5
806.386	2539.5
806.641	2540.5
806.896	2596.5
807.151	2726.5
807.406	2664.5
807.661	2723.5
807.915	2747.5
808.17	2838.5
808.425	2834.5
808.679	2800.5
808.934	2911.5
809.188	2883.5
809.443	2965.5
809.697	3011.5
809.951	2912.5
810.206	3026.5
810.46	3053.5
810.714	3040.5
810.968	3104.5
811.223	3048.5
811.477	3133.5
811.731	3169.5
811.985	3104.5
812.239	3092.5
812.493	3118.5
812.747	3185.5
813	3130.5
813.254	3190.5
813.508	3235.5
813.762	3212.5
814.015	3219.5
814.269	3232.5
814.522	3298.5
814.776	3345.5
815.03	3401.5
815.283	3419.5
815.536	3452.5
815.79	3489.5
816.043	3535.5
816.296	3548.5
816.55	3611.5
816.803	3657.5
817.056	3801.5
817.309	3738.5
817.562	3780.5
817.815	3915.5
818.068	3813.5
818.321	3847.5
818.574	3839.5
818.827	3956.5
819.079	3983.5
819.332	4188.5
819.585	4154.5
819.838	4258.5
820.09	4146.5
820.343	4265.5
820.595	4224.5
820.848	4280.5
821.1	4256.5
821.353	4269.5
821.605	4267.5
821.857	4348.5
822.11	4235.5
822.362	4251.5
822.614	4259.5
822.866	4298.5
823.118	4267.5
823.37	4383.5
823.622	4368.5
823.874	4327.5
824.126	4424.5
824.378	4343.5
824.63	4421.5
824.882	4470.5
825.134	4448.5
825.385	4425.5
825.637	4366.5
825.888	4329.5
826.14	4328.5
826.392	4250.5
826.643	4237.5
826.895	4320.5
827.146	4218.5
827.397	4251.5
827.649	4273.5
827.9	4185.5
828.151	4168.5
828.402	4195.5
828.653	4236.5
828.905	4282.5
829.156	4332.5
829.407	4259.5
829.658	4227.5
829.909	4271.5
830.159	4270.5
830.41	4306.5
830.661	4262.5
830.912	4165.5
831.162	4201.5
831.413	4189.5
831.664	4201.5
831.914	4162.5
832.165	4230.5
832.415	4225.5
832.666	4256.5
832.916	4245.5
833.167	4187.5
833.417	4252.5
833.667	4208.5
833.917	4159.5
834.168	4275.5
834.418	4235.5
834.668	4208.5
834.918	4148.5
835.168	4190.5
835.418	4091.5
835.668	4168.5
835.918	4190.5
836.167	4157.5
836.417	4091.5
836.667	4153.5
836.917	4135.5
837.166	4088.5
837.416	4097.5
837.666	4114.5
837.915	4019.5
838.165	4107.5
838.414	4046.5
838.663	3979.5
838.913	4015.5
839.162	4011.5
839.411	4072.5
839.661	3977.5
839.91	4019.5
840.159	4007.5
840.408	4037.5
840.657	4051.5
840.906	4063.5
841.155	4070.5
841.404	3989.5
841.653	4025.5
841.902	3990.5
842.15	4040.5
842.399	4091.5
842.648	4019.5
842.897	4017.5
843.145	3927.5
843.394	3961.5
843.642	3912.5
843.891	3989.5
844.139	3947.5
844.388	3885.5
844.636	3860.5
844.884	3928.5
845.133	3828.5
845.381	3850.5
845.629	3894.5
845.877	3820.5
846.125	3848.5
846.373	3841.5
846.621	3790.5
846.869	3885.5
847.117	3829.5
847.365	3803.5
847.613	3801.5
847.861	3808.5
848.108	3853.5
848.356	3842.5
848.604	3804.5
848.851	3793.5
849.099	3839.5
849.346	3817.5
849.594	3845.5
849.841	3877.5
850.089	3860.5
850.336	3843.5
850.583	3865.5
850.831	3906.5
851.078	3923.5
851.325	3954.5
851.572	4046.5
851.819	3956.5
852.066	3820.5
852.313	3719.5
852.56	3619.5
852.807	3613.5
853.054	3630.5
853.301	3635.5
853.548	3689.5
853.794	3800.5
854.041	3733.5
854.288	3745.5
854.534	3816.5
854.781	3779.5
855.028	3741.5
855.274	3771.5
855.52	3674.5
855.767	3660.5
856.013	3725.5
856.26	3977.5
856.506	3634.5
856.752	3615.5
856.998	3637.5
857.244	3574.5
857.49	3661.5
857.736	3709.5
857.982	3693.5
858.228	3687.5
858.474	3603.5
858.72	3573.5
858.966	3559.5
859.212	3555.5
859.458	3514.5
859.703	3469.5
859.949	3411.5
860.195	3463.5
860.44	3429.5
860.686	3416.5
860.931	3475.5
861.177	3341.5
861.422	3405.5
861.667	3383.5
861.913	3387.5
862.158	3334.5
862.403	3418.5
862.648	3412.5
862.893	3433.5
863.138	3408.5
863.384	3344.5
863.629	3365.5
863.873	3369.5
864.118	3388.5
864.363	3312.5
864.608	3373.5
864.853	3370.5
865.098	3360.5
865.342	3377.5
865.587	3283.5
865.832	3359.5
866.076	3313.5
866.321	3278.5
866.565	3287.5
866.81	3229.5
867.054	3245.5
867.298	3285.5
867.543	3238.5
867.787	3250.5
868.031	3291.5
868.275	3247.5
868.519	3251.5
868.764	3201.5
869.008	3211.5
869.252	3262.5
869.496	3229.5
869.739	3240.5
869.983	3257.5
870.227	3229.5
870.471	3220.5
870.715	3287.5
870.958	3308.5
871.202	3213.5
871.446	3254.5
871.689	3226.5
871.933	3259.5
872.176	3288.5
872.42	3272.5
872.663	3249.5
872.906	3264.5
873.15	3229.5
873.393	3162.5
873.636	3261.5
873.879	3236.5
874.122	3228.5
874.366	3076.5
874.609	3167.5
874.852	3109.5
875.095	3094.5
875.337	3072.5
875.58	2959.5
875.823	3082.5
876.066	3059.5
876.309	3100.5
876.551	3013.5
876.794	2976.5
877.037	3031.5
877.279	2953.5
877.522	2973.5
877.764	3022.5
878.007	2963.5
878.249	3006.5
878.491	2909.5
878.734	2948.5
878.976	2980.5
879.218	2902.5
879.46	2974.5
879.702	2904.5
879.945	2883.5
880.187	2834.5
880.429	2854.5
880.671	2822.5
880.912	2859.5
881.154	2837.5
881.396	2768.5
881.638	2807.5
881.88	2822.5
882.121	2732.5
882.363	2794.5
882.605	2843.5
882.846	2812.5
883.088	2799.5
883.329	2769.5
883.571	2761.5
883.812	2824.5
884.053	2880.5
884.295	2986.5
884.536	3076.5
884.777	3035.5
885.018	3026.5
885.259	3024.5
885.5	2926.5
885.742	3234.5
885.982	2968.5
886.223	2865.5
886.464	2857.5
886.705	2796.5
886.946	2787.5
887.187	2681.5
887.428	2750.5
887.668	2661.5
887.909	2618.5
888.15	2540.5
888.39	2598.5
888.631	2666.5
888.871	2580.5
889.111	2531.5
889.352	2520.5
889.592	2498.5
889.833	2505.5
890.073	2496.5
890.313	2540.5
890.553	2432.5
890.793	2432.5
891.033	2455.5
891.273	2417.5
891.513	2430.5
891.753	2446.5
891.993	2409.5
892.233	2448.5
892.473	2512.5
892.713	2447.5
892.952	2382.5
893.192	2468.5
893.432	2444.5
893.671	2479.5
893.911	2463.5
894.15	2419.5
894.39	2360.5
894.629	2358.5
894.869	2400.5
895.108	2341.5
895.347	2349.5
895.587	2395.5
895.826	2335.5
896.065	2342.5
896.304	2359.5
896.543	2388.5
896.782	2285.5
897.021	2369.5
897.26	2350.5
897.499	2401.5
897.738	2404.5
897.977	2310.5
898.216	2333.5
898.454	2295.5
898.693	2254.5
898.932	2311.5
899.17	2235.5
899.409	2268.5
899.647	2250.5
899.886	2208.5
900.124	2270.5
900.363	2211.5
900.601	2292.5
900.839	2292.5
901.078	2281.5
901.316	2287.5
901.554	2322.5
901.792	2338.5
902.03	2245.5
902.268	2295.5
902.506	2350.5
902.744	2293.5
902.982	2289.5
903.22	2189.5
903.458	2181.5
903.695	2186.5
903.933	2188.5
904.171	2076.5
904.409	2084.5
904.646	2110.5
904.884	2060.5
905.121	2079.5
905.359	2041.5
905.596	2003.5
905.833	1955.5
906.071	1975.5
906.308	2001.5
906.545	1962.5
906.783	1921.5
907.02	1986.5
907.257	1900.5
907.494	1935.5
907.731	1956.5
907.968	1961.5
908.205	1913.5
908.442	1898.5
908.679	1923.5
908.915	1910.5
909.152	1898.5
909.389	1848.5
909.626	1832.5
909.862	1802.5
910.099	1833.5
910.335	1869.5
910.572	1770.5
910.808	1794.5
911.045	1829.5
911.281	1808.5
911.518	1842.5
911.754	1784.5
911.99	1797.5
912.226	1768.5
912.463	1721.5
912.699	1729.5
912.935	1759.5
913.171	1719.5
913.407	1700.5
913.643	1751.5
913.879	1719.5
914.114	1690.5
914.35	1665.5
914.586	1666.5
914.822	1653.5
915.057	1727.5
915.293	1571.5
915.529	1619.5
915.764	1694.5
916	1660.5
916.235	1657.5
916.471	1653.5
916.706	1594.5
916.941	1609.5
917.177	1597.5
917.412	1665.5
917.647	1638.5
917.882	1607.5
918.117	1645.5
918.352	1628.5
918.588	1695.5
918.823	1614.5
919.057	1575.5
919.292	1492.5
919.527	1633.5
919.762	1555.5
919.997	1588.5
920.232	1537.5
920.466	1552.5
920.701	1460.5
920.935	1546.5
921.17	1471.5
921.405	1464.5
921.639	1522.5
921.873	1479.5
922.108	1541.5
922.342	1509.5
922.576	1451.5
922.811	1462.5
923.045	1512.5
923.279	1515.5
923.513	1379.5
923.747	1513.5
923.981	1453.5
924.215	1430.5
924.449	1469.5
924.683	1377.5
924.917	1399.5
925.151	1412.5
925.385	1464.5
925.618	1447.5
925.852	1427.5
926.086	1359.5
926.319	1431.5
926.553	1426.5
926.786	1409.5
927.02	1381.5
927.253	1445.5
927.486	1451.5
927.72	1373.5
927.953	1436.5
928.186	1370.5
928.42	1396.5
928.653	1347.5
928.886	1363.5
929.119	1390.5
929.352	1374.5
929.585	1376.5
929.818	1340.5
930.051	1374.5
930.284	1382.5
930.516	1291.5
930.749	1294.5
930.982	1355.5
931.215	1335.5
931.447	1321.5
931.68	1309.5
931.912	1309.5
932.145	1278.5
932.377	1325.5
932.61	1422.5
932.842	1233.5
933.074	1329.5
933.307	1269.5
933.539	1333.5
933.771	1332.5
934.003	1316.5
934.236	1383.5
934.468	1378.5
934.7	1306.5
934.932	1332.5
935.164	1271.5
935.395	1260.5
935.627	1306.5
935.859	1302.5
936.091	1251.5
936.323	1323.5
936.554	1331.5
936.786	1290.5
937.017	1247.5
937.249	1308.5
937.481	1206.5
937.712	1307.5
937.943	1274.5
938.175	1264.5
938.406	1278.5
938.637	1315.5
938.869	1249.5
939.1	1272.5
939.331	1247.5
939.562	1300.5
939.793	1273.5
940.024	1302.5
940.255	1288.5
940.486	1259.5
940.717	1254.5
940.948	1247.5
941.179	1204.5
941.409	1241.5
941.64	1242.5
941.871	1251.5
942.102	1199.5
942.332	1235.5
942.563	1280.5
942.793	1231.5
943.024	1199.5
943.254	1234.5
943.484	1301.5
943.715	1269.5
943.945	1240.5
944.175	1182.5
944.405	1153.5
944.636	1214.5
944.866	1249.5
945.096	1243.5
945.326	1159.5
945.556	1250.5
945.786	1235.5
946.016	1201.5
946.245	1160.5
946.475	1170.5
946.705	1194.5
946.935	1210.5
947.164	1204.5
947.394	1154.5
947.624	1194.5
947.853	1202.5
948.083	1198.5
948.312	1136.5
948.542	1099.5
948.771	1108.5
949	1127.5
949.23	1167.5
949.459	1151.5
949.688	1200.5
949.917	1179.5
950.146	1178.5
950.375	1207.5
950.604	1139.5
950.833	1207.5
951.062	1204.5
951.291	1164.5
951.52	1140.5
951.749	1150.5
951.978	1098.5
952.206	1134.5
952.435	1160.5
952.664	1151.5
952.892	1170.5
953.121	1149.5
953.349	1178.5
953.578	1162.5
953.806	1130.5
954.035	1097.5
954.263	1105.5
954.491	1071.5
954.719	1156.5
954.948	1103.5
955.176	1109.5
955.404	1027.5
955.632	1107.5
955.86	1114.5
956.088	1117.5
956.316	1141.5
956.544	1164.5
956.772	1083.5
956.999	1089.5
957.227	1188.5
957.455	1072.5
957.683	1075.5
957.91	1055.5
958.138	1072.5
958.365	1087.5
958.593	1070.5
958.82	1024.5
959.048	1093.5
959.275	1073.5
959.502	1068.5
959.73	1048.5
959.957	1114.5
960.184	1154.5
960.411	1087.5
960.638	1158.5
960.865	1093.5
961.092	1100.5
961.319	1001.5
961.546	1091.5
961.773	1120.5
962	1069.5
962.227	1101.5
962.454	1064.5
962.68	1077.5
962.907	1090.5
963.134	1026.5
963.36	1061.5
963.587	1098.5
963.813	1026.5
964.04	1075.5
964.266	1012.5
964.493	1118.5
964.719	1066.5
964.945	1116.5
965.171	1009.5
965.398	1056.5
965.624	1076.5
965.85	998.5
966.076	1006.5
966.302	1046.5
966.528	1023.5
966.754	1047.5
966.98	1032.5
967.206	1053.5
967.431	978.5
967.657	1053.5
967.883	1060.5
968.109	1022.5
968.334	997.5
968.56	982.5
968.785	1002.5
969.011	974.5
969.236	1028.5
969.462	980.5
969.687	986.5
969.912	1022.5
970.138	1048.5
970.363	980.5
970.588	1024.5
970.813	989.5
971.038	962.5
971.263	1004.5
971.488	1003.5
971.713	1029.5
971.938	1010.5
972.163	946.5
972.388	967.5
972.613	953.5
972.838	994.5
973.062	980.5
973.287	985.5
973.512	922.5
973.736	958.5
973.961	946.5
974.185	943.5
974.41	996.5
974.634	916.5
974.858	933.5
975.083	982.5
975.307	976.5
975.531	934.5
975.755	878.5
975.98	909.5
976.204	840.5
976.428	870.5
976.652	869.5
976.876	861.5
977.1	900.5
977.324	873.5
977.547	941.5
977.771	932.5
977.995	894.5
978.219	849.5
978.442	984.5
978.666	901.5
978.89	902.5
979.113	919.5
979.337	906.5
979.56	859.5
979.783	958.5
980.007	856.5
980.23	907.5
980.453	859.5
980.677	908.5
980.9	892.5
981.123	808.5
981.346	911.5
981.569	897.5
981.792	932.5
982.015	869.5
982.238	849.5
982.461	878.5
982.684	855.5
982.907	839.5
983.129	837.5
983.352	884.5
983.575	869.5
983.797	856.5
984.02	817.5
984.242	863.5
984.465	853.5
984.687	880.5
984.91	921.5
985.132	894.5
985.354	908.5
985.577	871.5
985.799	869.5
986.021	779.5
986.243	822.5
986.465	890.5
986.687	889.5
986.909	928.5
987.131	893.5
987.353	841.5
987.575	880.5
987.797	842.5
988.019	783.5
988.241	856.5
988.462	800.5
988.684	881.5
988.906	901.5
989.127	931.5
989.349	817.5
989.57	864.5
989.792	895.5
990.013	905.5
990.234	915.5
990.456	946.5
990.677	909.5
990.898	854.5
991.119	882.5
991.341	904.5
991.562	831.5
991.783	878.5
992.004	817.5
992.225	802.5
992.446	884.5
992.667	809.5
992.887	880.5
993.108	751.5
993.329	924.5
993.55	860.5
993.77	802.5
993.991	826.5
994.212	860.5
994.432	868.5
994.653	859.5
994.873	873.5
995.093	764.5
995.314	805.5
995.534	869.5
995.754	884.5
995.975	909.5
996.195	819.5
996.415	871.5
996.635	849.5
996.855	857.5
997.075	825.5
997.295	822.5
997.515	834.5
997.735	878.5
997.955	836.5
998.174	849.5
998.394	819.5
998.614	856.5
998.834	821.5
999.053	882.5
999.273	847.5
999.492	907.5
999.712	855.5
999.931	814.5
1000.151	855.5
1000.37	853.5
1000.589	930.5
1000.809	831.5
1001.028	976.5
1001.247	899.5
1001.466	807.5
1001.685	951.5
1001.904	910.5
1002.123	883.5
1002.342	883.5
1002.561	857.5
1002.78	886.5
1002.999	972.5
1003.218	878.5
1003.436	875.5
1003.655	949.5
1003.874	885.5
1004.092	882.5
1004.311	945.5
1004.53	912.5
1004.748	986.5
1004.966	897.5
1005.185	961.5
1005.403	969.5
1005.622	924.5
1005.84	1000.5
1006.058	899.5
1006.276	947.5
1006.494	1455.5
1006.712	929.5
1006.931	989.5
1007.149	899.5
1007.367	902.5
1007.584	935.5
1007.802	947.5
1008.02	912.5
1008.238	992.5
1008.456	992.5
1008.673	856.5
1008.891	973.5
1009.109	922.5
1009.326	956.5
1009.544	1027.5
1009.761	940.5
1009.979	999.5
1010.196	986.5
1010.413	1073.5
1010.631	1075.5
1010.848	1087.5
1011.065	1100.5
1011.282	1039.5
1011.5	974.5
1011.717	1091.5
1011.934	1040.5
1012.151	1091.5
1012.368	1062.5
1012.585	1026.5
1012.801	1054.5
1013.018	1017.5
1013.235	985.5
1013.452	1024.5
1013.669	1007.5
1013.885	1009.5
1014.102	1021.5
1014.318	1001.5
1014.535	952.5
1014.751	997.5
1014.968	1005.5
1015.184	1059.5
1015.401	940.5
1015.617	1026.5
1015.833	959.5
1016.049	961.5
1016.266	964.5
1016.482	953.5
1016.698	908.5
1016.914	967.5
1017.13	928.5
1017.346	902.5
1017.562	959.5
1017.778	913.5
1017.993	891.5
1018.209	964.5
1018.425	945.5
1018.641	872.5
1018.856	882.5
1019.072	883.5
1019.288	960.5
1019.503	882.5
1019.719	829.5
1019.934	844.5
1020.149	920.5
1020.365	861.5
1020.58	835.5
1020.795	888.5
1021.011	822.5
1021.226	828.5
1021.441	865.5
1021.656	799.5
1021.871	728.5
1022.086	750.5
1022.301	738.5
1022.516	747.5
1022.731	804.5
1022.946	721.5
1023.16	710.5
1023.375	680.5
1023.59	683.5
1023.804	662.5
1024.019	766.5
1024.234	651.5
1024.448	676.5
1024.663	628.5
1024.877	643.5
1025.092	679.5
1025.306	652.5
1025.52	588.5
1025.734	691.5
1025.949	631.5
1026.163	605.5
1026.377	533.5
1026.591	590.5
1026.805	547.5
1027.019	521.5
1027.233	489.5
1027.447	456.5
1027.661	566.5
1027.875	510.5
1028.088	523.5
1028.302	463.5
1028.516	463.5
1028.73	469.5
1028.943	456.5
1029.157	433.5
1029.37	415.5
1029.584	-4.5
1029.797	-1.5
1030.011	-1.5
1030.224	-3.5
