Data from QEP037381__145__10-27-32-734.txt Node

Date: Wed Dec 21 10:27:32 EST 2022
User: dcclab
Spectrometer: QEP03738
Trigger mode: 4
Integration Time (sec): 1.000000E1
Scans to average: 1
Electric dark correction enabled: true
Nonlinearity correction enabled: false
Boxcar width: 0
XAxis mode: Wavelengths
Number of Pixels in Spectrum: 1044
>>>>>Begin Spectral Data<<<<<
784.041	12.75
784.3	1.75
784.558	-4.25
784.817	-3.25
785.075	76821.75
785.334	13305.75
785.592	6202.75
785.851	4289.75
786.109	3259.75
786.368	2561.75
786.626	2064.75
786.884	1738.75
787.143	1463.75
787.401	1222.75
787.659	1091.75
787.917	954.75
788.175	891.75
788.433	775.75
788.691	709.75
788.949	660.75
789.207	647.75
789.465	535.75
789.723	555.75
789.98	501.75
790.238	553.75
790.496	493.75
790.753	484.75
791.011	532.75
791.268	468.75
791.526	466.75
791.783	490.75
792.041	466.75
792.298	378.75
792.556	441.75
792.813	417.75
793.07	408.75
793.327	393.75
793.584	462.75
793.841	392.75
794.099	413.75
794.356	474.75
794.613	372.75
794.869	419.75
795.126	359.75
795.383	358.75
795.64	372.75
795.897	341.75
796.153	397.75
796.41	371.75
796.667	360.75
796.923	370.75
797.18	368.75
797.436	387.75
797.693	344.75
797.949	406.75
798.206	430.75
798.462	322.75
798.718	387.75
798.974	365.75
799.231	405.75
799.487	385.75
799.743	391.75
799.999	425.75
800.255	390.75
800.511	382.75
800.767	398.75
801.023	373.75
801.279	385.75
801.534	407.75
801.79	413.75
802.046	400.75
802.302	465.75
802.557	482.75
802.813	510.75
803.068	515.75
803.324	629.75
803.579	763.75
803.835	948.75
804.09	1251.75
804.345	1536.75
804.601	1880.75
804.856	2281.75
805.111	2592.75
805.366	2751.75
805.621	2949.75
805.876	3038.75
806.131	3103.75
806.386	3129.75
806.641	3171.75
806.896	3218.75
807.151	3304.75
807.406	3276.75
807.661	3387.75
807.915	3423.75
808.17	3526.75
808.425	3493.75
808.679	3557.75
808.934	3647.75
809.188	3610.75
809.443	3654.75
809.697	3746.75
809.951	3703.75
810.206	3722.75
810.46	3801.75
810.714	3814.75
810.968	3916.75
811.223	3820.75
811.477	3958.75
811.731	4000.75
811.985	3953.75
812.239	3888.75
812.493	3931.75
812.747	4018.75
813	3940.75
813.254	4025.75
813.508	4111.75
813.762	4058.75
814.015	4088.75
814.269	4136.75
814.522	4195.75
814.776	4217.75
815.03	4269.75
815.283	4293.75
815.536	4359.75
815.79	4417.75
816.043	4484.75
816.296	4537.75
816.55	4552.75
816.803	4659.75
817.056	4784.75
817.309	4761.75
817.562	4824.75
817.815	4856.75
818.068	4833.75
818.321	4894.75
818.574	4910.75
818.827	5059.75
819.079	5083.75
819.332	5300.75
819.585	5270.75
819.838	5387.75
820.09	5379.75
820.343	5439.75
820.595	5434.75
820.848	5516.75
821.1	5536.75
821.353	5499.75
821.605	5471.75
821.857	5587.75
822.11	5454.75
822.362	5438.75
822.614	5462.75
822.866	5520.75
823.118	5463.75
823.37	5615.75
823.622	5580.75
823.874	5602.75
824.126	5662.75
824.378	5553.75
824.63	5632.75
824.882	5679.75
825.134	5600.75
825.385	5652.75
825.637	5566.75
825.888	5542.75
826.14	5586.75
826.392	5561.75
826.643	5520.75
826.895	5556.75
827.146	5495.75
827.397	5453.75
827.649	5492.75
827.9	5388.75
828.151	5457.75
828.402	5470.75
828.653	5501.75
828.905	5499.75
829.156	5554.75
829.407	5472.75
829.658	5478.75
829.909	5590.75
830.159	5560.75
830.41	5534.75
830.661	5521.75
830.912	5474.75
831.162	5411.75
831.413	5431.75
831.664	5518.75
831.914	5455.75
832.165	5446.75
832.415	5449.75
832.666	5473.75
832.916	5529.75
833.167	5405.75
833.417	5490.75
833.667	5466.75
833.917	5457.75
834.168	5497.75
834.418	5482.75
834.668	5453.75
834.918	5367.75
835.168	5426.75
835.418	5354.75
835.668	5452.75
835.918	5406.75
836.167	5390.75
836.417	5308.75
836.667	5355.75
836.917	5394.75
837.166	5276.75
837.416	5396.75
837.666	5356.75
837.915	5298.75
838.165	5300.75
838.414	5227.75
838.663	5157.75
838.913	5228.75
839.162	5173.75
839.411	5246.75
839.661	5228.75
839.91	5245.75
840.159	5173.75
840.408	5257.75
840.657	5240.75
840.906	5217.75
841.155	5268.75
841.404	5215.75
841.653	5236.75
841.902	5232.75
842.15	5287.75
842.399	5281.75
842.648	5269.75
842.897	5259.75
843.145	5169.75
843.394	5105.75
843.642	5163.75
843.891	5136.75
844.139	5134.75
844.388	5059.75
844.636	5027.75
844.884	5107.75
845.133	4987.75
845.381	5043.75
845.629	5086.75
845.877	5010.75
846.125	5011.75
846.373	5088.75
846.621	4990.75
846.869	5038.75
847.117	4998.75
847.365	4985.75
847.613	4953.75
847.861	5026.75
848.108	5038.75
848.356	4965.75
848.604	4911.75
848.851	4967.75
849.099	5017.75
849.346	4987.75
849.594	5025.75
849.841	5068.75
850.089	5043.75
850.336	5040.75
850.583	5096.75
850.831	5057.75
851.078	5102.75
851.325	5065.75
851.572	5184.75
851.819	5138.75
852.066	4935.75
852.313	4778.75
852.56	4774.75
852.807	4758.75
853.054	4725.75
853.301	4746.75
853.548	4774.75
853.794	4923.75
854.041	4857.75
854.288	4877.75
854.534	4998.75
854.781	4881.75
855.028	4803.75
855.274	4908.75
855.52	4808.75
855.767	4760.75
856.013	4800.75
856.26	5103.75
856.506	4799.75
856.752	4729.75
856.998	4738.75
857.244	4702.75
857.49	4822.75
857.736	4803.75
857.982	4809.75
858.228	4778.75
858.474	4718.75
858.72	4793.75
858.966	4706.75
859.212	4630.75
859.458	4602.75
859.703	4605.75
859.949	4453.75
860.195	4538.75
860.44	4491.75
860.686	4433.75
860.931	4504.75
861.177	4381.75
861.422	4457.75
861.667	4391.75
861.913	4427.75
862.158	4437.75
862.403	4463.75
862.648	4507.75
862.893	4508.75
863.138	4495.75
863.384	4417.75
863.629	4531.75
863.873	4463.75
864.118	4451.75
864.363	4368.75
864.608	4438.75
864.853	4396.75
865.098	4354.75
865.342	4367.75
865.587	4332.75
865.832	4396.75
866.076	4373.75
866.321	4313.75
866.565	4323.75
866.81	4236.75
867.054	4264.75
867.298	4231.75
867.543	4269.75
867.787	4325.75
868.031	4318.75
868.275	4237.75
868.519	4223.75
868.764	4287.75
869.008	4210.75
869.252	4284.75
869.496	4253.75
869.739	4245.75
869.983	4304.75
870.227	4267.75
870.471	4274.75
870.715	4282.75
870.958	4324.75
871.202	4266.75
871.446	4284.75
871.689	4262.75
871.933	4296.75
872.176	4285.75
872.42	4258.75
872.663	4242.75
872.906	4296.75
873.15	4256.75
873.393	4175.75
873.636	4266.75
873.879	4148.75
874.122	4177.75
874.366	4087.75
874.609	4089.75
874.852	4019.75
875.095	4048.75
875.337	4040.75
875.58	3976.75
875.823	3986.75
876.066	4026.75
876.309	4008.75
876.551	3943.75
876.794	3860.75
877.037	3964.75
877.279	3928.75
877.522	3913.75
877.764	3977.75
878.007	3944.75
878.249	3874.75
878.491	3921.75
878.734	3926.75
878.976	3911.75
879.218	3864.75
879.46	3926.75
879.702	3828.75
879.945	3794.75
880.187	3734.75
880.429	3720.75
880.671	3722.75
880.912	3732.75
881.154	3737.75
881.396	3640.75
881.638	3678.75
881.88	3628.75
882.121	3657.75
882.363	3657.75
882.605	3705.75
882.846	3705.75
883.088	3700.75
883.329	3667.75
883.571	3648.75
883.812	3746.75
884.053	3785.75
884.295	3858.75
884.536	3978.75
884.777	3947.75
885.018	3928.75
885.259	3939.75
885.5	3839.75
885.742	4143.75
885.982	3881.75
886.223	3739.75
886.464	3734.75
886.705	3641.75
886.946	3739.75
887.187	3596.75
887.428	3611.75
887.668	3540.75
887.909	3463.75
888.15	3428.75
888.39	3417.75
888.631	3474.75
888.871	3412.75
889.111	3368.75
889.352	3413.75
889.592	3341.75
889.833	3270.75
890.073	3277.75
890.313	3334.75
890.553	3212.75
890.793	3246.75
891.033	3200.75
891.273	3172.75
891.513	3222.75
891.753	3260.75
891.993	3189.75
892.233	3227.75
892.473	3253.75
892.713	3237.75
892.952	3212.75
893.192	3229.75
893.432	3165.75
893.671	3265.75
893.911	3267.75
894.15	3186.75
894.39	3159.75
894.629	3124.75
894.869	3169.75
895.108	3107.75
895.347	3101.75
895.587	3124.75
895.826	3080.75
896.065	3035.75
896.304	3119.75
896.543	3128.75
896.782	3004.75
897.021	3073.75
897.26	3088.75
897.499	3131.75
897.738	3141.75
897.977	3075.75
898.216	3039.75
898.454	3016.75
898.693	2979.75
898.932	2967.75
899.17	2944.75
899.409	2992.75
899.647	2963.75
899.886	2963.75
900.124	2969.75
900.363	2924.75
900.601	3003.75
900.839	2937.75
901.078	2995.75
901.316	2949.75
901.554	2983.75
901.792	3006.75
902.03	2990.75
902.268	2997.75
902.506	3031.75
902.744	2978.75
902.982	3013.75
903.22	2887.75
903.458	2908.75
903.695	2927.75
903.933	2871.75
904.171	2804.75
904.409	2764.75
904.646	2832.75
904.884	2683.75
905.121	2740.75
905.359	2663.75
905.596	2634.75
905.833	2605.75
906.071	2591.75
906.308	2650.75
906.545	2579.75
906.783	2537.75
907.02	2565.75
907.257	2536.75
907.494	2541.75
907.731	2561.75
907.968	2572.75
908.205	2512.75
908.442	2533.75
908.679	2505.75
908.915	2515.75
909.152	2497.75
909.389	2405.75
909.626	2427.75
909.862	2428.75
910.099	2430.75
910.335	2457.75
910.572	2354.75
910.808	2376.75
911.045	2407.75
911.281	2368.75
911.518	2414.75
911.754	2376.75
911.99	2368.75
912.226	2332.75
912.463	2310.75
912.699	2312.75
912.935	2285.75
913.171	2285.75
913.407	2257.75
913.643	2295.75
913.879	2253.75
914.114	2227.75
914.35	2179.75
914.586	2169.75
914.822	2188.75
915.057	2210.75
915.293	2116.75
915.529	2137.75
915.764	2211.75
916	2168.75
916.235	2151.75
916.471	2158.75
916.706	2083.75
916.941	2127.75
917.177	2121.75
917.412	2159.75
917.647	2149.75
917.882	2108.75
918.117	2168.75
918.352	2150.75
918.588	2177.75
918.823	2092.75
919.057	2074.75
919.292	1967.75
919.527	2078.75
919.762	2019.75
919.997	2081.75
920.232	2007.75
920.466	2032.75
920.701	1928.75
920.935	1969.75
921.17	1934.75
921.405	1910.75
921.639	1989.75
921.873	1938.75
922.108	1929.75
922.342	1963.75
922.576	1913.75
922.811	1906.75
923.045	1904.75
923.279	1966.75
923.513	1825.75
923.747	1910.75
923.981	1900.75
924.215	1833.75
924.449	1852.75
924.683	1814.75
924.917	1834.75
925.151	1827.75
925.385	1891.75
925.618	1826.75
925.852	1842.75
926.086	1773.75
926.319	1838.75
926.553	1820.75
926.786	1837.75
927.02	1808.75
927.253	1868.75
927.486	1840.75
927.72	1776.75
927.953	1861.75
928.186	1803.75
928.42	1857.75
928.653	1778.75
928.886	1776.75
929.119	1805.75
929.352	1797.75
929.585	1763.75
929.818	1752.75
930.051	1766.75
930.284	1764.75
930.516	1702.75
930.749	1714.75
930.982	1774.75
931.215	1735.75
931.447	1668.75
931.68	1696.75
931.912	1683.75
932.145	1678.75
932.377	1691.75
932.61	1826.75
932.842	1640.75
933.074	1689.75
933.307	1658.75
933.539	1758.75
933.771	1716.75
934.003	1664.75
934.236	1746.75
934.468	1777.75
934.7	1682.75
934.932	1722.75
935.164	1671.75
935.395	1654.75
935.627	1672.75
935.859	1684.75
936.091	1611.75
936.323	1697.75
936.554	1711.75
936.786	1654.75
937.017	1612.75
937.249	1635.75
937.481	1598.75
937.712	1640.75
937.943	1623.75
938.175	1625.75
938.406	1634.75
938.637	1698.75
938.869	1580.75
939.1	1648.75
939.331	1608.75
939.562	1661.75
939.793	1653.75
940.024	1657.75
940.255	1669.75
940.486	1595.75
940.717	1616.75
940.948	1601.75
941.179	1569.75
941.409	1583.75
941.64	1575.75
941.871	1583.75
942.102	1574.75
942.332	1583.75
942.563	1617.75
942.793	1613.75
943.024	1514.75
943.254	1590.75
943.484	1625.75
943.715	1605.75
943.945	1617.75
944.175	1556.75
944.405	1520.75
944.636	1550.75
944.866	1594.75
945.096	1575.75
945.326	1525.75
945.556	1592.75
945.786	1599.75
946.016	1534.75
946.245	1518.75
946.475	1560.75
946.705	1514.75
946.935	1526.75
947.164	1536.75
947.394	1491.75
947.624	1498.75
947.853	1524.75
948.083	1511.75
948.312	1502.75
948.542	1419.75
948.771	1438.75
949	1466.75
949.23	1446.75
949.459	1478.75
949.688	1535.75
949.917	1474.75
950.146	1494.75
950.375	1553.75
950.604	1449.75
950.833	1531.75
951.062	1520.75
951.291	1481.75
951.52	1460.75
951.749	1470.75
951.978	1448.75
952.206	1444.75
952.435	1469.75
952.664	1481.75
952.892	1488.75
953.121	1461.75
953.349	1514.75
953.578	1475.75
953.806	1478.75
954.035	1418.75
954.263	1454.75
954.491	1397.75
954.719	1430.75
954.948	1408.75
955.176	1405.75
955.404	1328.75
955.632	1431.75
955.86	1399.75
956.088	1422.75
956.316	1441.75
956.544	1441.75
956.772	1408.75
956.999	1393.75
957.227	1442.75
957.455	1354.75
957.683	1378.75
957.91	1335.75
958.138	1329.75
958.365	1385.75
958.593	1373.75
958.82	1284.75
959.048	1373.75
959.275	1359.75
959.502	1332.75
959.73	1341.75
959.957	1362.75
960.184	1423.75
960.411	1370.75
960.638	1453.75
960.865	1367.75
961.092	1396.75
961.319	1261.75
961.546	1382.75
961.773	1395.75
962	1356.75
962.227	1387.75
962.454	1361.75
962.68	1336.75
962.907	1346.75
963.134	1306.75
963.36	1336.75
963.587	1366.75
963.813	1271.75
964.04	1354.75
964.266	1271.75
964.493	1372.75
964.719	1323.75
964.945	1345.75
965.171	1253.75
965.398	1327.75
965.624	1355.75
965.85	1260.75
966.076	1285.75
966.302	1312.75
966.528	1263.75
966.754	1307.75
966.98	1305.75
967.206	1297.75
967.431	1218.75
967.657	1332.75
967.883	1292.75
968.109	1300.75
968.334	1237.75
968.56	1242.75
968.785	1245.75
969.011	1248.75
969.236	1287.75
969.462	1226.75
969.687	1240.75
969.912	1274.75
970.138	1299.75
970.363	1236.75
970.588	1269.75
970.813	1227.75
971.038	1217.75
971.263	1250.75
971.488	1218.75
971.713	1264.75
971.938	1270.75
972.163	1155.75
972.388	1198.75
972.613	1218.75
972.838	1222.75
973.062	1188.75
973.287	1192.75
973.512	1148.75
973.736	1190.75
973.961	1178.75
974.185	1150.75
974.41	1223.75
974.634	1122.75
974.858	1124.75
975.083	1193.75
975.307	1213.75
975.531	1147.75
975.755	1105.75
975.98	1104.75
976.204	1070.75
976.428	1074.75
976.652	1087.75
976.876	1080.75
977.1	1138.75
977.324	1083.75
977.547	1105.75
977.771	1142.75
977.995	1126.75
978.219	1063.75
978.442	1177.75
978.666	1113.75
978.89	1111.75
979.113	1119.75
979.337	1110.75
979.56	1055.75
979.783	1142.75
980.007	1042.75
980.23	1089.75
980.453	1052.75
980.677	1116.75
980.9	1104.75
981.123	990.75
981.346	1097.75
981.569	1057.75
981.792	1106.75
982.015	1057.75
982.238	1029.75
982.461	1074.75
982.684	1030.75
982.907	1013.75
983.129	1043.75
983.352	1094.75
983.575	1062.75
983.797	1086.75
984.02	1032.75
984.242	1017.75
984.465	1040.75
984.687	1061.75
984.91	1089.75
985.132	1060.75
985.354	1073.75
985.577	1048.75
985.799	1040.75
986.021	977.75
986.243	1005.75
986.465	1029.75
986.687	1091.75
986.909	1114.75
987.131	1045.75
987.353	1022.75
987.575	1058.75
987.797	1029.75
988.019	979.75
988.241	1028.75
988.462	978.75
988.684	1036.75
988.906	1081.75
989.127	1097.75
989.349	961.75
989.57	1021.75
989.792	1083.75
990.013	1066.75
990.234	1090.75
990.456	1092.75
990.677	1088.75
990.898	1021.75
991.119	1030.75
991.341	1064.75
991.562	1004.75
991.783	1026.75
992.004	968.75
992.225	954.75
992.446	1033.75
992.667	943.75
992.887	1032.75
993.108	930.75
993.329	1054.75
993.55	989.75
993.77	978.75
993.991	961.75
994.212	1008.75
994.432	988.75
994.653	1013.75
994.873	1001.75
995.093	896.75
995.314	938.75
995.534	1021.75
995.754	1022.75
995.975	1051.75
996.195	957.75
996.415	1010.75
996.635	990.75
996.855	983.75
997.075	989.75
997.295	962.75
997.515	962.75
997.735	1027.75
997.955	981.75
998.174	956.75
998.394	950.75
998.614	1000.75
998.834	937.75
999.053	1029.75
999.273	988.75
999.492	1045.75
999.712	1009.75
999.931	954.75
1000.151	1006.75
1000.37	979.75
1000.589	1053.75
1000.809	969.75
1001.028	1091.75
1001.247	1010.75
1001.466	930.75
1001.685	1069.75
1001.904	1044.75
1002.123	1003.75
1002.342	1028.75
1002.561	987.75
1002.78	1007.75
1002.999	1046.75
1003.218	1006.75
1003.436	1012.75
1003.655	1048.75
1003.874	987.75
1004.092	996.75
1004.311	1047.75
1004.53	998.75
1004.748	1081.75
1004.966	992.75
1005.185	1070.75
1005.403	1050.75
1005.622	1028.75
1005.84	1112.75
1006.058	1019.75
1006.276	1040.75
1006.494	1547.75
1006.712	1022.75
1006.931	1086.75
1007.149	1002.75
1007.367	1026.75
1007.584	1052.75
1007.802	1060.75
1008.02	1026.75
1008.238	1112.75
1008.456	1096.75
1008.673	965.75
1008.891	1060.75
1009.109	1029.75
1009.326	1069.75
1009.544	1130.75
1009.761	1031.75
1009.979	1116.75
1010.196	1097.75
1010.413	1172.75
1010.631	1196.75
1010.848	1206.75
1011.065	1223.75
1011.282	1178.75
1011.5	1100.75
1011.717	1225.75
1011.934	1166.75
1012.151	1210.75
1012.368	1178.75
1012.585	1126.75
1012.801	1195.75
1013.018	1144.75
1013.235	1118.75
1013.452	1127.75
1013.669	1134.75
1013.885	1105.75
1014.102	1149.75
1014.318	1110.75
1014.535	1080.75
1014.751	1130.75
1014.968	1137.75
1015.184	1159.75
1015.401	1083.75
1015.617	1124.75
1015.833	1074.75
1016.049	1093.75
1016.266	1070.75
1016.482	1063.75
1016.698	998.75
1016.914	1076.75
1017.13	1014.75
1017.346	1021.75
1017.562	1094.75
1017.778	1016.75
1017.993	1003.75
1018.209	1038.75
1018.425	1024.75
1018.641	994.75
1018.856	973.75
1019.072	1001.75
1019.288	1050.75
1019.503	1010.75
1019.719	934.75
1019.934	930.75
1020.149	1021.75
1020.365	969.75
1020.58	935.75
1020.795	979.75
1021.011	920.75
1021.226	917.75
1021.441	958.75
1021.656	880.75
1021.871	812.75
1022.086	824.75
1022.301	825.75
1022.516	828.75
1022.731	885.75
1022.946	793.75
1023.16	797.75
1023.375	767.75
1023.59	750.75
1023.804	712.75
1024.019	834.75
1024.234	714.75
1024.448	755.75
1024.663	678.75
1024.877	713.75
1025.092	721.75
1025.306	734.75
1025.52	651.75
1025.734	753.75
1025.949	675.75
1026.163	647.75
1026.377	603.75
1026.591	649.75
1026.805	589.75
1027.019	596.75
1027.233	551.75
1027.447	507.75
1027.661	613.75
1027.875	551.75
1028.088	554.75
1028.302	505.75
1028.516	491.75
1028.73	528.75
1028.943	519.75
1029.157	466.75
1029.37	451.75
1029.584	-5.25
1029.797	-2.25
1030.011	-1.25
1030.224	1.75
