Data from QEP037381__124__10-24-02-733.txt Node

Date: Wed Dec 21 10:24:02 EST 2022
User: dcclab
Spectrometer: QEP03738
Trigger mode: 4
Integration Time (sec): 1.000000E1
Scans to average: 1
Electric dark correction enabled: true
Nonlinearity correction enabled: false
Boxcar width: 0
XAxis mode: Wavelengths
Number of Pixels in Spectrum: 1044
>>>>>Begin Spectral Data<<<<<
784.041	14.25
784.3	3.25
784.558	-5.75
784.817	-2.75
785.075	79467.25
785.334	13574.25
785.592	6330.25
785.851	4339.25
786.109	3329.25
786.368	2571.25
786.626	2102.25
786.884	1765.25
787.143	1469.25
787.401	1224.25
787.659	1116.25
787.917	957.25
788.175	869.25
788.433	774.25
788.691	724.25
788.949	668.25
789.207	652.25
789.465	544.25
789.723	555.25
789.98	502.25
790.238	534.25
790.496	509.25
790.753	484.25
791.011	519.25
791.268	464.25
791.526	456.25
791.783	473.25
792.041	457.25
792.298	382.25
792.556	445.25
792.813	416.25
793.07	404.25
793.327	396.25
793.584	469.25
793.841	402.25
794.099	413.25
794.356	476.25
794.613	392.25
794.869	418.25
795.126	364.25
795.383	350.25
795.64	380.25
795.897	334.25
796.153	395.25
796.41	368.25
796.667	359.25
796.923	371.25
797.18	361.25
797.436	388.25
797.693	353.25
797.949	412.25
798.206	430.25
798.462	332.25
798.718	393.25
798.974	366.25
799.231	409.25
799.487	389.25
799.743	385.25
799.999	404.25
800.255	389.25
800.511	369.25
800.767	407.25
801.023	379.25
801.279	377.25
801.534	413.25
801.79	435.25
802.046	405.25
802.302	475.25
802.557	483.25
802.813	537.25
803.068	536.25
803.324	662.25
803.579	776.25
803.835	955.25
804.09	1254.25
804.345	1557.25
804.601	1920.25
804.856	2345.25
805.111	2623.25
805.366	2919.25
805.621	3034.25
805.876	3165.25
806.131	3230.25
806.386	3251.25
806.641	3266.25
806.896	3348.25
807.151	3474.25
807.406	3468.25
807.661	3565.25
807.915	3622.25
808.17	3635.25
808.425	3690.25
808.679	3694.25
808.934	3829.25
809.188	3765.25
809.443	3817.25
809.697	3927.25
809.951	3914.25
810.206	3940.25
810.46	4016.25
810.714	4073.25
810.968	4090.25
811.223	4044.25
811.477	4143.25
811.731	4181.25
811.985	4118.25
812.239	4085.25
812.493	4176.25
812.747	4204.25
813	4178.25
813.254	4222.25
813.508	4283.25
813.762	4306.25
814.015	4277.25
814.269	4349.25
814.522	4394.25
814.776	4430.25
815.03	4488.25
815.283	4553.25
815.536	4617.25
815.79	4706.25
816.043	4754.25
816.296	4833.25
816.55	4824.25
816.803	4899.25
817.056	4991.25
817.309	5009.25
817.562	5061.25
817.815	5137.25
818.068	5111.25
818.321	5163.25
818.574	5307.25
818.827	5300.25
819.079	5360.25
819.332	5529.25
819.585	5560.25
819.838	5729.25
820.09	5628.25
820.343	5752.25
820.595	5698.25
820.848	5800.25
821.1	5762.25
821.353	5849.25
821.605	5822.25
821.857	5886.25
822.11	5749.25
822.362	5786.25
822.614	5741.25
822.866	5825.25
823.118	5722.25
823.37	5873.25
823.622	5913.25
823.874	5893.25
824.126	5959.25
824.378	5955.25
824.63	6011.25
824.882	5995.25
825.134	5927.25
825.385	5991.25
825.637	5936.25
825.888	5869.25
826.14	5900.25
826.392	5812.25
826.643	5750.25
826.895	5849.25
827.146	5804.25
827.397	5733.25
827.649	5839.25
827.9	5741.25
828.151	5690.25
828.402	5698.25
828.653	5764.25
828.905	5816.25
829.156	5841.25
829.407	5777.25
829.658	5855.25
829.909	5882.25
830.159	5795.25
830.41	5828.25
830.661	5802.25
830.912	5738.25
831.162	5693.25
831.413	5711.25
831.664	5816.25
831.914	5701.25
832.165	5771.25
832.415	5773.25
832.666	5748.25
832.916	5813.25
833.167	5746.25
833.417	5826.25
833.667	5740.25
833.917	5764.25
834.168	5838.25
834.418	5783.25
834.668	5718.25
834.918	5689.25
835.168	5710.25
835.418	5662.25
835.668	5681.25
835.918	5736.25
836.167	5662.25
836.417	5574.25
836.667	5644.25
836.917	5640.25
837.166	5593.25
837.416	5654.25
837.666	5654.25
837.915	5561.25
838.165	5535.25
838.414	5482.25
838.663	5506.25
838.913	5558.25
839.162	5470.25
839.411	5565.25
839.661	5458.25
839.91	5511.25
840.159	5539.25
840.408	5581.25
840.657	5505.25
840.906	5564.25
841.155	5576.25
841.404	5500.25
841.653	5545.25
841.902	5504.25
842.15	5561.25
842.399	5536.25
842.648	5554.25
842.897	5547.25
843.145	5435.25
843.394	5469.25
843.642	5442.25
843.891	5433.25
844.139	5408.25
844.388	5304.25
844.636	5284.25
844.884	5310.25
845.133	5306.25
845.381	5320.25
845.629	5347.25
845.877	5311.25
846.125	5329.25
846.373	5307.25
846.621	5269.25
846.869	5335.25
847.117	5270.25
847.365	5237.25
847.613	5290.25
847.861	5261.25
848.108	5285.25
848.356	5267.25
848.604	5235.25
848.851	5191.25
849.099	5256.25
849.346	5219.25
849.594	5326.25
849.841	5347.25
850.089	5301.25
850.336	5286.25
850.583	5329.25
850.831	5315.25
851.078	5343.25
851.325	5392.25
851.572	5442.25
851.819	5364.25
852.066	5197.25
852.313	5075.25
852.56	4974.25
852.807	4991.25
853.054	4944.25
853.301	5021.25
853.548	5030.25
853.794	5121.25
854.041	5179.25
854.288	5083.25
854.534	5268.25
854.781	5133.25
855.028	5106.25
855.274	5159.25
855.52	5092.25
855.767	5054.25
856.013	5072.25
856.26	5378.25
856.506	4981.25
856.752	5000.25
856.998	5037.25
857.244	4972.25
857.49	5070.25
857.736	5091.25
857.982	5060.25
858.228	5075.25
858.474	4947.25
858.72	4979.25
858.966	4932.25
859.212	4904.25
859.458	4835.25
859.703	4796.25
859.949	4718.25
860.195	4735.25
860.44	4702.25
860.686	4666.25
860.931	4778.25
861.177	4621.25
861.422	4644.25
861.667	4646.25
861.913	4640.25
862.158	4615.25
862.403	4702.25
862.648	4702.25
862.893	4744.25
863.138	4697.25
863.384	4640.25
863.629	4694.25
863.873	4660.25
864.118	4650.25
864.363	4555.25
864.608	4628.25
864.853	4665.25
865.098	4574.25
865.342	4611.25
865.587	4577.25
865.832	4653.25
866.076	4571.25
866.321	4478.25
866.565	4580.25
866.81	4424.25
867.054	4481.25
867.298	4514.25
867.543	4492.25
867.787	4481.25
868.031	4511.25
868.275	4486.25
868.519	4448.25
868.764	4510.25
869.008	4483.25
869.252	4532.25
869.496	4488.25
869.739	4517.25
869.983	4519.25
870.227	4489.25
870.471	4483.25
870.715	4524.25
870.958	4493.25
871.202	4487.25
871.446	4455.25
871.689	4488.25
871.933	4470.25
872.176	4529.25
872.42	4499.25
872.663	4461.25
872.906	4507.25
873.15	4476.25
873.393	4458.25
873.636	4453.25
873.879	4418.25
874.122	4368.25
874.366	4300.25
874.609	4326.25
874.852	4239.25
875.095	4222.25
875.337	4218.25
875.58	4111.25
875.823	4206.25
876.066	4184.25
876.309	4211.25
876.551	4172.25
876.794	4157.25
877.037	4172.25
877.279	4116.25
877.522	4104.25
877.764	4180.25
878.007	4077.25
878.249	4137.25
878.491	4036.25
878.734	4095.25
878.976	4117.25
879.218	4011.25
879.46	4098.25
879.702	4043.25
879.945	3975.25
880.187	3883.25
880.429	3968.25
880.671	3923.25
880.912	3908.25
881.154	3895.25
881.396	3796.25
881.638	3900.25
881.88	3905.25
882.121	3826.25
882.363	3864.25
882.605	3883.25
882.846	3875.25
883.088	3897.25
883.329	3833.25
883.571	3854.25
883.812	3854.25
884.053	3959.25
884.295	4040.25
884.536	4195.25
884.777	4098.25
885.018	4093.25
885.259	4085.25
885.5	4000.25
885.742	4320.25
885.982	4024.25
886.223	3947.25
886.464	3941.25
886.705	3892.25
886.946	3875.25
887.187	3738.25
887.428	3803.25
887.668	3674.25
887.909	3622.25
888.15	3610.25
888.39	3650.25
888.631	3665.25
888.871	3593.25
889.111	3558.25
889.352	3531.25
889.592	3469.25
889.833	3521.25
890.073	3438.25
890.313	3489.25
890.553	3370.25
890.793	3397.25
891.033	3357.25
891.273	3315.25
891.513	3355.25
891.753	3402.25
891.993	3352.25
892.233	3365.25
892.473	3472.25
892.713	3393.25
892.952	3371.25
893.192	3416.25
893.432	3402.25
893.671	3452.25
893.911	3425.25
894.15	3345.25
894.39	3305.25
894.629	3301.25
894.869	3296.25
895.108	3297.25
895.347	3250.25
895.587	3302.25
895.826	3255.25
896.065	3267.25
896.304	3254.25
896.543	3302.25
896.782	3206.25
897.021	3225.25
897.26	3242.25
897.499	3248.25
897.738	3320.25
897.977	3251.25
898.216	3189.25
898.454	3163.25
898.693	3077.25
898.932	3161.25
899.17	3078.25
899.409	3084.25
899.647	3108.25
899.886	3080.25
900.124	3114.25
900.363	3071.25
900.601	3136.25
900.839	3126.25
901.078	3125.25
901.316	3136.25
901.554	3176.25
901.792	3181.25
902.03	3129.25
902.268	3166.25
902.506	3223.25
902.744	3153.25
902.982	3161.25
903.22	3051.25
903.458	3022.25
903.695	3047.25
903.933	3006.25
904.171	2916.25
904.409	2861.25
904.646	2913.25
904.884	2833.25
905.121	2816.25
905.359	2771.25
905.596	2786.25
905.833	2723.25
906.071	2665.25
906.308	2786.25
906.545	2740.25
906.783	2626.25
907.02	2706.25
907.257	2654.25
907.494	2675.25
907.731	2696.25
907.968	2680.25
908.205	2634.25
908.442	2630.25
908.679	2649.25
908.915	2611.25
909.152	2607.25
909.389	2485.25
909.626	2556.25
909.862	2531.25
910.099	2574.25
910.335	2548.25
910.572	2459.25
910.808	2475.25
911.045	2458.25
911.281	2463.25
911.518	2546.25
911.754	2462.25
911.99	2494.25
912.226	2429.25
912.463	2426.25
912.699	2415.25
912.935	2414.25
913.171	2393.25
913.407	2384.25
913.643	2411.25
913.879	2361.25
914.114	2344.25
914.35	2310.25
914.586	2309.25
914.822	2241.25
915.057	2312.25
915.293	2204.25
915.529	2181.25
915.764	2255.25
916	2266.25
916.235	2229.25
916.471	2262.25
916.706	2174.25
916.941	2214.25
917.177	2183.25
917.412	2267.25
917.647	2268.25
917.882	2217.25
918.117	2232.25
918.352	2216.25
918.588	2283.25
918.823	2177.25
919.057	2160.25
919.292	2069.25
919.527	2188.25
919.762	2085.25
919.997	2137.25
920.232	2083.25
920.466	2102.25
920.701	2015.25
920.935	2033.25
921.17	2031.25
921.405	1971.25
921.639	2053.25
921.873	2004.25
922.108	2004.25
922.342	2034.25
922.576	1958.25
922.811	1995.25
923.045	2000.25
923.279	2069.25
923.513	1937.25
923.747	2000.25
923.981	1943.25
924.215	1928.25
924.449	1945.25
924.683	1916.25
924.917	1916.25
925.151	1896.25
925.385	1986.25
925.618	1912.25
925.852	1913.25
926.086	1859.25
926.319	1894.25
926.553	1905.25
926.786	1897.25
927.02	1899.25
927.253	1914.25
927.486	1924.25
927.72	1841.25
927.953	1926.25
928.186	1849.25
928.42	1908.25
928.653	1853.25
928.886	1874.25
929.119	1885.25
929.352	1872.25
929.585	1851.25
929.818	1823.25
930.051	1836.25
930.284	1840.25
930.516	1752.25
930.749	1782.25
930.982	1796.25
931.215	1820.25
931.447	1737.25
931.68	1739.25
931.912	1763.25
932.145	1736.25
932.377	1793.25
932.61	1869.25
932.842	1701.25
933.074	1773.25
933.307	1724.25
933.539	1801.25
933.771	1774.25
934.003	1751.25
934.236	1804.25
934.468	1828.25
934.7	1746.25
934.932	1788.25
935.164	1718.25
935.395	1714.25
935.627	1751.25
935.859	1750.25
936.091	1705.25
936.323	1746.25
936.554	1795.25
936.786	1692.25
937.017	1689.25
937.249	1703.25
937.481	1667.25
937.712	1710.25
937.943	1704.25
938.175	1704.25
938.406	1679.25
938.637	1723.25
938.869	1648.25
939.1	1698.25
939.331	1665.25
939.562	1697.25
939.793	1689.25
940.024	1706.25
940.255	1720.25
940.486	1662.25
940.717	1666.25
940.948	1671.25
941.179	1616.25
941.409	1676.25
941.64	1639.25
941.871	1640.25
942.102	1622.25
942.332	1621.25
942.563	1677.25
942.793	1641.25
943.024	1618.25
943.254	1641.25
943.484	1682.25
943.715	1703.25
943.945	1669.25
944.175	1596.25
944.405	1569.25
944.636	1605.25
944.866	1638.25
945.096	1626.25
945.326	1583.25
945.556	1647.25
945.786	1636.25
946.016	1610.25
946.245	1555.25
946.475	1566.25
946.705	1583.25
946.935	1599.25
947.164	1596.25
947.394	1552.25
947.624	1563.25
947.853	1596.25
948.083	1536.25
948.312	1542.25
948.542	1516.25
948.771	1517.25
949	1495.25
949.23	1516.25
949.459	1560.25
949.688	1614.25
949.917	1545.25
950.146	1560.25
950.375	1602.25
950.604	1475.25
950.833	1602.25
951.062	1592.25
951.291	1531.25
951.52	1493.25
951.749	1511.25
951.978	1479.25
952.206	1483.25
952.435	1503.25
952.664	1538.25
952.892	1558.25
953.121	1526.25
953.349	1546.25
953.578	1525.25
953.806	1496.25
954.035	1459.25
954.263	1505.25
954.491	1465.25
954.719	1504.25
954.948	1439.25
955.176	1454.25
955.404	1390.25
955.632	1448.25
955.86	1484.25
956.088	1449.25
956.316	1476.25
956.544	1502.25
956.772	1447.25
956.999	1408.25
957.227	1520.25
957.455	1430.25
957.683	1438.25
957.91	1405.25
958.138	1405.25
958.365	1406.25
958.593	1401.25
958.82	1375.25
959.048	1455.25
959.275	1382.25
959.502	1393.25
959.73	1386.25
959.957	1414.25
960.184	1473.25
960.411	1419.25
960.638	1480.25
960.865	1436.25
961.092	1430.25
961.319	1335.25
961.546	1449.25
961.773	1437.25
962	1390.25
962.227	1449.25
962.454	1365.25
962.68	1394.25
962.907	1398.25
963.134	1357.25
963.36	1385.25
963.587	1401.25
963.813	1339.25
964.04	1387.25
964.266	1307.25
964.493	1404.25
964.719	1385.25
964.945	1428.25
965.171	1281.25
965.398	1337.25
965.624	1367.25
965.85	1293.25
966.076	1325.25
966.302	1338.25
966.528	1334.25
966.754	1332.25
966.98	1367.25
967.206	1318.25
967.431	1280.25
967.657	1360.25
967.883	1349.25
968.109	1320.25
968.334	1262.25
968.56	1256.25
968.785	1299.25
969.011	1271.25
969.236	1327.25
969.462	1256.25
969.687	1274.25
969.912	1318.25
970.138	1351.25
970.363	1239.25
970.588	1312.25
970.813	1261.25
971.038	1243.25
971.263	1299.25
971.488	1301.25
971.713	1320.25
971.938	1302.25
972.163	1208.25
972.388	1256.25
972.613	1227.25
972.838	1260.25
973.062	1233.25
973.287	1243.25
973.512	1176.25
973.736	1251.25
973.961	1209.25
974.185	1183.25
974.41	1252.25
974.634	1149.25
974.858	1179.25
975.083	1233.25
975.307	1224.25
975.531	1154.25
975.755	1143.25
975.98	1148.25
976.204	1091.25
976.428	1124.25
976.652	1118.25
976.876	1119.25
977.1	1138.25
977.324	1113.25
977.547	1164.25
977.771	1156.25
977.995	1135.25
978.219	1073.25
978.442	1199.25
978.666	1155.25
978.89	1141.25
979.113	1145.25
979.337	1130.25
979.56	1127.25
979.783	1195.25
980.007	1099.25
980.23	1115.25
980.453	1108.25
980.677	1126.25
980.9	1123.25
981.123	1031.25
981.346	1151.25
981.569	1123.25
981.792	1137.25
982.015	1079.25
982.238	1073.25
982.461	1095.25
982.684	1082.25
982.907	1068.25
983.129	1058.25
983.352	1113.25
983.575	1092.25
983.797	1093.25
984.02	1035.25
984.242	1050.25
984.465	1068.25
984.687	1074.25
984.91	1137.25
985.132	1088.25
985.354	1112.25
985.577	1091.25
985.799	1100.25
986.021	1022.25
986.243	1034.25
986.465	1081.25
986.687	1113.25
986.909	1127.25
987.131	1073.25
987.353	1040.25
987.575	1072.25
987.797	1041.25
988.019	1010.25
988.241	1047.25
988.462	1035.25
988.684	1084.25
988.906	1110.25
989.127	1115.25
989.349	1005.25
989.57	1039.25
989.792	1089.25
990.013	1091.25
990.234	1092.25
990.456	1117.25
990.677	1096.25
990.898	1037.25
991.119	1058.25
991.341	1092.25
991.562	1025.25
991.783	1051.25
992.004	1016.25
992.225	970.25
992.446	1035.25
992.667	950.25
992.887	1069.25
993.108	950.25
993.329	1079.25
993.55	1025.25
993.77	978.25
993.991	1008.25
994.212	1011.25
994.432	1014.25
994.653	1039.25
994.873	1032.25
995.093	921.25
995.314	969.25
995.534	1031.25
995.754	1042.25
995.975	1072.25
996.195	969.25
996.415	1029.25
996.635	1015.25
996.855	1024.25
997.075	979.25
997.295	990.25
997.515	1002.25
997.735	1009.25
997.955	986.25
998.174	995.25
998.394	959.25
998.614	1021.25
998.834	976.25
999.053	1044.25
999.273	997.25
999.492	1063.25
999.712	993.25
999.931	970.25
1000.151	1025.25
1000.37	1016.25
1000.589	1062.25
1000.809	1005.25
1001.028	1087.25
1001.247	1033.25
1001.466	955.25
1001.685	1074.25
1001.904	1034.25
1002.123	1033.25
1002.342	1036.25
1002.561	1004.25
1002.78	1016.25
1002.999	1088.25
1003.218	1023.25
1003.436	1009.25
1003.655	1068.25
1003.874	998.25
1004.092	1027.25
1004.311	1080.25
1004.53	1028.25
1004.748	1095.25
1004.966	1037.25
1005.185	1101.25
1005.403	1060.25
1005.622	1048.25
1005.84	1133.25
1006.058	1028.25
1006.276	1045.25
1006.494	1556.25
1006.712	1063.25
1006.931	1111.25
1007.149	1019.25
1007.367	1031.25
1007.584	1043.25
1007.802	1108.25
1008.02	1026.25
1008.238	1122.25
1008.456	1117.25
1008.673	1006.25
1008.891	1076.25
1009.109	1057.25
1009.326	1103.25
1009.544	1192.25
1009.761	1052.25
1009.979	1115.25
1010.196	1132.25
1010.413	1211.25
1010.631	1238.25
1010.848	1252.25
1011.065	1253.25
1011.282	1172.25
1011.5	1150.25
1011.717	1236.25
1011.934	1187.25
1012.151	1211.25
1012.368	1186.25
1012.585	1138.25
1012.801	1232.25
1013.018	1176.25
1013.235	1138.25
1013.452	1171.25
1013.669	1158.25
1013.885	1153.25
1014.102	1195.25
1014.318	1141.25
1014.535	1108.25
1014.751	1152.25
1014.968	1146.25
1015.184	1190.25
1015.401	1091.25
1015.617	1160.25
1015.833	1108.25
1016.049	1115.25
1016.266	1128.25
1016.482	1111.25
1016.698	1051.25
1016.914	1118.25
1017.13	1050.25
1017.346	1049.25
1017.562	1125.25
1017.778	1043.25
1017.993	1027.25
1018.209	1111.25
1018.425	1065.25
1018.641	1032.25
1018.856	1001.25
1019.072	1034.25
1019.288	1091.25
1019.503	1042.25
1019.719	958.25
1019.934	961.25
1020.149	1080.25
1020.365	999.25
1020.58	965.25
1020.795	1021.25
1021.011	971.25
1021.226	954.25
1021.441	977.25
1021.656	907.25
1021.871	864.25
1022.086	864.25
1022.301	854.25
1022.516	847.25
1022.731	918.25
1022.946	832.25
1023.16	834.25
1023.375	793.25
1023.59	802.25
1023.804	745.25
1024.019	852.25
1024.234	743.25
1024.448	782.25
1024.663	704.25
1024.877	724.25
1025.092	753.25
1025.306	750.25
1025.52	681.25
1025.734	770.25
1025.949	683.25
1026.163	670.25
1026.377	604.25
1026.591	677.25
1026.805	604.25
1027.019	590.25
1027.233	568.25
1027.447	525.25
1027.661	627.25
1027.875	575.25
1028.088	599.25
1028.302	533.25
1028.516	530.25
1028.73	518.25
1028.943	520.25
1029.157	472.25
1029.37	468.25
1029.584	-1.75
1029.797	-0.75
1030.011	-3.75
1030.224	-2.75
