Data from QEP037381__156__10-29-22-735.txt Node

Date: Wed Dec 21 10:29:22 EST 2022
User: dcclab
Spectrometer: QEP03738
Trigger mode: 4
Integration Time (sec): 1.000000E1
Scans to average: 1
Electric dark correction enabled: true
Nonlinearity correction enabled: false
Boxcar width: 0
XAxis mode: Wavelengths
Number of Pixels in Spectrum: 1044
>>>>>Begin Spectral Data<<<<<
784.041	8.62
784.3	0.62
784.558	-2.38
784.817	-2.38
785.075	80522.62
785.334	13482.62
785.592	6181.62
785.851	4235.62
786.109	3199.62
786.368	2499.62
786.626	2024.62
786.884	1648.62
787.143	1426.62
787.401	1155.62
787.659	1074.62
787.917	932.62
788.175	857.62
788.433	752.62
788.691	696.62
788.949	651.62
789.207	633.62
789.465	534.62
789.723	519.62
789.98	480.62
790.238	535.62
790.496	497.62
790.753	478.62
791.011	522.62
791.268	466.62
791.526	462.62
791.783	473.62
792.041	458.62
792.298	371.62
792.556	436.62
792.813	433.62
793.07	384.62
793.327	386.62
793.584	467.62
793.841	374.62
794.099	413.62
794.356	465.62
794.613	362.62
794.869	416.62
795.126	363.62
795.383	365.62
795.64	374.62
795.897	324.62
796.153	381.62
796.41	362.62
796.667	349.62
796.923	362.62
797.18	348.62
797.436	387.62
797.693	340.62
797.949	396.62
798.206	420.62
798.462	321.62
798.718	385.62
798.974	369.62
799.231	402.62
799.487	376.62
799.743	365.62
799.999	407.62
800.255	386.62
800.511	361.62
800.767	394.62
801.023	358.62
801.279	385.62
801.534	395.62
801.79	407.62
802.046	390.62
802.302	434.62
802.557	446.62
802.813	479.62
803.068	466.62
803.324	568.62
803.579	627.62
803.835	778.62
804.09	992.62
804.345	1160.62
804.601	1388.62
804.856	1641.62
805.111	1893.62
805.366	2034.62
805.621	2116.62
805.876	2211.62
806.131	2234.62
806.386	2271.62
806.641	2231.62
806.896	2280.62
807.151	2384.62
807.406	2366.62
807.661	2445.62
807.915	2451.62
808.17	2489.62
808.425	2536.62
808.679	2497.62
808.934	2578.62
809.188	2570.62
809.443	2618.62
809.697	2684.62
809.951	2596.62
810.206	2650.62
810.46	2721.62
810.714	2701.62
810.968	2762.62
811.223	2721.62
811.477	2770.62
811.731	2804.62
811.985	2730.62
812.239	2727.62
812.493	2793.62
812.747	2857.62
813	2805.62
813.254	2802.62
813.508	2877.62
813.762	2875.62
814.015	2845.62
814.269	2890.62
814.522	2914.62
814.776	3017.62
815.03	3035.62
815.283	3020.62
815.536	3038.62
815.79	3148.62
816.043	3142.62
816.296	3193.62
816.55	3230.62
816.803	3233.62
817.056	3355.62
817.309	3308.62
817.562	3345.62
817.815	3394.62
818.068	3357.62
818.321	3413.62
818.574	3439.62
818.827	3534.62
819.079	3538.62
819.332	3677.62
819.585	3664.62
819.838	3713.62
820.09	3696.62
820.343	3836.62
820.595	3717.62
820.848	3754.62
821.1	3778.62
821.353	3742.62
821.605	3781.62
821.857	3815.62
822.11	3706.62
822.362	3774.62
822.614	3768.62
822.866	3802.62
823.118	3746.62
823.37	3882.62
823.622	3856.62
823.874	3900.62
824.126	3904.62
824.378	3880.62
824.63	3918.62
824.882	3938.62
825.134	3906.62
825.385	3938.62
825.637	3867.62
825.888	3842.62
826.14	3845.62
826.392	3830.62
826.643	3739.62
826.895	3767.62
827.146	3704.62
827.397	3676.62
827.649	3796.62
827.9	3686.62
828.151	3701.62
828.402	3675.62
828.653	3742.62
828.905	3787.62
829.156	3744.62
829.407	3758.62
829.658	3773.62
829.909	3814.62
830.159	3812.62
830.41	3809.62
830.661	3756.62
830.912	3714.62
831.162	3714.62
831.413	3698.62
831.664	3741.62
831.914	3740.62
832.165	3706.62
832.415	3719.62
832.666	3760.62
832.916	3806.62
833.167	3704.62
833.417	3782.62
833.667	3751.62
833.917	3734.62
834.168	3758.62
834.418	3749.62
834.668	3760.62
834.918	3692.62
835.168	3729.62
835.418	3691.62
835.668	3708.62
835.918	3692.62
836.167	3682.62
836.417	3630.62
836.667	3680.62
836.917	3662.62
837.166	3648.62
837.416	3653.62
837.666	3653.62
837.915	3636.62
838.165	3604.62
838.414	3564.62
838.663	3524.62
838.913	3566.62
839.162	3530.62
839.411	3581.62
839.661	3545.62
839.91	3608.62
840.159	3536.62
840.408	3579.62
840.657	3565.62
840.906	3610.62
841.155	3634.62
841.404	3533.62
841.653	3556.62
841.902	3524.62
842.15	3571.62
842.399	3555.62
842.648	3582.62
842.897	3548.62
843.145	3504.62
843.394	3494.62
843.642	3471.62
843.891	3521.62
844.139	3461.62
844.388	3424.62
844.636	3368.62
844.884	3414.62
845.133	3426.62
845.381	3410.62
845.629	3454.62
845.877	3411.62
846.125	3381.62
846.373	3431.62
846.621	3363.62
846.869	3440.62
847.117	3407.62
847.365	3367.62
847.613	3377.62
847.861	3348.62
848.108	3374.62
848.356	3374.62
848.604	3337.62
848.851	3355.62
849.099	3362.62
849.346	3394.62
849.594	3395.62
849.841	3473.62
850.089	3438.62
850.336	3409.62
850.583	3444.62
850.831	3457.62
851.078	3466.62
851.325	3524.62
851.572	3641.62
851.819	3580.62
852.066	3386.62
852.313	3243.62
852.56	3207.62
852.807	3179.62
853.054	3233.62
853.301	3237.62
853.548	3256.62
853.794	3387.62
854.041	3267.62
854.288	3306.62
854.534	3404.62
854.781	3306.62
855.028	3310.62
855.274	3312.62
855.52	3312.62
855.767	3265.62
856.013	3299.62
856.26	3589.62
856.506	3244.62
856.752	3267.62
856.998	3224.62
857.244	3172.62
857.49	3248.62
857.736	3266.62
857.982	3266.62
858.228	3275.62
858.474	3200.62
858.72	3237.62
858.966	3210.62
859.212	3150.62
859.458	3134.62
859.703	3099.62
859.949	3057.62
860.195	3102.62
860.44	3048.62
860.686	2990.62
860.931	3049.62
861.177	2964.62
861.422	3037.62
861.667	2948.62
861.913	2994.62
862.158	3010.62
862.403	3067.62
862.648	3027.62
862.893	3076.62
863.138	2999.62
863.384	2987.62
863.629	3029.62
863.873	2994.62
864.118	2985.62
864.363	2960.62
864.608	2997.62
864.853	3067.62
865.098	2976.62
865.342	2983.62
865.587	2966.62
865.832	2976.62
866.076	2955.62
866.321	2908.62
866.565	2918.62
866.81	2853.62
867.054	2885.62
867.298	2868.62
867.543	2873.62
867.787	2904.62
868.031	2905.62
868.275	2888.62
868.519	2872.62
868.764	2895.62
869.008	2842.62
869.252	2890.62
869.496	2886.62
869.739	2888.62
869.983	2897.62
870.227	2904.62
870.471	2881.62
870.715	2883.62
870.958	2895.62
871.202	2897.62
871.446	2888.62
871.689	2858.62
871.933	2879.62
872.176	2893.62
872.42	2867.62
872.663	2860.62
872.906	2919.62
873.15	2886.62
873.393	2829.62
873.636	2938.62
873.879	2853.62
874.122	2850.62
874.366	2819.62
874.609	2812.62
874.852	2736.62
875.095	2741.62
875.337	2706.62
875.58	2652.62
875.823	2696.62
876.066	2754.62
876.309	2726.62
876.551	2672.62
876.794	2631.62
877.037	2669.62
877.279	2633.62
877.522	2630.62
877.764	2694.62
878.007	2625.62
878.249	2616.62
878.491	2620.62
878.734	2694.62
878.976	2638.62
879.218	2545.62
879.46	2640.62
879.702	2577.62
879.945	2587.62
880.187	2501.62
880.429	2536.62
880.671	2552.62
880.912	2542.62
881.154	2496.62
881.396	2404.62
881.638	2518.62
881.88	2496.62
882.121	2460.62
882.363	2448.62
882.605	2532.62
882.846	2525.62
883.088	2527.62
883.329	2448.62
883.571	2454.62
883.812	2506.62
884.053	2540.62
884.295	2672.62
884.536	2756.62
884.777	2676.62
885.018	2685.62
885.259	2731.62
885.5	2604.62
885.742	2878.62
885.982	2619.62
886.223	2566.62
886.464	2527.62
886.705	2491.62
886.946	2501.62
887.187	2393.62
887.428	2444.62
887.668	2389.62
887.909	2319.62
888.15	2266.62
888.39	2361.62
888.631	2345.62
888.871	2287.62
889.111	2282.62
889.352	2290.62
889.592	2187.62
889.833	2244.62
890.073	2203.62
890.313	2288.62
890.553	2132.62
890.793	2167.62
891.033	2132.62
891.273	2137.62
891.513	2188.62
891.753	2212.62
891.993	2157.62
892.233	2186.62
892.473	2215.62
892.713	2165.62
892.952	2151.62
893.192	2164.62
893.432	2179.62
893.671	2226.62
893.911	2226.62
894.15	2165.62
894.39	2092.62
894.629	2126.62
894.869	2124.62
895.108	2123.62
895.347	2082.62
895.587	2125.62
895.826	2081.62
896.065	2074.62
896.304	2130.62
896.543	2150.62
896.782	2034.62
897.021	2089.62
897.26	2104.62
897.499	2172.62
897.738	2158.62
897.977	2087.62
898.216	2054.62
898.454	2069.62
898.693	2009.62
898.932	2024.62
899.17	1990.62
899.409	2036.62
899.647	2028.62
899.886	1996.62
900.124	2016.62
900.363	1994.62
900.601	2020.62
900.839	2005.62
901.078	2018.62
901.316	2003.62
901.554	2061.62
901.792	2049.62
902.03	2025.62
902.268	2015.62
902.506	2079.62
902.744	2009.62
902.982	2076.62
903.22	1952.62
903.458	1981.62
903.695	1978.62
903.933	1952.62
904.171	1861.62
904.409	1845.62
904.646	1876.62
904.884	1800.62
905.121	1862.62
905.359	1856.62
905.596	1793.62
905.833	1771.62
906.071	1771.62
906.308	1816.62
906.545	1775.62
906.783	1697.62
907.02	1730.62
907.257	1669.62
907.494	1722.62
907.731	1755.62
907.968	1759.62
908.205	1697.62
908.442	1709.62
908.679	1721.62
908.915	1686.62
909.152	1696.62
909.389	1627.62
909.626	1640.62
909.862	1626.62
910.099	1663.62
910.335	1678.62
910.572	1585.62
910.808	1647.62
911.045	1632.62
911.281	1623.62
911.518	1673.62
911.754	1602.62
911.99	1606.62
912.226	1586.62
912.463	1558.62
912.699	1560.62
912.935	1546.62
913.171	1572.62
913.407	1502.62
913.643	1581.62
913.879	1561.62
914.114	1559.62
914.35	1510.62
914.586	1499.62
914.822	1485.62
915.057	1577.62
915.293	1439.62
915.529	1445.62
915.764	1528.62
916	1508.62
916.235	1472.62
916.471	1493.62
916.706	1413.62
916.941	1463.62
917.177	1434.62
917.412	1484.62
917.647	1495.62
917.882	1430.62
918.117	1473.62
918.352	1451.62
918.588	1514.62
918.823	1454.62
919.057	1438.62
919.292	1356.62
919.527	1474.62
919.762	1390.62
919.997	1439.62
920.232	1385.62
920.466	1433.62
920.701	1298.62
920.935	1379.62
921.17	1377.62
921.405	1327.62
921.639	1396.62
921.873	1323.62
922.108	1374.62
922.342	1358.62
922.576	1285.62
922.811	1309.62
923.045	1320.62
923.279	1386.62
923.513	1269.62
923.747	1328.62
923.981	1349.62
924.215	1292.62
924.449	1285.62
924.683	1250.62
924.917	1283.62
925.151	1271.62
925.385	1332.62
925.618	1313.62
925.852	1286.62
926.086	1217.62
926.319	1297.62
926.553	1262.62
926.786	1293.62
927.02	1267.62
927.253	1296.62
927.486	1324.62
927.72	1237.62
927.953	1272.62
928.186	1247.62
928.42	1289.62
928.653	1232.62
928.886	1197.62
929.119	1267.62
929.352	1246.62
929.585	1241.62
929.818	1207.62
930.051	1246.62
930.284	1278.62
930.516	1145.62
930.749	1188.62
930.982	1226.62
931.215	1225.62
931.447	1158.62
931.68	1185.62
931.912	1143.62
932.145	1205.62
932.377	1198.62
932.61	1315.62
932.842	1134.62
933.074	1200.62
933.307	1165.62
933.539	1252.62
933.771	1237.62
934.003	1191.62
934.236	1254.62
934.468	1257.62
934.7	1178.62
934.932	1231.62
935.164	1157.62
935.395	1159.62
935.627	1180.62
935.859	1174.62
936.091	1153.62
936.323	1208.62
936.554	1227.62
936.786	1183.62
937.017	1114.62
937.249	1167.62
937.481	1102.62
937.712	1188.62
937.943	1146.62
938.175	1130.62
938.406	1130.62
938.637	1237.62
938.869	1118.62
939.1	1171.62
939.331	1118.62
939.562	1174.62
939.793	1172.62
940.024	1182.62
940.255	1177.62
940.486	1122.62
940.717	1138.62
940.948	1144.62
941.179	1074.62
941.409	1118.62
941.64	1112.62
941.871	1133.62
942.102	1092.62
942.332	1119.62
942.563	1180.62
942.793	1101.62
943.024	1093.62
943.254	1131.62
943.484	1170.62
943.715	1200.62
943.945	1131.62
944.175	1088.62
944.405	1054.62
944.636	1083.62
944.866	1113.62
945.096	1103.62
945.326	1064.62
945.556	1131.62
945.786	1136.62
946.016	1082.62
946.245	1056.62
946.475	1085.62
946.705	1062.62
946.935	1079.62
947.164	1092.62
947.394	1068.62
947.624	1079.62
947.853	1128.62
948.083	1080.62
948.312	1050.62
948.542	1017.62
948.771	1000.62
949	1055.62
949.23	1058.62
949.459	1066.62
949.688	1106.62
949.917	1063.62
950.146	1052.62
950.375	1125.62
950.604	1032.62
950.833	1135.62
951.062	1083.62
951.291	1055.62
951.52	1037.62
951.749	1059.62
951.978	1009.62
952.206	1022.62
952.435	1036.62
952.664	1081.62
952.892	1079.62
953.121	1053.62
953.349	1093.62
953.578	1075.62
953.806	1041.62
954.035	1005.62
954.263	1043.62
954.491	984.62
954.719	1050.62
954.948	1011.62
955.176	1006.62
955.404	956.62
955.632	1024.62
955.86	1035.62
956.088	1033.62
956.316	1037.62
956.544	1061.62
956.772	1008.62
956.999	1000.62
957.227	1093.62
957.455	971.62
957.683	1022.62
957.91	978.62
958.138	958.62
958.365	995.62
958.593	975.62
958.82	932.62
959.048	1009.62
959.275	979.62
959.502	982.62
959.73	973.62
959.957	1020.62
960.184	1058.62
960.411	1006.62
960.638	1083.62
960.865	1005.62
961.092	1013.62
961.319	938.62
961.546	1012.62
961.773	1026.62
962	981.62
962.227	1025.62
962.454	991.62
962.68	991.62
962.907	995.62
963.134	967.62
963.36	980.62
963.587	1031.62
963.813	953.62
964.04	997.62
964.266	924.62
964.493	1032.62
964.719	1003.62
964.945	994.62
965.171	894.62
965.398	982.62
965.624	1007.62
965.85	941.62
966.076	948.62
966.302	979.62
966.528	950.62
966.754	963.62
966.98	966.62
967.206	973.62
967.431	897.62
967.657	1008.62
967.883	971.62
968.109	981.62
968.334	916.62
968.56	901.62
968.785	924.62
969.011	900.62
969.236	955.62
969.462	887.62
969.687	919.62
969.912	979.62
970.138	990.62
970.363	913.62
970.588	946.62
970.813	927.62
971.038	897.62
971.263	930.62
971.488	946.62
971.713	986.62
971.938	948.62
972.163	862.62
972.388	916.62
972.613	901.62
972.838	933.62
973.062	898.62
973.287	910.62
973.512	843.62
973.736	899.62
973.961	903.62
974.185	903.62
974.41	921.62
974.634	842.62
974.858	852.62
975.083	892.62
975.307	930.62
975.531	864.62
975.755	802.62
975.98	853.62
976.204	777.62
976.428	803.62
976.652	825.62
976.876	816.62
977.1	838.62
977.324	788.62
977.547	846.62
977.771	864.62
977.995	827.62
978.219	769.62
978.442	892.62
978.666	848.62
978.89	834.62
979.113	839.62
979.337	836.62
979.56	798.62
979.783	892.62
980.007	816.62
980.23	822.62
980.453	815.62
980.677	852.62
980.9	840.62
981.123	749.62
981.346	846.62
981.569	829.62
981.792	858.62
982.015	827.62
982.238	809.62
982.461	827.62
982.684	799.62
982.907	782.62
983.129	776.62
983.352	839.62
983.575	822.62
983.797	840.62
984.02	792.62
984.242	786.62
984.465	819.62
984.687	817.62
984.91	876.62
985.132	832.62
985.354	847.62
985.577	828.62
985.799	836.62
986.021	745.62
986.243	781.62
986.465	793.62
986.687	853.62
986.909	882.62
987.131	824.62
987.353	794.62
987.575	843.62
987.797	800.62
988.019	743.62
988.241	812.62
988.462	767.62
988.684	814.62
988.906	861.62
989.127	866.62
989.349	767.62
989.57	794.62
989.792	844.62
990.013	864.62
990.234	838.62
990.456	894.62
990.677	858.62
990.898	825.62
991.119	834.62
991.341	853.62
991.562	772.62
991.783	840.62
992.004	782.62
992.225	769.62
992.446	831.62
992.667	751.62
992.887	821.62
993.108	725.62
993.329	866.62
993.55	803.62
993.77	758.62
993.991	772.62
994.212	822.62
994.432	807.62
994.653	837.62
994.873	809.62
995.093	702.62
995.314	753.62
995.534	831.62
995.754	840.62
995.975	869.62
996.195	765.62
996.415	836.62
996.635	815.62
996.855	843.62
997.075	793.62
997.295	787.62
997.515	744.62
997.735	801.62
997.955	821.62
998.174	786.62
998.394	751.62
998.614	815.62
998.834	775.62
999.053	839.62
999.273	820.62
999.492	890.62
999.712	810.62
999.931	776.62
1000.151	830.62
1000.37	812.62
1000.589	880.62
1000.809	809.62
1001.028	924.62
1001.247	862.62
1001.466	768.62
1001.685	897.62
1001.904	868.62
1002.123	842.62
1002.342	844.62
1002.561	814.62
1002.78	845.62
1002.999	922.62
1003.218	874.62
1003.436	844.62
1003.655	909.62
1003.874	848.62
1004.092	857.62
1004.311	907.62
1004.53	871.62
1004.748	949.62
1004.966	870.62
1005.185	928.62
1005.403	903.62
1005.622	895.62
1005.84	987.62
1006.058	872.62
1006.276	901.62
1006.494	1386.62
1006.712	891.62
1006.931	949.62
1007.149	872.62
1007.367	865.62
1007.584	914.62
1007.802	912.62
1008.02	876.62
1008.238	980.62
1008.456	954.62
1008.673	836.62
1008.891	933.62
1009.109	884.62
1009.326	923.62
1009.544	1003.62
1009.761	880.62
1009.979	952.62
1010.196	959.62
1010.413	1011.62
1010.631	1030.62
1010.848	1048.62
1011.065	1042.62
1011.282	990.62
1011.5	933.62
1011.717	1041.62
1011.934	992.62
1012.151	1033.62
1012.368	1004.62
1012.585	972.62
1012.801	1022.62
1013.018	988.62
1013.235	968.62
1013.452	961.62
1013.669	959.62
1013.885	933.62
1014.102	958.62
1014.318	955.62
1014.535	912.62
1014.751	955.62
1014.968	959.62
1015.184	1001.62
1015.401	895.62
1015.617	957.62
1015.833	903.62
1016.049	917.62
1016.266	907.62
1016.482	930.62
1016.698	840.62
1016.914	927.62
1017.13	868.62
1017.346	868.62
1017.562	930.62
1017.778	878.62
1017.993	828.62
1018.209	907.62
1018.425	886.62
1018.641	841.62
1018.856	822.62
1019.072	858.62
1019.288	889.62
1019.503	861.62
1019.719	775.62
1019.934	781.62
1020.149	884.62
1020.365	823.62
1020.58	783.62
1020.795	856.62
1021.011	788.62
1021.226	784.62
1021.441	827.62
1021.656	751.62
1021.871	710.62
1022.086	712.62
1022.301	702.62
1022.516	696.62
1022.731	775.62
1022.946	687.62
1023.16	675.62
1023.375	654.62
1023.59	638.62
1023.804	633.62
1024.019	718.62
1024.234	628.62
1024.448	659.62
1024.663	602.62
1024.877	621.62
1025.092	630.62
1025.306	662.62
1025.52	563.62
1025.734	662.62
1025.949	582.62
1026.163	585.62
1026.377	521.62
1026.591	592.62
1026.805	516.62
1027.019	521.62
1027.233	481.62
1027.447	437.62
1027.661	543.62
1027.875	479.62
1028.088	514.62
1028.302	437.62
1028.516	464.62
1028.73	472.62
1028.943	445.62
1029.157	416.62
1029.37	390.62
1029.584	0.62
1029.797	1.62
1030.011	-4.38
1030.224	-2.38
