Data from QEP037381__151__10-28-32-734.txt Node

Date: Wed Dec 21 10:28:32 EST 2022
User: dcclab
Spectrometer: QEP03738
Trigger mode: 4
Integration Time (sec): 1.000000E1
Scans to average: 1
Electric dark correction enabled: true
Nonlinearity correction enabled: false
Boxcar width: 0
XAxis mode: Wavelengths
Number of Pixels in Spectrum: 1044
>>>>>Begin Spectral Data<<<<<
784.041	15.62
784.3	-0.38
784.558	-4.38
784.817	-4.38
785.075	81185.62
785.334	14061.62
785.592	6546.62
785.851	4562.62
786.109	3464.62
786.368	2672.62
786.626	2147.62
786.884	1798.62
787.143	1499.62
787.401	1222.62
787.659	1117.62
787.917	977.62
788.175	885.62
788.433	775.62
788.691	694.62
788.949	644.62
789.207	647.62
789.465	548.62
789.723	528.62
789.98	502.62
790.238	545.62
790.496	502.62
790.753	483.62
791.011	523.62
791.268	461.62
791.526	434.62
791.783	456.62
792.041	454.62
792.298	384.62
792.556	439.62
792.813	430.62
793.07	392.62
793.327	393.62
793.584	466.62
793.841	398.62
794.099	414.62
794.356	460.62
794.613	379.62
794.869	396.62
795.126	362.62
795.383	346.62
795.64	360.62
795.897	324.62
796.153	383.62
796.41	373.62
796.667	348.62
796.923	355.62
797.18	354.62
797.436	378.62
797.693	337.62
797.949	403.62
798.206	410.62
798.462	323.62
798.718	382.62
798.974	354.62
799.231	386.62
799.487	370.62
799.743	378.62
799.999	404.62
800.255	387.62
800.511	355.62
800.767	399.62
801.023	362.62
801.279	383.62
801.534	390.62
801.79	413.62
802.046	389.62
802.302	445.62
802.557	433.62
802.813	485.62
803.068	480.62
803.324	580.62
803.579	655.62
803.835	766.62
804.09	980.62
804.345	1141.62
804.601	1361.62
804.856	1604.62
805.111	1839.62
805.366	1953.62
805.621	2059.62
805.876	2137.62
806.131	2162.62
806.386	2183.62
806.641	2145.62
806.896	2209.62
807.151	2331.62
807.406	2292.62
807.661	2395.62
807.915	2364.62
808.17	2419.62
808.425	2451.62
808.679	2400.62
808.934	2512.62
809.188	2488.62
809.443	2543.62
809.697	2571.62
809.951	2512.62
810.206	2580.62
810.46	2623.62
810.714	2595.62
810.968	2630.62
811.223	2610.62
811.477	2652.62
811.731	2714.62
811.985	2640.62
812.239	2621.62
812.493	2677.62
812.747	2719.62
813	2678.62
813.254	2738.62
813.508	2795.62
813.762	2736.62
814.015	2732.62
814.269	2795.62
814.522	2846.62
814.776	2856.62
815.03	2929.62
815.283	2883.62
815.536	2986.62
815.79	2995.62
816.043	3059.62
816.296	3073.62
816.55	3096.62
816.803	3137.62
817.056	3216.62
817.309	3191.62
817.562	3220.62
817.815	3273.62
818.068	3229.62
818.321	3238.62
818.574	3282.62
818.827	3415.62
819.079	3401.62
819.332	3555.62
819.585	3535.62
819.838	3618.62
820.09	3583.62
820.343	3632.62
820.595	3576.62
820.848	3633.62
821.1	3664.62
821.353	3669.62
821.605	3643.62
821.857	3727.62
822.11	3587.62
822.362	3621.62
822.614	3602.62
822.866	3699.62
823.118	3613.62
823.37	3728.62
823.622	3762.62
823.874	3689.62
824.126	3808.62
824.378	3715.62
824.63	3777.62
824.882	3786.62
825.134	3772.62
825.385	3748.62
825.637	3706.62
825.888	3626.62
826.14	3617.62
826.392	3618.62
826.643	3585.62
826.895	3638.62
827.146	3593.62
827.397	3552.62
827.649	3663.62
827.9	3549.62
828.151	3569.62
828.402	3515.62
828.653	3601.62
828.905	3557.62
829.156	3682.62
829.407	3591.62
829.658	3594.62
829.909	3665.62
830.159	3631.62
830.41	3611.62
830.661	3622.62
830.912	3572.62
831.162	3543.62
831.413	3560.62
831.664	3601.62
831.914	3595.62
832.165	3627.62
832.415	3576.62
832.666	3572.62
832.916	3586.62
833.167	3569.62
833.417	3632.62
833.667	3575.62
833.917	3597.62
834.168	3632.62
834.418	3614.62
834.668	3566.62
834.918	3559.62
835.168	3559.62
835.418	3526.62
835.668	3559.62
835.918	3590.62
836.167	3510.62
836.417	3483.62
836.667	3520.62
836.917	3520.62
837.166	3479.62
837.416	3480.62
837.666	3481.62
837.915	3432.62
838.165	3464.62
838.414	3381.62
838.663	3368.62
838.913	3440.62
839.162	3395.62
839.411	3454.62
839.661	3412.62
839.91	3439.62
840.159	3431.62
840.408	3430.62
840.657	3410.62
840.906	3401.62
841.155	3482.62
841.404	3448.62
841.653	3421.62
841.902	3355.62
842.15	3438.62
842.399	3443.62
842.648	3423.62
842.897	3436.62
843.145	3347.62
843.394	3344.62
843.642	3360.62
843.891	3392.62
844.139	3322.62
844.388	3323.62
844.636	3245.62
844.884	3330.62
845.133	3235.62
845.381	3287.62
845.629	3320.62
845.877	3247.62
846.125	3297.62
846.373	3240.62
846.621	3290.62
846.869	3276.62
847.117	3229.62
847.365	3239.62
847.613	3246.62
847.861	3261.62
848.108	3222.62
848.356	3209.62
848.604	3212.62
848.851	3256.62
849.099	3266.62
849.346	3238.62
849.594	3256.62
849.841	3304.62
850.089	3276.62
850.336	3256.62
850.583	3278.62
850.831	3311.62
851.078	3309.62
851.325	3418.62
851.572	3541.62
851.819	3433.62
852.066	3300.62
852.313	3112.62
852.56	3065.62
852.807	3069.62
853.054	3073.62
853.301	3108.62
853.548	3159.62
853.794	3274.62
854.041	3242.62
854.288	3158.62
854.534	3248.62
854.781	3192.62
855.028	3127.62
855.274	3209.62
855.52	3133.62
855.767	3089.62
856.013	3177.62
856.26	3400.62
856.506	3082.62
856.752	3105.62
856.998	3034.62
857.244	3075.62
857.49	3081.62
857.736	3140.62
857.982	3123.62
858.228	3111.62
858.474	3098.62
858.72	3052.62
858.966	3020.62
859.212	2999.62
859.458	3005.62
859.703	3000.62
859.949	2861.62
860.195	2925.62
860.44	2921.62
860.686	2890.62
860.931	2924.62
861.177	2832.62
861.422	2862.62
861.667	2868.62
861.913	2866.62
862.158	2845.62
862.403	2918.62
862.648	2907.62
862.893	2942.62
863.138	2916.62
863.384	2841.62
863.629	2910.62
863.873	2890.62
864.118	2875.62
864.363	2776.62
864.608	2856.62
864.853	2898.62
865.098	2860.62
865.342	2817.62
865.587	2827.62
865.832	2856.62
866.076	2836.62
866.321	2797.62
866.565	2795.62
866.81	2736.62
867.054	2779.62
867.298	2793.62
867.543	2740.62
867.787	2774.62
868.031	2736.62
868.275	2756.62
868.519	2713.62
868.764	2718.62
869.008	2716.62
869.252	2809.62
869.496	2716.62
869.739	2750.62
869.983	2773.62
870.227	2773.62
870.471	2694.62
870.715	2796.62
870.958	2773.62
871.202	2758.62
871.446	2744.62
871.689	2753.62
871.933	2737.62
872.176	2740.62
872.42	2744.62
872.663	2725.62
872.906	2767.62
873.15	2744.62
873.393	2684.62
873.636	2761.62
873.879	2752.62
874.122	2727.62
874.366	2650.62
874.609	2685.62
874.852	2619.62
875.095	2593.62
875.337	2587.62
875.58	2576.62
875.823	2559.62
876.066	2594.62
876.309	2661.62
876.551	2567.62
876.794	2536.62
877.037	2575.62
877.279	2506.62
877.522	2513.62
877.764	2541.62
878.007	2507.62
878.249	2544.62
878.491	2487.62
878.734	2543.62
878.976	2547.62
879.218	2439.62
879.46	2518.62
879.702	2499.62
879.945	2461.62
880.187	2383.62
880.429	2430.62
880.671	2394.62
880.912	2435.62
881.154	2366.62
881.396	2308.62
881.638	2364.62
881.88	2385.62
882.121	2333.62
882.363	2375.62
882.605	2409.62
882.846	2381.62
883.088	2367.62
883.329	2315.62
883.571	2326.62
883.812	2354.62
884.053	2446.62
884.295	2501.62
884.536	2660.62
884.777	2528.62
885.018	2578.62
885.259	2529.62
885.5	2480.62
885.742	2744.62
885.982	2491.62
886.223	2441.62
886.464	2408.62
886.705	2364.62
886.946	2372.62
887.187	2279.62
887.428	2353.62
887.668	2244.62
887.909	2205.62
888.15	2166.62
888.39	2236.62
888.631	2240.62
888.871	2213.62
889.111	2160.62
889.352	2149.62
889.592	2134.62
889.833	2098.62
890.073	2125.62
890.313	2140.62
890.553	2052.62
890.793	2048.62
891.033	2049.62
891.273	2051.62
891.513	2085.62
891.753	2103.62
891.993	2054.62
892.233	2060.62
892.473	2122.62
892.713	2081.62
892.952	1994.62
893.192	2103.62
893.432	2057.62
893.671	2109.62
893.911	2073.62
894.15	2074.62
894.39	1968.62
894.629	2039.62
894.869	2047.62
895.108	2011.62
895.347	1991.62
895.587	2012.62
895.826	1973.62
896.065	1985.62
896.304	2027.62
896.543	2049.62
896.782	1938.62
897.021	2000.62
897.26	2018.62
897.499	2062.62
897.738	2066.62
897.977	1991.62
898.216	1977.62
898.454	1949.62
898.693	1920.62
898.932	1945.62
899.17	1908.62
899.409	1934.62
899.647	1912.62
899.886	1878.62
900.124	1917.62
900.363	1846.62
900.601	1900.62
900.839	1897.62
901.078	1923.62
901.316	1924.62
901.554	1932.62
901.792	1986.62
902.03	1897.62
902.268	1930.62
902.506	1972.62
902.744	1910.62
902.982	1961.62
903.22	1869.62
903.458	1852.62
903.695	1870.62
903.933	1873.62
904.171	1782.62
904.409	1778.62
904.646	1800.62
904.884	1694.62
905.121	1765.62
905.359	1713.62
905.596	1711.62
905.833	1683.62
906.071	1686.62
906.308	1691.62
906.545	1695.62
906.783	1646.62
907.02	1666.62
907.257	1650.62
907.494	1644.62
907.731	1659.62
907.968	1698.62
908.205	1625.62
908.442	1637.62
908.679	1615.62
908.915	1619.62
909.152	1634.62
909.389	1550.62
909.626	1578.62
909.862	1551.62
910.099	1549.62
910.335	1592.62
910.572	1535.62
910.808	1585.62
911.045	1545.62
911.281	1525.62
911.518	1579.62
911.754	1534.62
911.99	1561.62
912.226	1521.62
912.463	1480.62
912.699	1484.62
912.935	1509.62
913.171	1495.62
913.407	1461.62
913.643	1508.62
913.879	1465.62
914.114	1465.62
914.35	1445.62
914.586	1436.62
914.822	1406.62
915.057	1488.62
915.293	1371.62
915.529	1339.62
915.764	1468.62
916	1423.62
916.235	1400.62
916.471	1438.62
916.706	1323.62
916.941	1385.62
917.177	1374.62
917.412	1426.62
917.647	1393.62
917.882	1355.62
918.117	1433.62
918.352	1389.62
918.588	1443.62
918.823	1384.62
919.057	1385.62
919.292	1278.62
919.527	1398.62
919.762	1330.62
919.997	1397.62
920.232	1322.62
920.466	1388.62
920.701	1232.62
920.935	1325.62
921.17	1296.62
921.405	1250.62
921.639	1337.62
921.873	1296.62
922.108	1301.62
922.342	1307.62
922.576	1240.62
922.811	1245.62
923.045	1292.62
923.279	1310.62
923.513	1203.62
923.747	1298.62
923.981	1282.62
924.215	1202.62
924.449	1225.62
924.683	1195.62
924.917	1200.62
925.151	1204.62
925.385	1270.62
925.618	1220.62
925.852	1250.62
926.086	1163.62
926.319	1231.62
926.553	1219.62
926.786	1244.62
927.02	1232.62
927.253	1266.62
927.486	1249.62
927.72	1168.62
927.953	1257.62
928.186	1199.62
928.42	1233.62
928.653	1170.62
928.886	1158.62
929.119	1208.62
929.352	1197.62
929.585	1188.62
929.818	1177.62
930.051	1192.62
930.284	1206.62
930.516	1114.62
930.749	1128.62
930.982	1204.62
931.215	1195.62
931.447	1127.62
931.68	1160.62
931.912	1103.62
932.145	1094.62
932.377	1128.62
932.61	1255.62
932.842	1077.62
933.074	1131.62
933.307	1084.62
933.539	1223.62
933.771	1211.62
934.003	1147.62
934.236	1199.62
934.468	1222.62
934.7	1178.62
934.932	1203.62
935.164	1121.62
935.395	1100.62
935.627	1154.62
935.859	1131.62
936.091	1097.62
936.323	1140.62
936.554	1175.62
936.786	1117.62
937.017	1060.62
937.249	1127.62
937.481	1060.62
937.712	1136.62
937.943	1099.62
938.175	1074.62
938.406	1085.62
938.637	1174.62
938.869	1068.62
939.1	1123.62
939.331	1089.62
939.562	1120.62
939.793	1104.62
940.024	1125.62
940.255	1148.62
940.486	1093.62
940.717	1115.62
940.948	1088.62
941.179	1047.62
941.409	1080.62
941.64	1045.62
941.871	1081.62
942.102	1063.62
942.332	1074.62
942.563	1095.62
942.793	1074.62
943.024	1023.62
943.254	1057.62
943.484	1125.62
943.715	1113.62
943.945	1096.62
944.175	1007.62
944.405	1013.62
944.636	1013.62
944.866	1073.62
945.096	1076.62
945.326	978.62
945.556	1056.62
945.786	1081.62
946.016	1023.62
946.245	1000.62
946.475	1013.62
946.705	1012.62
946.935	1044.62
947.164	1053.62
947.394	1021.62
947.624	1042.62
947.853	1071.62
948.083	1056.62
948.312	1022.62
948.542	968.62
948.771	967.62
949	990.62
949.23	992.62
949.459	1002.62
949.688	1085.62
949.917	1027.62
950.146	1026.62
950.375	1089.62
950.604	976.62
950.833	1072.62
951.062	1067.62
951.291	1020.62
951.52	1004.62
951.749	1028.62
951.978	963.62
952.206	969.62
952.435	972.62
952.664	1027.62
952.892	1041.62
953.121	1012.62
953.349	1035.62
953.578	1048.62
953.806	1013.62
954.035	957.62
954.263	1004.62
954.491	942.62
954.719	1014.62
954.948	966.62
955.176	961.62
955.404	909.62
955.632	981.62
955.86	984.62
956.088	973.62
956.316	997.62
956.544	1014.62
956.772	985.62
956.999	939.62
957.227	1027.62
957.455	946.62
957.683	963.62
957.91	936.62
958.138	929.62
958.365	957.62
958.593	947.62
958.82	880.62
959.048	977.62
959.275	949.62
959.502	960.62
959.73	914.62
959.957	954.62
960.184	982.62
960.411	944.62
960.638	1036.62
960.865	935.62
961.092	970.62
961.319	881.62
961.546	980.62
961.773	980.62
962	933.62
962.227	994.62
962.454	938.62
962.68	927.62
962.907	957.62
963.134	904.62
963.36	933.62
963.587	984.62
963.813	922.62
964.04	962.62
964.266	905.62
964.493	994.62
964.719	972.62
964.945	960.62
965.171	868.62
965.398	925.62
965.624	968.62
965.85	897.62
966.076	904.62
966.302	929.62
966.528	920.62
966.754	949.62
966.98	948.62
967.206	958.62
967.431	873.62
967.657	958.62
967.883	938.62
968.109	935.62
968.334	886.62
968.56	870.62
968.785	882.62
969.011	862.62
969.236	924.62
969.462	869.62
969.687	900.62
969.912	931.62
970.138	952.62
970.363	879.62
970.588	921.62
970.813	887.62
971.038	867.62
971.263	917.62
971.488	928.62
971.713	948.62
971.938	932.62
972.163	846.62
972.388	869.62
972.613	865.62
972.838	869.62
973.062	867.62
973.287	869.62
973.512	806.62
973.736	864.62
973.961	859.62
974.185	835.62
974.41	892.62
974.634	812.62
974.858	834.62
975.083	855.62
975.307	889.62
975.531	819.62
975.755	801.62
975.98	827.62
976.204	753.62
976.428	777.62
976.652	791.62
976.876	777.62
977.1	819.62
977.324	769.62
977.547	842.62
977.771	843.62
977.995	785.62
978.219	747.62
978.442	883.62
978.666	832.62
978.89	813.62
979.113	811.62
979.337	806.62
979.56	777.62
979.783	872.62
980.007	755.62
980.23	816.62
980.453	779.62
980.677	838.62
980.9	811.62
981.123	720.62
981.346	834.62
981.569	821.62
981.792	830.62
982.015	813.62
982.238	754.62
982.461	790.62
982.684	761.62
982.907	764.62
983.129	756.62
983.352	826.62
983.575	793.62
983.797	798.62
984.02	755.62
984.242	771.62
984.465	782.62
984.687	812.62
984.91	829.62
985.132	805.62
985.354	834.62
985.577	804.62
985.799	792.62
986.021	722.62
986.243	770.62
986.465	782.62
986.687	837.62
986.909	873.62
987.131	823.62
987.353	783.62
987.575	822.62
987.797	754.62
988.019	722.62
988.241	784.62
988.462	755.62
988.684	800.62
988.906	831.62
989.127	864.62
989.349	743.62
989.57	789.62
989.792	824.62
990.013	819.62
990.234	843.62
990.456	860.62
990.677	856.62
990.898	794.62
991.119	810.62
991.341	845.62
991.562	773.62
991.783	814.62
992.004	749.62
992.225	724.62
992.446	819.62
992.667	729.62
992.887	819.62
993.108	727.62
993.329	847.62
993.55	809.62
993.77	733.62
993.991	769.62
994.212	783.62
994.432	790.62
994.653	825.62
994.873	797.62
995.093	701.62
995.314	745.62
995.534	796.62
995.754	816.62
995.975	828.62
996.195	750.62
996.415	806.62
996.635	767.62
996.855	794.62
997.075	769.62
997.295	768.62
997.515	752.62
997.735	799.62
997.955	793.62
998.174	761.62
998.394	735.62
998.614	805.62
998.834	759.62
999.053	830.62
999.273	808.62
999.492	858.62
999.712	820.62
999.931	782.62
1000.151	820.62
1000.37	797.62
1000.589	884.62
1000.809	801.62
1001.028	895.62
1001.247	848.62
1001.466	747.62
1001.685	891.62
1001.904	846.62
1002.123	836.62
1002.342	828.62
1002.561	806.62
1002.78	826.62
1002.999	917.62
1003.218	846.62
1003.436	833.62
1003.655	883.62
1003.874	813.62
1004.092	851.62
1004.311	897.62
1004.53	867.62
1004.748	934.62
1004.966	866.62
1005.185	918.62
1005.403	896.62
1005.622	883.62
1005.84	969.62
1006.058	856.62
1006.276	864.62
1006.494	1368.62
1006.712	881.62
1006.931	950.62
1007.149	838.62
1007.367	851.62
1007.584	892.62
1007.802	912.62
1008.02	855.62
1008.238	957.62
1008.456	945.62
1008.673	796.62
1008.891	893.62
1009.109	859.62
1009.326	872.62
1009.544	975.62
1009.761	870.62
1009.979	934.62
1010.196	935.62
1010.413	959.62
1010.631	1010.62
1010.848	1016.62
1011.065	1019.62
1011.282	964.62
1011.5	913.62
1011.717	1029.62
1011.934	973.62
1012.151	1003.62
1012.368	977.62
1012.585	920.62
1012.801	968.62
1013.018	944.62
1013.235	911.62
1013.452	927.62
1013.669	921.62
1013.885	936.62
1014.102	963.62
1014.318	907.62
1014.535	870.62
1014.751	924.62
1014.968	922.62
1015.184	980.62
1015.401	869.62
1015.617	904.62
1015.833	891.62
1016.049	881.62
1016.266	892.62
1016.482	882.62
1016.698	823.62
1016.914	894.62
1017.13	848.62
1017.346	846.62
1017.562	900.62
1017.778	850.62
1017.993	807.62
1018.209	883.62
1018.425	840.62
1018.641	827.62
1018.856	813.62
1019.072	831.62
1019.288	885.62
1019.503	833.62
1019.719	751.62
1019.934	770.62
1020.149	837.62
1020.365	796.62
1020.58	755.62
1020.795	808.62
1021.011	757.62
1021.226	756.62
1021.441	807.62
1021.656	745.62
1021.871	693.62
1022.086	679.62
1022.301	693.62
1022.516	699.62
1022.731	750.62
1022.946	659.62
1023.16	678.62
1023.375	645.62
1023.59	631.62
1023.804	601.62
1024.019	694.62
1024.234	603.62
1024.448	635.62
1024.663	587.62
1024.877	592.62
1025.092	618.62
1025.306	649.62
1025.52	557.62
1025.734	652.62
1025.949	560.62
1026.163	569.62
1026.377	504.62
1026.591	565.62
1026.805	496.62
1027.019	504.62
1027.233	485.62
1027.447	437.62
1027.661	560.62
1027.875	478.62
1028.088	498.62
1028.302	431.62
1028.516	447.62
1028.73	457.62
1028.943	451.62
1029.157	422.62
1029.37	395.62
1029.584	-1.38
1029.797	0.62
1030.011	-2.38
1030.224	-3.38
