Data from QEP037381__106__10-21-02-732.txt Node

Date: Wed Dec 21 10:21:02 EST 2022
User: dcclab
Spectrometer: QEP03738
Trigger mode: 4
Integration Time (sec): 1.000000E1
Scans to average: 1
Electric dark correction enabled: true
Nonlinearity correction enabled: false
Boxcar width: 0
XAxis mode: Wavelengths
Number of Pixels in Spectrum: 1044
>>>>>Begin Spectral Data<<<<<
784.041	13.75
784.3	-0.25
784.558	-1.25
784.817	-4.25
785.075	85181.75
785.334	13820.75
785.592	6152.75
785.851	4286.75
786.109	3244.75
786.368	2533.75
786.626	2053.75
786.884	1703.75
787.143	1440.75
787.401	1178.75
787.659	1085.75
787.917	952.75
788.175	867.75
788.433	778.75
788.691	705.75
788.949	669.75
789.207	634.75
789.465	569.75
789.723	520.75
789.98	492.75
790.238	541.75
790.496	509.75
790.753	478.75
791.011	534.75
791.268	486.75
791.526	437.75
791.783	480.75
792.041	467.75
792.298	383.75
792.556	442.75
792.813	434.75
793.07	387.75
793.327	392.75
793.584	481.75
793.841	389.75
794.099	407.75
794.356	464.75
794.613	371.75
794.869	409.75
795.126	358.75
795.383	355.75
795.64	380.75
795.897	334.75
796.153	390.75
796.41	387.75
796.667	359.75
796.923	366.75
797.18	368.75
797.436	391.75
797.693	346.75
797.949	400.75
798.206	413.75
798.462	330.75
798.718	401.75
798.974	365.75
799.231	415.75
799.487	388.75
799.743	402.75
799.999	411.75
800.255	390.75
800.511	376.75
800.767	404.75
801.023	381.75
801.279	399.75
801.534	417.75
801.79	426.75
802.046	412.75
802.302	482.75
802.557	478.75
802.813	545.75
803.068	546.75
803.324	703.75
803.579	814.75
803.835	1014.75
804.09	1339.75
804.345	1663.75
804.601	2057.75
804.856	2447.75
805.111	2817.75
805.366	3044.75
805.621	3232.75
805.876	3410.75
806.131	3429.75
806.386	3462.75
806.641	3484.75
806.896	3585.75
807.151	3682.75
807.406	3713.75
807.661	3772.75
807.915	3811.75
808.17	3853.75
808.425	3922.75
808.679	3885.75
808.934	3998.75
809.188	4026.75
809.443	4058.75
809.697	4132.75
809.951	4093.75
810.206	4145.75
810.46	4229.75
810.714	4265.75
810.968	4294.75
811.223	4270.75
811.477	4344.75
811.731	4347.75
811.985	4315.75
812.239	4328.75
812.493	4392.75
812.747	4423.75
813	4442.75
813.254	4461.75
813.508	4539.75
813.762	4502.75
814.015	4507.75
814.269	4501.75
814.522	4601.75
814.776	4688.75
815.03	4730.75
815.283	4811.75
815.536	4814.75
815.79	4932.75
816.043	5013.75
816.296	5024.75
816.55	5106.75
816.803	5130.75
817.056	5210.75
817.309	5265.75
817.562	5279.75
817.815	5371.75
818.068	5365.75
818.321	5457.75
818.574	5505.75
818.827	5609.75
819.079	5617.75
819.332	5874.75
819.585	5841.75
819.838	5982.75
820.09	5965.75
820.343	6050.75
820.595	5947.75
820.848	6054.75
821.1	6085.75
821.353	6021.75
821.605	6105.75
821.857	6168.75
822.11	6023.75
822.362	6069.75
822.614	6029.75
822.866	6117.75
823.118	6047.75
823.37	6156.75
823.622	6140.75
823.874	6182.75
824.126	6209.75
824.378	6164.75
824.63	6283.75
824.882	6227.75
825.134	6287.75
825.385	6239.75
825.637	6203.75
825.888	6188.75
826.14	6150.75
826.392	6076.75
826.643	6023.75
826.895	6092.75
827.146	6024.75
827.397	5979.75
827.649	6104.75
827.9	5984.75
828.151	5962.75
828.402	6052.75
828.653	6087.75
828.905	6105.75
829.156	6135.75
829.407	6023.75
829.658	6082.75
829.909	6142.75
830.159	6089.75
830.41	6035.75
830.661	6014.75
830.912	6033.75
831.162	5955.75
831.413	5968.75
831.664	6065.75
831.914	6014.75
832.165	6026.75
832.415	6051.75
832.666	6036.75
832.916	6010.75
833.167	5946.75
833.417	6033.75
833.667	5995.75
833.917	5950.75
834.168	6031.75
834.418	6032.75
834.668	6005.75
834.918	5931.75
835.168	5912.75
835.418	5903.75
835.668	5939.75
835.918	5898.75
836.167	5903.75
836.417	5814.75
836.667	5915.75
836.917	5945.75
837.166	5851.75
837.416	5842.75
837.666	5857.75
837.915	5834.75
838.165	5791.75
838.414	5692.75
838.663	5726.75
838.913	5786.75
839.162	5739.75
839.411	5792.75
839.661	5700.75
839.91	5697.75
840.159	5717.75
840.408	5767.75
840.657	5758.75
840.906	5795.75
841.155	5839.75
841.404	5753.75
841.653	5764.75
841.902	5726.75
842.15	5779.75
842.399	5783.75
842.648	5786.75
842.897	5764.75
843.145	5646.75
843.394	5659.75
843.642	5601.75
843.891	5696.75
844.139	5603.75
844.388	5541.75
844.636	5518.75
844.884	5514.75
845.133	5604.75
845.381	5565.75
845.629	5606.75
845.877	5566.75
846.125	5526.75
846.373	5562.75
846.621	5515.75
846.869	5564.75
847.117	5516.75
847.365	5399.75
847.613	5453.75
847.861	5414.75
848.108	5458.75
848.356	5465.75
848.604	5381.75
848.851	5468.75
849.099	5490.75
849.346	5527.75
849.594	5499.75
849.841	5558.75
850.089	5496.75
850.336	5504.75
850.583	5526.75
850.831	5561.75
851.078	5531.75
851.325	5562.75
851.572	5673.75
851.819	5584.75
852.066	5413.75
852.313	5248.75
852.56	5234.75
852.807	5155.75
853.054	5165.75
853.301	5255.75
853.548	5220.75
853.794	5359.75
854.041	5338.75
854.288	5277.75
854.534	5436.75
854.781	5329.75
855.028	5326.75
855.274	5319.75
855.52	5318.75
855.767	5195.75
856.013	5296.75
856.26	5591.75
856.506	5211.75
856.752	5244.75
856.998	5197.75
857.244	5224.75
857.49	5297.75
857.736	5275.75
857.982	5230.75
858.228	5290.75
858.474	5174.75
858.72	5212.75
858.966	5213.75
859.212	5078.75
859.458	5011.75
859.703	4960.75
859.949	4905.75
860.195	4961.75
860.44	4907.75
860.686	4879.75
860.931	4923.75
861.177	4887.75
861.422	4860.75
861.667	4806.75
861.913	4788.75
862.158	4816.75
862.403	4904.75
862.648	4859.75
862.893	4946.75
863.138	4828.75
863.384	4861.75
863.629	4878.75
863.873	4861.75
864.118	4847.75
864.363	4774.75
864.608	4788.75
864.853	4812.75
865.098	4771.75
865.342	4787.75
865.587	4764.75
865.832	4782.75
866.076	4692.75
866.321	4714.75
866.565	4693.75
866.81	4656.75
867.054	4660.75
867.298	4697.75
867.543	4639.75
867.787	4696.75
868.031	4673.75
868.275	4652.75
868.519	4631.75
868.764	4698.75
869.008	4637.75
869.252	4646.75
869.496	4645.75
869.739	4640.75
869.983	4667.75
870.227	4628.75
870.471	4591.75
870.715	4684.75
870.958	4702.75
871.202	4648.75
871.446	4704.75
871.689	4634.75
871.933	4674.75
872.176	4658.75
872.42	4657.75
872.663	4629.75
872.906	4652.75
873.15	4634.75
873.393	4602.75
873.636	4635.75
873.879	4621.75
874.122	4540.75
874.366	4478.75
874.609	4466.75
874.852	4423.75
875.095	4419.75
875.337	4362.75
875.58	4244.75
875.823	4372.75
876.066	4399.75
876.309	4394.75
876.551	4267.75
876.794	4278.75
877.037	4317.75
877.279	4219.75
877.522	4270.75
877.764	4309.75
878.007	4246.75
878.249	4284.75
878.491	4236.75
878.734	4291.75
878.976	4284.75
879.218	4186.75
879.46	4236.75
879.702	4204.75
879.945	4161.75
880.187	4077.75
880.429	4103.75
880.671	4073.75
880.912	4063.75
881.154	4037.75
881.396	3914.75
881.638	4028.75
881.88	4014.75
882.121	3977.75
882.363	3992.75
882.605	4085.75
882.846	4029.75
883.088	4023.75
883.329	3987.75
883.571	3981.75
883.812	4038.75
884.053	4097.75
884.295	4225.75
884.536	4369.75
884.777	4246.75
885.018	4260.75
885.259	4245.75
885.5	4185.75
885.742	4422.75
885.982	4160.75
886.223	4093.75
886.464	4074.75
886.705	4035.75
886.946	3977.75
887.187	3889.75
887.428	3875.75
887.668	3841.75
887.909	3808.75
888.15	3737.75
888.39	3762.75
888.631	3772.75
888.871	3689.75
889.111	3701.75
889.352	3646.75
889.592	3642.75
889.833	3588.75
890.073	3566.75
890.313	3595.75
890.553	3486.75
890.793	3476.75
891.033	3493.75
891.273	3453.75
891.513	3446.75
891.753	3507.75
891.993	3480.75
892.233	3477.75
892.473	3578.75
892.713	3509.75
892.952	3458.75
893.192	3537.75
893.432	3484.75
893.671	3559.75
893.911	3498.75
894.15	3478.75
894.39	3443.75
894.629	3383.75
894.869	3460.75
895.108	3360.75
895.347	3334.75
895.587	3376.75
895.826	3367.75
896.065	3284.75
896.304	3374.75
896.543	3338.75
896.782	3246.75
897.021	3337.75
897.26	3380.75
897.499	3393.75
897.738	3421.75
897.977	3347.75
898.216	3309.75
898.454	3260.75
898.693	3188.75
898.932	3262.75
899.17	3231.75
899.409	3221.75
899.647	3203.75
899.886	3211.75
900.124	3205.75
900.363	3158.75
900.601	3236.75
900.839	3221.75
901.078	3220.75
901.316	3246.75
901.554	3269.75
901.792	3312.75
902.03	3216.75
902.268	3292.75
902.506	3311.75
902.744	3219.75
902.982	3235.75
903.22	3169.75
903.458	3123.75
903.695	3159.75
903.933	3101.75
904.171	2985.75
904.409	2954.75
904.646	2970.75
904.884	2891.75
905.121	2979.75
905.359	2908.75
905.596	2830.75
905.833	2812.75
906.071	2785.75
906.308	2820.75
906.545	2809.75
906.783	2765.75
907.02	2785.75
907.257	2739.75
907.494	2785.75
907.731	2755.75
907.968	2795.75
908.205	2715.75
908.442	2724.75
908.679	2705.75
908.915	2701.75
909.152	2693.75
909.389	2614.75
909.626	2647.75
909.862	2581.75
910.099	2618.75
910.335	2636.75
910.572	2569.75
910.808	2584.75
911.045	2615.75
911.281	2568.75
911.518	2615.75
911.754	2524.75
911.99	2522.75
912.226	2517.75
912.463	2462.75
912.699	2476.75
912.935	2508.75
913.171	2494.75
913.407	2437.75
913.643	2475.75
913.879	2421.75
914.114	2409.75
914.35	2410.75
914.586	2367.75
914.822	2313.75
915.057	2389.75
915.293	2276.75
915.529	2295.75
915.764	2386.75
916	2310.75
916.235	2315.75
916.471	2323.75
916.706	2250.75
916.941	2277.75
917.177	2293.75
917.412	2311.75
917.647	2309.75
917.882	2261.75
918.117	2278.75
918.352	2295.75
918.588	2316.75
918.823	2255.75
919.057	2263.75
919.292	2115.75
919.527	2244.75
919.762	2142.75
919.997	2211.75
920.232	2113.75
920.466	2149.75
920.701	2048.75
920.935	2089.75
921.17	2099.75
921.405	2103.75
921.639	2113.75
921.873	2065.75
922.108	2076.75
922.342	2080.75
922.576	2028.75
922.811	2032.75
923.045	2085.75
923.279	2119.75
923.513	1960.75
923.747	2047.75
923.981	2040.75
924.215	1970.75
924.449	2011.75
924.683	1945.75
924.917	1967.75
925.151	1980.75
925.385	2033.75
925.618	1990.75
925.852	1969.75
926.086	1891.75
926.319	1967.75
926.553	1923.75
926.786	1954.75
927.02	1952.75
927.253	1974.75
927.486	1977.75
927.72	1908.75
927.953	1952.75
928.186	1952.75
928.42	1928.75
928.653	1897.75
928.886	1868.75
929.119	1959.75
929.352	1912.75
929.585	1888.75
929.818	1854.75
930.051	1884.75
930.284	1872.75
930.516	1804.75
930.749	1790.75
930.982	1895.75
931.215	1866.75
931.447	1787.75
931.68	1808.75
931.912	1789.75
932.145	1775.75
932.377	1809.75
932.61	1924.75
932.842	1749.75
933.074	1843.75
933.307	1787.75
933.539	1869.75
933.771	1884.75
934.003	1833.75
934.236	1981.75
934.468	2057.75
934.7	1995.75
934.932	2045.75
935.164	1970.75
935.395	1972.75
935.627	1904.75
935.859	1837.75
936.091	1762.75
936.323	1826.75
936.554	1851.75
936.786	1774.75
937.017	1716.75
937.249	1777.75
937.481	1716.75
937.712	1795.75
937.943	1760.75
938.175	1726.75
938.406	1721.75
938.637	1778.75
938.869	1700.75
939.1	1750.75
939.331	1690.75
939.562	1726.75
939.793	1724.75
940.024	1754.75
940.255	1759.75
940.486	1696.75
940.717	1731.75
940.948	1724.75
941.179	1632.75
941.409	1694.75
941.64	1669.75
941.871	1653.75
942.102	1698.75
942.332	1661.75
942.563	1709.75
942.793	1723.75
943.024	1625.75
943.254	1686.75
943.484	1719.75
943.715	1712.75
943.945	1697.75
944.175	1623.75
944.405	1635.75
944.636	1620.75
944.866	1645.75
945.096	1663.75
945.326	1625.75
945.556	1686.75
945.786	1693.75
946.016	1646.75
946.245	1600.75
946.475	1644.75
946.705	1616.75
946.935	1630.75
947.164	1622.75
947.394	1578.75
947.624	1589.75
947.853	1657.75
948.083	1603.75
948.312	1577.75
948.542	1543.75
948.771	1527.75
949	1563.75
949.23	1563.75
949.459	1577.75
949.688	1629.75
949.917	1579.75
950.146	1606.75
950.375	1630.75
950.604	1538.75
950.833	1626.75
951.062	1588.75
951.291	1563.75
951.52	1532.75
951.749	1563.75
951.978	1516.75
952.206	1536.75
952.435	1533.75
952.664	1609.75
952.892	1597.75
953.121	1549.75
953.349	1566.75
953.578	1564.75
953.806	1534.75
954.035	1489.75
954.263	1542.75
954.491	1498.75
954.719	1523.75
954.948	1477.75
955.176	1480.75
955.404	1448.75
955.632	1502.75
955.86	1522.75
956.088	1469.75
956.316	1543.75
956.544	1532.75
956.772	1489.75
956.999	1459.75
957.227	1546.75
957.455	1441.75
957.683	1495.75
957.91	1448.75
958.138	1406.75
958.365	1420.75
958.593	1428.75
958.82	1397.75
959.048	1455.75
959.275	1441.75
959.502	1431.75
959.73	1402.75
959.957	1439.75
960.184	1483.75
960.411	1424.75
960.638	1501.75
960.865	1406.75
961.092	1463.75
961.319	1382.75
961.546	1456.75
961.773	1458.75
962	1411.75
962.227	1455.75
962.454	1430.75
962.68	1404.75
962.907	1414.75
963.134	1365.75
963.36	1415.75
963.587	1419.75
963.813	1364.75
964.04	1412.75
964.266	1329.75
964.493	1441.75
964.719	1402.75
964.945	1405.75
965.171	1307.75
965.398	1372.75
965.624	1407.75
965.85	1320.75
966.076	1323.75
966.302	1360.75
966.528	1355.75
966.754	1367.75
966.98	1339.75
967.206	1357.75
967.431	1306.75
967.657	1400.75
967.883	1371.75
968.109	1340.75
968.334	1315.75
968.56	1296.75
968.785	1319.75
969.011	1262.75
969.236	1384.75
969.462	1294.75
969.687	1295.75
969.912	1371.75
970.138	1380.75
970.363	1284.75
970.588	1313.75
970.813	1295.75
971.038	1266.75
971.263	1303.75
971.488	1315.75
971.713	1337.75
971.938	1306.75
972.163	1249.75
972.388	1292.75
972.613	1248.75
972.838	1267.75
973.062	1247.75
973.287	1259.75
973.512	1187.75
973.736	1242.75
973.961	1236.75
974.185	1225.75
974.41	1270.75
974.634	1150.75
974.858	1201.75
975.083	1233.75
975.307	1257.75
975.531	1195.75
975.755	1139.75
975.98	1170.75
976.204	1135.75
976.428	1131.75
976.652	1125.75
976.876	1116.75
977.1	1159.75
977.324	1130.75
977.547	1170.75
977.771	1214.75
977.995	1154.75
978.219	1091.75
978.442	1212.75
978.666	1163.75
978.89	1159.75
979.113	1148.75
979.337	1170.75
979.56	1121.75
979.783	1186.75
980.007	1110.75
980.23	1128.75
980.453	1098.75
980.677	1143.75
980.9	1126.75
981.123	1063.75
981.346	1141.75
981.569	1123.75
981.792	1136.75
982.015	1114.75
982.238	1092.75
982.461	1097.75
982.684	1087.75
982.907	1075.75
983.129	1043.75
983.352	1111.75
983.575	1097.75
983.797	1108.75
984.02	1073.75
984.242	1069.75
984.465	1083.75
984.687	1108.75
984.91	1132.75
985.132	1093.75
985.354	1101.75
985.577	1103.75
985.799	1108.75
986.021	1024.75
986.243	1057.75
986.465	1051.75
986.687	1114.75
986.909	1131.75
987.131	1108.75
987.353	1048.75
987.575	1082.75
987.797	1045.75
988.019	1006.75
988.241	1086.75
988.462	1041.75
988.684	1063.75
988.906	1111.75
989.127	1135.75
989.349	1029.75
989.57	1073.75
989.792	1092.75
990.013	1112.75
990.234	1119.75
990.456	1130.75
990.677	1126.75
990.898	1072.75
991.119	1081.75
991.341	1081.75
991.562	1034.75
991.783	1086.75
992.004	1010.75
992.225	1001.75
992.446	1065.75
992.667	976.75
992.887	1040.75
993.108	980.75
993.329	1097.75
993.55	1022.75
993.77	1014.75
993.991	1004.75
994.212	1060.75
994.432	1025.75
994.653	1044.75
994.873	1044.75
995.093	927.75
995.314	972.75
995.534	1061.75
995.754	1062.75
995.975	1074.75
996.195	961.75
996.415	1029.75
996.635	1018.75
996.855	1025.75
997.075	1002.75
997.295	998.75
997.515	992.75
997.735	1043.75
997.955	1002.75
998.174	1000.75
998.394	979.75
998.614	1041.75
998.834	982.75
999.053	1040.75
999.273	1039.75
999.492	1086.75
999.712	1028.75
999.931	978.75
1000.151	1042.75
1000.37	1016.75
1000.589	1097.75
1000.809	987.75
1001.028	1131.75
1001.247	1058.75
1001.466	957.75
1001.685	1098.75
1001.904	1049.75
1002.123	1042.75
1002.342	1048.75
1002.561	999.75
1002.78	1039.75
1002.999	1119.75
1003.218	1029.75
1003.436	1030.75
1003.655	1069.75
1003.874	1014.75
1004.092	1058.75
1004.311	1090.75
1004.53	1046.75
1004.748	1112.75
1004.966	1025.75
1005.185	1094.75
1005.403	1072.75
1005.622	1041.75
1005.84	1140.75
1006.058	1022.75
1006.276	1056.75
1006.494	1545.75
1006.712	1058.75
1006.931	1113.75
1007.149	1029.75
1007.367	1033.75
1007.584	1069.75
1007.802	1076.75
1008.02	1040.75
1008.238	1152.75
1008.456	1134.75
1008.673	1001.75
1008.891	1123.75
1009.109	1069.75
1009.326	1091.75
1009.544	1174.75
1009.761	1069.75
1009.979	1167.75
1010.196	1129.75
1010.413	1216.75
1010.631	1251.75
1010.848	1276.75
1011.065	1275.75
1011.282	1217.75
1011.5	1154.75
1011.717	1263.75
1011.934	1209.75
1012.151	1271.75
1012.368	1236.75
1012.585	1195.75
1012.801	1232.75
1013.018	1198.75
1013.235	1177.75
1013.452	1193.75
1013.669	1202.75
1013.885	1169.75
1014.102	1203.75
1014.318	1184.75
1014.535	1158.75
1014.751	1193.75
1014.968	1203.75
1015.184	1215.75
1015.401	1131.75
1015.617	1160.75
1015.833	1105.75
1016.049	1121.75
1016.266	1118.75
1016.482	1126.75
1016.698	1051.75
1016.914	1137.75
1017.13	1062.75
1017.346	1069.75
1017.562	1140.75
1017.778	1077.75
1017.993	1028.75
1018.209	1107.75
1018.425	1074.75
1018.641	1056.75
1018.856	1031.75
1019.072	1040.75
1019.288	1108.75
1019.503	1056.75
1019.719	981.75
1019.934	990.75
1020.149	1067.75
1020.365	1021.75
1020.58	968.75
1020.795	1034.75
1021.011	979.75
1021.226	979.75
1021.441	1000.75
1021.656	922.75
1021.871	869.75
1022.086	868.75
1022.301	891.75
1022.516	849.75
1022.731	972.75
1022.946	847.75
1023.16	841.75
1023.375	799.75
1023.59	786.75
1023.804	769.75
1024.019	859.75
1024.234	749.75
1024.448	778.75
1024.663	717.75
1024.877	729.75
1025.092	752.75
1025.306	768.75
1025.52	676.75
1025.734	779.75
1025.949	715.75
1026.163	672.75
1026.377	624.75
1026.591	667.75
1026.805	604.75
1027.019	621.75
1027.233	566.75
1027.447	520.75
1027.661	643.75
1027.875	583.75
1028.088	566.75
1028.302	526.75
1028.516	536.75
1028.73	527.75
1028.943	523.75
1029.157	473.75
1029.37	453.75
1029.584	0.75
1029.797	-0.25
1030.011	-5.25
1030.224	-3.25
