Data from QEP037381__102__10-20-22-732.txt Node

Date: Wed Dec 21 10:20:22 EST 2022
User: dcclab
Spectrometer: QEP03738
Trigger mode: 4
Integration Time (sec): 1.000000E1
Scans to average: 1
Electric dark correction enabled: true
Nonlinearity correction enabled: false
Boxcar width: 0
XAxis mode: Wavelengths
Number of Pixels in Spectrum: 1044
>>>>>Begin Spectral Data<<<<<
784.041	13.38
784.3	3.38
784.558	-5.62
784.817	-3.62
785.075	75742.38
785.334	13138.38
785.592	6096.38
785.851	4190.38
786.109	3200.38
786.368	2503.38
786.626	2011.38
786.884	1689.38
787.143	1437.38
787.401	1151.38
787.659	1082.38
787.917	931.38
788.175	861.38
788.433	756.38
788.691	696.38
788.949	646.38
789.207	624.38
789.465	541.38
789.723	522.38
789.98	483.38
790.238	520.38
790.496	504.38
790.753	475.38
791.011	511.38
791.268	459.38
791.526	452.38
791.783	464.38
792.041	458.38
792.298	375.38
792.556	438.38
792.813	428.38
793.07	412.38
793.327	390.38
793.584	466.38
793.841	405.38
794.099	415.38
794.356	457.38
794.613	353.38
794.869	426.38
795.126	370.38
795.383	353.38
795.64	373.38
795.897	341.38
796.153	391.38
796.41	371.38
796.667	364.38
796.923	362.38
797.18	357.38
797.436	379.38
797.693	349.38
797.949	406.38
798.206	411.38
798.462	332.38
798.718	396.38
798.974	360.38
799.231	400.38
799.487	389.38
799.743	383.38
799.999	398.38
800.255	396.38
800.511	372.38
800.767	405.38
801.023	384.38
801.279	389.38
801.534	412.38
801.79	421.38
802.046	398.38
802.302	470.38
802.557	454.38
802.813	525.38
803.068	511.38
803.324	634.38
803.579	719.38
803.835	888.38
804.09	1153.38
804.345	1388.38
804.601	1710.38
804.856	2017.38
805.111	2302.38
805.366	2518.38
805.621	2609.38
805.876	2755.38
806.131	2793.38
806.386	2820.38
806.641	2853.38
806.896	2855.38
807.151	3020.38
807.406	2986.38
807.661	3065.38
807.915	3090.38
808.17	3136.38
808.425	3164.38
808.679	3128.38
808.934	3260.38
809.188	3270.38
809.443	3269.38
809.697	3312.38
809.951	3319.38
810.206	3331.38
810.46	3384.38
810.714	3409.38
810.968	3484.38
811.223	3362.38
811.477	3460.38
811.731	3516.38
811.985	3464.38
812.239	3437.38
812.493	3523.38
812.747	3525.38
813	3488.38
813.254	3598.38
813.508	3621.38
813.762	3600.38
814.015	3584.38
814.269	3639.38
814.522	3688.38
814.776	3739.38
815.03	3759.38
815.283	3817.38
815.536	3877.38
815.79	3895.38
816.043	3965.38
816.296	3986.38
816.55	4052.38
816.803	4097.38
817.056	4197.38
817.309	4157.38
817.562	4180.38
817.815	4328.38
818.068	4276.38
818.321	4341.38
818.574	4324.38
818.827	4441.38
819.079	4444.38
819.332	4660.38
819.585	4616.38
819.838	4731.38
820.09	4667.38
820.343	4782.38
820.595	4733.38
820.848	4800.38
821.1	4776.38
821.353	4791.38
821.605	4752.38
821.857	4835.38
822.11	4739.38
822.362	4782.38
822.614	4731.38
822.866	4793.38
823.118	4778.38
823.37	4900.38
823.622	4823.38
823.874	4865.38
824.126	4904.38
824.378	4885.38
824.63	4910.38
824.882	4940.38
825.134	4947.38
825.385	4882.38
825.637	4868.38
825.888	4833.38
826.14	4828.38
826.392	4754.38
826.643	4746.38
826.895	4776.38
827.146	4728.38
827.397	4716.38
827.649	4784.38
827.9	4668.38
828.151	4701.38
828.402	4703.38
828.653	4736.38
828.905	4751.38
829.156	4849.38
829.407	4731.38
829.658	4778.38
829.909	4810.38
830.159	4793.38
830.41	4762.38
830.661	4750.38
830.912	4740.38
831.162	4674.38
831.413	4687.38
831.664	4743.38
831.914	4719.38
832.165	4712.38
832.415	4707.38
832.666	4725.38
832.916	4740.38
833.167	4711.38
833.417	4770.38
833.667	4693.38
833.917	4734.38
834.168	4734.38
834.418	4724.38
834.668	4685.38
834.918	4675.38
835.168	4660.38
835.418	4614.38
835.668	4616.38
835.918	4658.38
836.167	4625.38
836.417	4551.38
836.667	4643.38
836.917	4645.38
837.166	4552.38
837.416	4556.38
837.666	4622.38
837.915	4524.38
838.165	4538.38
838.414	4463.38
838.663	4451.38
838.913	4536.38
839.162	4458.38
839.411	4546.38
839.661	4484.38
839.91	4482.38
840.159	4451.38
840.408	4508.38
840.657	4504.38
840.906	4559.38
841.155	4546.38
841.404	4478.38
841.653	4544.38
841.902	4442.38
842.15	4501.38
842.399	4488.38
842.648	4482.38
842.897	4449.38
843.145	4380.38
843.394	4437.38
843.642	4364.38
843.891	4416.38
844.139	4338.38
844.388	4360.38
844.636	4287.38
844.884	4297.38
845.133	4314.38
845.381	4312.38
845.629	4373.38
845.877	4272.38
846.125	4240.38
846.373	4318.38
846.621	4259.38
846.869	4278.38
847.117	4286.38
847.365	4265.38
847.613	4194.38
847.861	4202.38
848.108	4254.38
848.356	4221.38
848.604	4228.38
848.851	4202.38
849.099	4262.38
849.346	4203.38
849.594	4253.38
849.841	4303.38
850.089	4231.38
850.336	4281.38
850.583	4288.38
850.831	4327.38
851.078	4360.38
851.325	4358.38
851.572	4491.38
851.819	4404.38
852.066	4193.38
852.313	4129.38
852.56	3989.38
852.807	4013.38
853.054	4037.38
853.301	4070.38
853.548	4105.38
853.794	4152.38
854.041	4163.38
854.288	4121.38
854.534	4223.38
854.781	4192.38
855.028	4112.38
855.274	4170.38
855.52	4088.38
855.767	4029.38
856.013	4084.38
856.26	4348.38
856.506	4043.38
856.752	4048.38
856.998	3965.38
857.244	3980.38
857.49	4078.38
857.736	4066.38
857.982	4055.38
858.228	4076.38
858.474	4027.38
858.72	4000.38
858.966	3971.38
859.212	3949.38
859.458	3878.38
859.703	3859.38
859.949	3820.38
860.195	3849.38
860.44	3779.38
860.686	3761.38
860.931	3837.38
861.177	3727.38
861.422	3746.38
861.667	3683.38
861.913	3704.38
862.158	3723.38
862.403	3773.38
862.648	3821.38
862.893	3808.38
863.138	3811.38
863.384	3751.38
863.629	3752.38
863.873	3719.38
864.118	3750.38
864.363	3697.38
864.608	3737.38
864.853	3777.38
865.098	3697.38
865.342	3680.38
865.587	3699.38
865.832	3734.38
866.076	3713.38
866.321	3656.38
866.565	3670.38
866.81	3579.38
867.054	3657.38
867.298	3631.38
867.543	3609.38
867.787	3564.38
868.031	3574.38
868.275	3563.38
868.519	3581.38
868.764	3606.38
869.008	3572.38
869.252	3609.38
869.496	3568.38
869.739	3548.38
869.983	3602.38
870.227	3562.38
870.471	3572.38
870.715	3605.38
870.958	3578.38
871.202	3592.38
871.446	3581.38
871.689	3550.38
871.933	3597.38
872.176	3587.38
872.42	3580.38
872.663	3564.38
872.906	3609.38
873.15	3531.38
873.393	3473.38
873.636	3546.38
873.879	3551.38
874.122	3535.38
874.366	3463.38
874.609	3448.38
874.852	3411.38
875.095	3365.38
875.337	3365.38
875.58	3342.38
875.823	3321.38
876.066	3403.38
876.309	3400.38
876.551	3315.38
876.794	3286.38
877.037	3324.38
877.279	3278.38
877.522	3220.38
877.764	3322.38
878.007	3281.38
878.249	3294.38
878.491	3222.38
878.734	3264.38
878.976	3278.38
879.218	3231.38
879.46	3277.38
879.702	3227.38
879.945	3147.38
880.187	3114.38
880.429	3168.38
880.671	3161.38
880.912	3121.38
881.154	3109.38
881.396	3046.38
881.638	3089.38
881.88	3105.38
882.121	3073.38
882.363	3074.38
882.605	3101.38
882.846	3073.38
883.088	3110.38
883.329	3060.38
883.571	3056.38
883.812	3065.38
884.053	3132.38
884.295	3236.38
884.536	3337.38
884.777	3296.38
885.018	3246.38
885.259	3278.38
885.5	3190.38
885.742	3477.38
885.982	3192.38
886.223	3128.38
886.464	3113.38
886.705	3033.38
886.946	3060.38
887.187	2971.38
887.428	3043.38
887.668	2914.38
887.909	2859.38
888.15	2838.38
888.39	2877.38
888.631	2896.38
888.871	2893.38
889.111	2833.38
889.352	2800.38
889.592	2778.38
889.833	2740.38
890.073	2751.38
890.313	2772.38
890.553	2647.38
890.793	2676.38
891.033	2672.38
891.273	2676.38
891.513	2691.38
891.753	2714.38
891.993	2648.38
892.233	2709.38
892.473	2697.38
892.713	2706.38
892.952	2667.38
893.192	2684.38
893.432	2691.38
893.671	2735.38
893.911	2673.38
894.15	2650.38
894.39	2581.38
894.629	2625.38
894.869	2631.38
895.108	2610.38
895.347	2573.38
895.587	2576.38
895.826	2586.38
896.065	2576.38
896.304	2612.38
896.543	2620.38
896.782	2520.38
897.021	2585.38
897.26	2594.38
897.499	2609.38
897.738	2627.38
897.977	2562.38
898.216	2521.38
898.454	2507.38
898.693	2492.38
898.932	2492.38
899.17	2442.38
899.409	2485.38
899.647	2430.38
899.886	2430.38
900.124	2463.38
900.363	2399.38
900.601	2479.38
900.839	2480.38
901.078	2475.38
901.316	2487.38
901.554	2491.38
901.792	2503.38
902.03	2474.38
902.268	2497.38
902.506	2519.38
902.744	2469.38
902.982	2510.38
903.22	2423.38
903.458	2418.38
903.695	2403.38
903.933	2413.38
904.171	2280.38
904.409	2285.38
904.646	2277.38
904.884	2218.38
905.121	2270.38
905.359	2207.38
905.596	2179.38
905.833	2134.38
906.071	2155.38
906.308	2160.38
906.545	2176.38
906.783	2123.38
907.02	2141.38
907.257	2071.38
907.494	2119.38
907.731	2130.38
907.968	2131.38
908.205	2108.38
908.442	2080.38
908.679	2108.38
908.915	2072.38
909.152	2086.38
909.389	2000.38
909.626	2016.38
909.862	2006.38
910.099	1995.38
910.335	2068.38
910.572	1951.38
910.808	2027.38
911.045	2021.38
911.281	1980.38
911.518	2011.38
911.754	1963.38
911.99	1963.38
912.226	1986.38
912.463	1903.38
912.699	1922.38
912.935	1941.38
913.171	1885.38
913.407	1876.38
913.643	1916.38
913.879	1886.38
914.114	1861.38
914.35	1827.38
914.586	1841.38
914.822	1799.38
915.057	1864.38
915.293	1758.38
915.529	1730.38
915.764	1847.38
916	1835.38
916.235	1782.38
916.471	1844.38
916.706	1704.38
916.941	1758.38
917.177	1753.38
917.412	1778.38
917.647	1801.38
917.882	1759.38
918.117	1802.38
918.352	1784.38
918.588	1836.38
918.823	1724.38
919.057	1727.38
919.292	1639.38
919.527	1764.38
919.762	1700.38
919.997	1743.38
920.232	1674.38
920.466	1706.38
920.701	1598.38
920.935	1659.38
921.17	1600.38
921.405	1610.38
921.639	1651.38
921.873	1627.38
922.108	1632.38
922.342	1631.38
922.576	1577.38
922.811	1613.38
923.045	1599.38
923.279	1639.38
923.513	1544.38
923.747	1634.38
923.981	1618.38
924.215	1539.38
924.449	1559.38
924.683	1504.38
924.917	1523.38
925.151	1531.38
925.385	1609.38
925.618	1549.38
925.852	1558.38
926.086	1473.38
926.319	1558.38
926.553	1526.38
926.786	1544.38
927.02	1525.38
927.253	1554.38
927.486	1546.38
927.72	1491.38
927.953	1575.38
928.186	1504.38
928.42	1543.38
928.653	1479.38
928.886	1472.38
929.119	1512.38
929.352	1504.38
929.585	1497.38
929.818	1433.38
930.051	1495.38
930.284	1504.38
930.516	1394.38
930.749	1407.38
930.982	1483.38
931.215	1446.38
931.447	1380.38
931.68	1416.38
931.912	1401.38
932.145	1417.38
932.377	1403.38
932.61	1545.38
932.842	1346.38
933.074	1431.38
933.307	1360.38
933.539	1491.38
933.771	1440.38
934.003	1405.38
934.236	1475.38
934.468	1467.38
934.7	1396.38
934.932	1449.38
935.164	1376.38
935.395	1356.38
935.627	1384.38
935.859	1408.38
936.091	1344.38
936.323	1397.38
936.554	1453.38
936.786	1394.38
937.017	1336.38
937.249	1391.38
937.481	1329.38
937.712	1406.38
937.943	1375.38
938.175	1346.38
938.406	1357.38
938.637	1424.38
938.869	1306.38
939.1	1387.38
939.331	1363.38
939.562	1397.38
939.793	1360.38
940.024	1389.38
940.255	1405.38
940.486	1343.38
940.717	1342.38
940.948	1304.38
941.179	1325.38
941.409	1329.38
941.64	1325.38
941.871	1333.38
942.102	1319.38
942.332	1326.38
942.563	1357.38
942.793	1314.38
943.024	1254.38
943.254	1294.38
943.484	1372.38
943.715	1366.38
943.945	1350.38
944.175	1265.38
944.405	1274.38
944.636	1267.38
944.866	1326.38
945.096	1327.38
945.326	1273.38
945.556	1328.38
945.786	1337.38
946.016	1303.38
946.245	1234.38
946.475	1286.38
946.705	1257.38
946.935	1286.38
947.164	1306.38
947.394	1275.38
947.624	1282.38
947.853	1317.38
948.083	1275.38
948.312	1238.38
948.542	1223.38
948.771	1210.38
949	1234.38
949.23	1215.38
949.459	1229.38
949.688	1285.38
949.917	1255.38
950.146	1234.38
950.375	1305.38
950.604	1200.38
950.833	1269.38
951.062	1297.38
951.291	1238.38
951.52	1225.38
951.749	1228.38
951.978	1180.38
952.206	1214.38
952.435	1198.38
952.664	1243.38
952.892	1235.38
953.121	1230.38
953.349	1264.38
953.578	1238.38
953.806	1241.38
954.035	1169.38
954.263	1225.38
954.491	1165.38
954.719	1219.38
954.948	1201.38
955.176	1165.38
955.404	1128.38
955.632	1184.38
955.86	1200.38
956.088	1188.38
956.316	1212.38
956.544	1226.38
956.772	1142.38
956.999	1154.38
957.227	1234.38
957.455	1155.38
957.683	1161.38
957.91	1126.38
958.138	1137.38
958.365	1130.38
958.593	1138.38
958.82	1076.38
959.048	1172.38
959.275	1144.38
959.502	1136.38
959.73	1108.38
959.957	1189.38
960.184	1205.38
960.411	1161.38
960.638	1209.38
960.865	1166.38
961.092	1168.38
961.319	1085.38
961.546	1173.38
961.773	1175.38
962	1118.38
962.227	1184.38
962.454	1160.38
962.68	1127.38
962.907	1123.38
963.134	1120.38
963.36	1113.38
963.587	1180.38
963.813	1111.38
964.04	1137.38
964.266	1082.38
964.493	1178.38
964.719	1155.38
964.945	1158.38
965.171	1042.38
965.398	1116.38
965.624	1144.38
965.85	1088.38
966.076	1066.38
966.302	1129.38
966.528	1104.38
966.754	1147.38
966.98	1116.38
967.206	1104.38
967.431	1056.38
967.657	1140.38
967.883	1101.38
968.109	1093.38
968.334	1045.38
968.56	1052.38
968.785	1054.38
969.011	1024.38
969.236	1109.38
969.462	1054.38
969.687	1067.38
969.912	1078.38
970.138	1128.38
970.363	1030.38
970.588	1077.38
970.813	1060.38
971.038	1025.38
971.263	1074.38
971.488	1078.38
971.713	1116.38
971.938	1088.38
972.163	1001.38
972.388	1029.38
972.613	1009.38
972.838	1027.38
973.062	1014.38
973.287	1042.38
973.512	971.38
973.736	1020.38
973.961	1006.38
974.185	983.38
974.41	1026.38
974.634	934.38
974.858	965.38
975.083	1018.38
975.307	1035.38
975.531	970.38
975.755	944.38
975.98	974.38
976.204	943.38
976.428	911.38
976.652	941.38
976.876	921.38
977.1	953.38
977.324	937.38
977.547	981.38
977.771	964.38
977.995	944.38
978.219	885.38
978.442	1007.38
978.666	979.38
978.89	949.38
979.113	959.38
979.337	948.38
979.56	909.38
979.783	1017.38
980.007	891.38
980.23	944.38
980.453	888.38
980.677	952.38
980.9	952.38
981.123	859.38
981.346	961.38
981.569	949.38
981.792	952.38
982.015	923.38
982.238	907.38
982.461	917.38
982.684	913.38
982.907	886.38
983.129	880.38
983.352	924.38
983.575	913.38
983.797	933.38
984.02	872.38
984.242	892.38
984.465	909.38
984.687	928.38
984.91	955.38
985.132	943.38
985.354	965.38
985.577	930.38
985.799	919.38
986.021	855.38
986.243	851.38
986.465	898.38
986.687	943.38
986.909	961.38
987.131	908.38
987.353	876.38
987.575	919.38
987.797	892.38
988.019	825.38
988.241	911.38
988.462	856.38
988.684	926.38
988.906	934.38
989.127	945.38
989.349	851.38
989.57	895.38
989.792	913.38
990.013	925.38
990.234	953.38
990.456	986.38
990.677	943.38
990.898	880.38
991.119	891.38
991.341	941.38
991.562	892.38
991.783	911.38
992.004	863.38
992.225	855.38
992.446	910.38
992.667	800.38
992.887	906.38
993.108	807.38
993.329	945.38
993.55	904.38
993.77	820.38
993.991	876.38
994.212	905.38
994.432	879.38
994.653	908.38
994.873	893.38
995.093	799.38
995.314	834.38
995.534	902.38
995.754	939.38
995.975	951.38
996.195	833.38
996.415	902.38
996.635	873.38
996.855	885.38
997.075	861.38
997.295	849.38
997.515	836.38
997.735	912.38
997.955	879.38
998.174	868.38
998.394	838.38
998.614	894.38
998.834	849.38
999.053	924.38
999.273	898.38
999.492	943.38
999.712	887.38
999.931	848.38
1000.151	912.38
1000.37	893.38
1000.589	961.38
1000.809	869.38
1001.028	985.38
1001.247	941.38
1001.466	840.38
1001.685	976.38
1001.904	930.38
1002.123	910.38
1002.342	931.38
1002.561	888.38
1002.78	920.38
1002.999	993.38
1003.218	928.38
1003.436	933.38
1003.655	963.38
1003.874	907.38
1004.092	912.38
1004.311	954.38
1004.53	923.38
1004.748	990.38
1004.966	938.38
1005.185	978.38
1005.403	983.38
1005.622	936.38
1005.84	1006.38
1006.058	923.38
1006.276	960.38
1006.494	1438.38
1006.712	953.38
1006.931	993.38
1007.149	929.38
1007.367	933.38
1007.584	969.38
1007.802	991.38
1008.02	916.38
1008.238	1017.38
1008.456	1008.38
1008.673	876.38
1008.891	983.38
1009.109	933.38
1009.326	960.38
1009.544	1058.38
1009.761	948.38
1009.979	1016.38
1010.196	1006.38
1010.413	1060.38
1010.631	1078.38
1010.848	1109.38
1011.065	1094.38
1011.282	1066.38
1011.5	985.38
1011.717	1107.38
1011.934	1052.38
1012.151	1090.38
1012.368	1058.38
1012.585	1019.38
1012.801	1070.38
1013.018	1031.38
1013.235	1015.38
1013.452	1009.38
1013.669	1040.38
1013.885	1019.38
1014.102	1037.38
1014.318	1015.38
1014.535	961.38
1014.751	1020.38
1014.968	1019.38
1015.184	1046.38
1015.401	962.38
1015.617	1012.38
1015.833	964.38
1016.049	959.38
1016.266	946.38
1016.482	959.38
1016.698	917.38
1016.914	963.38
1017.13	925.38
1017.346	901.38
1017.562	1000.38
1017.778	921.38
1017.993	916.38
1018.209	953.38
1018.425	934.38
1018.641	910.38
1018.856	868.38
1019.072	897.38
1019.288	952.38
1019.503	917.38
1019.719	822.38
1019.934	863.38
1020.149	937.38
1020.365	880.38
1020.58	846.38
1020.795	888.38
1021.011	822.38
1021.226	815.38
1021.441	866.38
1021.656	795.38
1021.871	755.38
1022.086	756.38
1022.301	760.38
1022.516	751.38
1022.731	858.38
1022.946	733.38
1023.16	718.38
1023.375	705.38
1023.59	695.38
1023.804	653.38
1024.019	768.38
1024.234	640.38
1024.448	686.38
1024.663	632.38
1024.877	642.38
1025.092	667.38
1025.306	694.38
1025.52	611.38
1025.734	682.38
1025.949	608.38
1026.163	603.38
1026.377	541.38
1026.591	614.38
1026.805	540.38
1027.019	539.38
1027.233	515.38
1027.447	475.38
1027.661	569.38
1027.875	510.38
1028.088	533.38
1028.302	464.38
1028.516	478.38
1028.73	465.38
1028.943	478.38
1029.157	438.38
1029.37	418.38
1029.584	-1.62
1029.797	-1.62
1030.011	-1.62
1030.224	-2.62
