Data from QEP037381__141__10-26-52-734.txt Node

Date: Wed Dec 21 10:26:52 EST 2022
User: dcclab
Spectrometer: QEP03738
Trigger mode: 4
Integration Time (sec): 1.000000E1
Scans to average: 1
Electric dark correction enabled: true
Nonlinearity correction enabled: false
Boxcar width: 0
XAxis mode: Wavelengths
Number of Pixels in Spectrum: 1044
>>>>>Begin Spectral Data<<<<<
784.041	13.5
784.3	-0.5
784.558	-1.5
784.817	-4.5
785.075	76941.5
785.334	13756.5
785.592	6599.5
785.851	4570.5
786.109	3455.5
786.368	2706.5
786.626	2206.5
786.884	1822.5
787.143	1537.5
787.401	1266.5
787.659	1148.5
787.917	979.5
788.175	909.5
788.433	823.5
788.691	736.5
788.949	678.5
789.207	645.5
789.465	545.5
789.723	553.5
789.98	514.5
790.238	545.5
790.496	499.5
790.753	495.5
791.011	535.5
791.268	475.5
791.526	448.5
791.783	466.5
792.041	465.5
792.298	378.5
792.556	447.5
792.813	431.5
793.07	403.5
793.327	393.5
793.584	471.5
793.841	382.5
794.099	417.5
794.356	467.5
794.613	372.5
794.869	407.5
795.126	374.5
795.383	356.5
795.64	378.5
795.897	331.5
796.153	374.5
796.41	367.5
796.667	352.5
796.923	374.5
797.18	351.5
797.436	374.5
797.693	348.5
797.949	397.5
798.206	414.5
798.462	337.5
798.718	387.5
798.974	363.5
799.231	402.5
799.487	375.5
799.743	385.5
799.999	411.5
800.255	384.5
800.511	359.5
800.767	404.5
801.023	367.5
801.279	397.5
801.534	409.5
801.79	424.5
802.046	400.5
802.302	470.5
802.557	456.5
802.813	516.5
803.068	515.5
803.324	637.5
803.579	731.5
803.835	889.5
804.09	1180.5
804.345	1391.5
804.601	1716.5
804.856	2103.5
805.111	2390.5
805.366	2602.5
805.621	2754.5
805.876	2868.5
806.131	2887.5
806.386	2946.5
806.641	2908.5
806.896	2996.5
807.151	3113.5
807.406	3056.5
807.661	3154.5
807.915	3212.5
808.17	3217.5
808.425	3286.5
808.679	3296.5
808.934	3390.5
809.188	3350.5
809.443	3434.5
809.697	3486.5
809.951	3403.5
810.206	3515.5
810.46	3559.5
810.714	3559.5
810.968	3619.5
811.223	3557.5
811.477	3580.5
811.731	3691.5
811.985	3615.5
812.239	3589.5
812.493	3642.5
812.747	3675.5
813	3661.5
813.254	3744.5
813.508	3760.5
813.762	3752.5
814.015	3747.5
814.269	3774.5
814.522	3844.5
814.776	3887.5
815.03	3951.5
815.283	4004.5
815.536	4053.5
815.79	4090.5
816.043	4141.5
816.296	4154.5
816.55	4220.5
816.803	4284.5
817.056	4396.5
817.309	4362.5
817.562	4420.5
817.815	4511.5
818.068	4451.5
818.321	4549.5
818.574	4548.5
818.827	4665.5
819.079	4652.5
819.332	4889.5
819.585	4816.5
819.838	4939.5
820.09	4924.5
820.343	5012.5
820.595	4951.5
820.848	5046.5
821.1	5069.5
821.353	5086.5
821.605	5019.5
821.857	5093.5
822.11	4930.5
822.362	5020.5
822.614	5028.5
822.866	5055.5
823.118	5013.5
823.37	5143.5
823.622	5067.5
823.874	5102.5
824.126	5187.5
824.378	5155.5
824.63	5196.5
824.882	5250.5
825.134	5179.5
825.385	5173.5
825.637	5178.5
825.888	5093.5
826.14	5083.5
826.392	5039.5
826.643	4939.5
826.895	5116.5
827.146	5017.5
827.397	4966.5
827.649	5031.5
827.9	4982.5
828.151	4924.5
828.402	4977.5
828.653	5003.5
828.905	5041.5
829.156	5087.5
829.407	5046.5
829.658	5031.5
829.909	5055.5
830.159	5053.5
830.41	5056.5
830.661	4976.5
830.912	4952.5
831.162	4918.5
831.413	4950.5
831.664	4979.5
831.914	4939.5
832.165	4973.5
832.415	4980.5
832.666	4991.5
832.916	5058.5
833.167	4976.5
833.417	5028.5
833.667	4970.5
833.917	4918.5
834.168	4988.5
834.418	4976.5
834.668	5010.5
834.918	4916.5
835.168	4920.5
835.418	4865.5
835.668	4928.5
835.918	4929.5
836.167	4878.5
836.417	4809.5
836.667	4922.5
836.917	4928.5
837.166	4847.5
837.416	4870.5
837.666	4851.5
837.915	4866.5
838.165	4832.5
838.414	4767.5
838.663	4680.5
838.913	4721.5
839.162	4770.5
839.411	4814.5
839.661	4744.5
839.91	4795.5
840.159	4743.5
840.408	4729.5
840.657	4769.5
840.906	4784.5
841.155	4769.5
841.404	4759.5
841.653	4756.5
841.902	4748.5
842.15	4799.5
842.399	4817.5
842.648	4742.5
842.897	4749.5
843.145	4699.5
843.394	4677.5
843.642	4665.5
843.891	4708.5
844.139	4644.5
844.388	4621.5
844.636	4496.5
844.884	4590.5
845.133	4561.5
845.381	4622.5
845.629	4635.5
845.877	4554.5
846.125	4571.5
846.373	4597.5
846.621	4542.5
846.869	4555.5
847.117	4592.5
847.365	4501.5
847.613	4515.5
847.861	4553.5
848.108	4534.5
848.356	4516.5
848.604	4495.5
848.851	4459.5
849.099	4555.5
849.346	4523.5
849.594	4580.5
849.841	4561.5
850.089	4594.5
850.336	4565.5
850.583	4579.5
850.831	4601.5
851.078	4579.5
851.325	4602.5
851.572	4764.5
851.819	4688.5
852.066	4475.5
852.313	4346.5
852.56	4289.5
852.807	4267.5
853.054	4252.5
853.301	4345.5
853.548	4366.5
853.794	4476.5
854.041	4414.5
854.288	4400.5
854.534	4547.5
854.781	4483.5
855.028	4417.5
855.274	4460.5
855.52	4377.5
855.767	4354.5
856.013	4374.5
856.26	4686.5
856.506	4298.5
856.752	4370.5
856.998	4327.5
857.244	4300.5
857.49	4351.5
857.736	4390.5
857.982	4383.5
858.228	4346.5
858.474	4270.5
858.72	4291.5
858.966	4255.5
859.212	4241.5
859.458	4193.5
859.703	4145.5
859.949	4035.5
860.195	4115.5
860.44	4126.5
860.686	3982.5
860.931	4072.5
861.177	3989.5
861.422	4017.5
861.667	3975.5
861.913	3926.5
862.158	4018.5
862.403	4048.5
862.648	4063.5
862.893	4099.5
863.138	4073.5
863.384	4009.5
863.629	4027.5
863.873	4019.5
864.118	4042.5
864.363	3975.5
864.608	4013.5
864.853	4018.5
865.098	3956.5
865.342	3980.5
865.587	3903.5
865.832	3975.5
866.076	3963.5
866.321	3912.5
866.565	3940.5
866.81	3881.5
867.054	3873.5
867.298	3855.5
867.543	3848.5
867.787	3867.5
868.031	3859.5
868.275	3850.5
868.519	3868.5
868.764	3851.5
869.008	3861.5
869.252	3907.5
869.496	3776.5
869.739	3806.5
869.983	3895.5
870.227	3813.5
870.471	3868.5
870.715	3859.5
870.958	3911.5
871.202	3832.5
871.446	3851.5
871.689	3835.5
871.933	3887.5
872.176	3869.5
872.42	3832.5
872.663	3793.5
872.906	3919.5
873.15	3858.5
873.393	3773.5
873.636	3849.5
873.879	3831.5
874.122	3766.5
874.366	3727.5
874.609	3694.5
874.852	3619.5
875.095	3653.5
875.337	3628.5
875.58	3591.5
875.823	3616.5
876.066	3646.5
876.309	3672.5
876.551	3580.5
876.794	3520.5
877.037	3610.5
877.279	3513.5
877.522	3546.5
877.764	3555.5
878.007	3516.5
878.249	3502.5
878.491	3480.5
878.734	3578.5
878.976	3530.5
879.218	3437.5
879.46	3542.5
879.702	3501.5
879.945	3421.5
880.187	3384.5
880.429	3386.5
880.671	3325.5
880.912	3392.5
881.154	3355.5
881.396	3263.5
881.638	3340.5
881.88	3356.5
882.121	3314.5
882.363	3296.5
882.605	3380.5
882.846	3342.5
883.088	3362.5
883.329	3296.5
883.571	3271.5
883.812	3341.5
884.053	3404.5
884.295	3500.5
884.536	3662.5
884.777	3522.5
885.018	3531.5
885.259	3524.5
885.5	3425.5
885.742	3780.5
885.982	3487.5
886.223	3388.5
886.464	3385.5
886.705	3293.5
886.946	3320.5
887.187	3208.5
887.428	3286.5
887.668	3164.5
887.909	3148.5
888.15	3096.5
888.39	3096.5
888.631	3153.5
888.871	3117.5
889.111	3070.5
889.352	3044.5
889.592	2990.5
889.833	2959.5
890.073	2982.5
890.313	3001.5
890.553	2931.5
890.793	2904.5
891.033	2880.5
891.273	2841.5
891.513	2914.5
891.753	2945.5
891.993	2867.5
892.233	2919.5
892.473	2998.5
892.713	2932.5
892.952	2837.5
893.192	2922.5
893.432	2906.5
893.671	2954.5
893.911	2898.5
894.15	2931.5
894.39	2828.5
894.629	2828.5
894.869	2861.5
895.108	2804.5
895.347	2794.5
895.587	2777.5
895.826	2786.5
896.065	2798.5
896.304	2826.5
896.543	2836.5
896.782	2742.5
897.021	2745.5
897.26	2770.5
897.499	2830.5
897.738	2816.5
897.977	2822.5
898.216	2728.5
898.454	2700.5
898.693	2648.5
898.932	2697.5
899.17	2674.5
899.409	2660.5
899.647	2669.5
899.886	2639.5
900.124	2666.5
900.363	2628.5
900.601	2671.5
900.839	2676.5
901.078	2710.5
901.316	2708.5
901.554	2716.5
901.792	2729.5
902.03	2669.5
902.268	2709.5
902.506	2747.5
902.744	2712.5
902.982	2729.5
903.22	2629.5
903.458	2607.5
903.695	2582.5
903.933	2563.5
904.171	2483.5
904.409	2468.5
904.646	2478.5
904.884	2402.5
905.121	2473.5
905.359	2432.5
905.596	2384.5
905.833	2320.5
906.071	2338.5
906.308	2405.5
906.545	2349.5
906.783	2260.5
907.02	2293.5
907.257	2286.5
907.494	2289.5
907.731	2325.5
907.968	2319.5
908.205	2307.5
908.442	2221.5
908.679	2299.5
908.915	2278.5
909.152	2229.5
909.389	2149.5
909.626	2177.5
909.862	2164.5
910.099	2197.5
910.335	2205.5
910.572	2084.5
910.808	2139.5
911.045	2143.5
911.281	2115.5
911.518	2181.5
911.754	2127.5
911.99	2111.5
912.226	2126.5
912.463	2057.5
912.699	2065.5
912.935	2064.5
913.171	2057.5
913.407	1984.5
913.643	2075.5
913.879	2043.5
914.114	1999.5
914.35	1957.5
914.586	1984.5
914.822	1926.5
915.057	2020.5
915.293	1888.5
915.529	1887.5
915.764	1972.5
916	1956.5
916.235	1931.5
916.471	1950.5
916.706	1863.5
916.941	1902.5
917.177	1907.5
917.412	1922.5
917.647	1938.5
917.882	1873.5
918.117	1920.5
918.352	1932.5
918.588	1963.5
918.823	1854.5
919.057	1884.5
919.292	1771.5
919.527	1901.5
919.762	1808.5
919.997	1857.5
920.232	1821.5
920.466	1835.5
920.701	1708.5
920.935	1792.5
921.17	1739.5
921.405	1718.5
921.639	1789.5
921.873	1723.5
922.108	1774.5
922.342	1758.5
922.576	1697.5
922.811	1711.5
923.045	1744.5
923.279	1773.5
923.513	1636.5
923.747	1739.5
923.981	1706.5
924.215	1682.5
924.449	1690.5
924.683	1634.5
924.917	1661.5
925.151	1658.5
925.385	1728.5
925.618	1652.5
925.852	1652.5
926.086	1595.5
926.319	1653.5
926.553	1646.5
926.786	1656.5
927.02	1624.5
927.253	1689.5
927.486	1689.5
927.72	1597.5
927.953	1689.5
928.186	1617.5
928.42	1658.5
928.653	1611.5
928.886	1585.5
929.119	1651.5
929.352	1592.5
929.585	1628.5
929.818	1565.5
930.051	1581.5
930.284	1597.5
930.516	1526.5
930.749	1526.5
930.982	1566.5
931.215	1568.5
931.447	1526.5
931.68	1525.5
931.912	1508.5
932.145	1491.5
932.377	1532.5
932.61	1660.5
932.842	1458.5
933.074	1558.5
933.307	1482.5
933.539	1599.5
933.771	1570.5
934.003	1522.5
934.236	1575.5
934.468	1600.5
934.7	1502.5
934.932	1559.5
935.164	1509.5
935.395	1464.5
935.627	1489.5
935.859	1513.5
936.091	1457.5
936.323	1510.5
936.554	1552.5
936.786	1507.5
937.017	1465.5
937.249	1497.5
937.481	1418.5
937.712	1491.5
937.943	1472.5
938.175	1465.5
938.406	1459.5
938.637	1526.5
938.869	1403.5
939.1	1509.5
939.331	1468.5
939.562	1475.5
939.793	1474.5
940.024	1489.5
940.255	1503.5
940.486	1443.5
940.717	1428.5
940.948	1433.5
941.179	1408.5
941.409	1425.5
941.64	1413.5
941.871	1438.5
942.102	1418.5
942.332	1417.5
942.563	1469.5
942.793	1458.5
943.024	1371.5
943.254	1418.5
943.484	1432.5
943.715	1472.5
943.945	1431.5
944.175	1394.5
944.405	1369.5
944.636	1363.5
944.866	1414.5
945.096	1425.5
945.326	1359.5
945.556	1432.5
945.786	1445.5
946.016	1394.5
946.245	1369.5
946.475	1377.5
946.705	1375.5
946.935	1394.5
947.164	1373.5
947.394	1370.5
947.624	1364.5
947.853	1399.5
948.083	1390.5
948.312	1364.5
948.542	1302.5
948.771	1312.5
949	1296.5
949.23	1303.5
949.459	1329.5
949.688	1396.5
949.917	1368.5
950.146	1335.5
950.375	1401.5
950.604	1302.5
950.833	1396.5
951.062	1383.5
951.291	1323.5
951.52	1301.5
951.749	1308.5
951.978	1285.5
952.206	1307.5
952.435	1312.5
952.664	1358.5
952.892	1362.5
953.121	1328.5
953.349	1354.5
953.578	1329.5
953.806	1324.5
954.035	1235.5
954.263	1304.5
954.491	1247.5
954.719	1339.5
954.948	1297.5
955.176	1242.5
955.404	1219.5
955.632	1270.5
955.86	1298.5
956.088	1271.5
956.316	1304.5
956.544	1329.5
956.772	1254.5
956.999	1236.5
957.227	1354.5
957.455	1254.5
957.683	1287.5
957.91	1245.5
958.138	1238.5
958.365	1224.5
958.593	1252.5
958.82	1183.5
959.048	1248.5
959.275	1241.5
959.502	1212.5
959.73	1204.5
959.957	1267.5
960.184	1302.5
960.411	1259.5
960.638	1312.5
960.865	1238.5
961.092	1258.5
961.319	1172.5
961.546	1246.5
961.773	1272.5
962	1206.5
962.227	1266.5
962.454	1222.5
962.68	1197.5
962.907	1256.5
963.134	1189.5
963.36	1204.5
963.587	1261.5
963.813	1173.5
964.04	1242.5
964.266	1167.5
964.493	1242.5
964.719	1223.5
964.945	1226.5
965.171	1134.5
965.398	1175.5
965.624	1224.5
965.85	1157.5
966.076	1162.5
966.302	1206.5
966.528	1174.5
966.754	1213.5
966.98	1212.5
967.206	1175.5
967.431	1127.5
967.657	1210.5
967.883	1216.5
968.109	1174.5
968.334	1110.5
968.56	1120.5
968.785	1157.5
969.011	1114.5
969.236	1179.5
969.462	1101.5
969.687	1143.5
969.912	1184.5
970.138	1195.5
970.363	1112.5
970.588	1153.5
970.813	1148.5
971.038	1106.5
971.263	1144.5
971.488	1143.5
971.713	1166.5
971.938	1189.5
972.163	1089.5
972.388	1119.5
972.613	1104.5
972.838	1089.5
973.062	1109.5
973.287	1126.5
973.512	1044.5
973.736	1099.5
973.961	1076.5
974.185	1059.5
974.41	1116.5
974.634	996.5
974.858	1027.5
975.083	1083.5
975.307	1104.5
975.531	1045.5
975.755	995.5
975.98	1038.5
976.204	979.5
976.428	983.5
976.652	999.5
976.876	995.5
977.1	1025.5
977.324	971.5
977.547	1035.5
977.771	1031.5
977.995	1031.5
978.219	962.5
978.442	1083.5
978.666	1015.5
978.89	1016.5
979.113	1029.5
979.337	1015.5
979.56	976.5
979.783	1071.5
980.007	964.5
980.23	1011.5
980.453	966.5
980.677	1004.5
980.9	982.5
981.123	938.5
981.346	1007.5
981.569	995.5
981.792	1013.5
982.015	1001.5
982.238	964.5
982.461	988.5
982.684	949.5
982.907	931.5
983.129	936.5
983.352	1007.5
983.575	974.5
983.797	983.5
984.02	929.5
984.242	946.5
984.465	957.5
984.687	984.5
984.91	1033.5
985.132	977.5
985.354	1001.5
985.577	962.5
985.799	985.5
986.021	903.5
986.243	911.5
986.465	937.5
986.687	1001.5
986.909	1037.5
987.131	964.5
987.353	929.5
987.575	956.5
987.797	965.5
988.019	891.5
988.241	945.5
988.462	915.5
988.684	961.5
988.906	1010.5
989.127	1004.5
989.349	893.5
989.57	938.5
989.792	997.5
990.013	1000.5
990.234	1000.5
990.456	1019.5
990.677	1001.5
990.898	965.5
991.119	944.5
991.341	982.5
991.562	927.5
991.783	981.5
992.004	914.5
992.225	897.5
992.446	947.5
992.667	872.5
992.887	951.5
993.108	840.5
993.329	985.5
993.55	943.5
993.77	886.5
993.991	908.5
994.212	931.5
994.432	944.5
994.653	929.5
994.873	927.5
995.093	826.5
995.314	873.5
995.534	982.5
995.754	971.5
995.975	994.5
996.195	886.5
996.415	957.5
996.635	906.5
996.855	920.5
997.075	905.5
997.295	898.5
997.515	899.5
997.735	939.5
997.955	913.5
998.174	901.5
998.394	897.5
998.614	928.5
998.834	892.5
999.053	967.5
999.273	940.5
999.492	987.5
999.712	927.5
999.931	915.5
1000.151	951.5
1000.37	948.5
1000.589	979.5
1000.809	921.5
1001.028	1013.5
1001.247	976.5
1001.466	874.5
1001.685	1032.5
1001.904	963.5
1002.123	953.5
1002.342	940.5
1002.561	935.5
1002.78	948.5
1002.999	1026.5
1003.218	974.5
1003.436	936.5
1003.655	984.5
1003.874	943.5
1004.092	959.5
1004.311	1014.5
1004.53	967.5
1004.748	1030.5
1004.966	952.5
1005.185	1021.5
1005.403	994.5
1005.622	977.5
1005.84	1073.5
1006.058	956.5
1006.276	986.5
1006.494	1485.5
1006.712	986.5
1006.931	1066.5
1007.149	948.5
1007.367	981.5
1007.584	1018.5
1007.802	1020.5
1008.02	952.5
1008.238	1084.5
1008.456	1071.5
1008.673	929.5
1008.891	1037.5
1009.109	984.5
1009.326	1017.5
1009.544	1090.5
1009.761	1004.5
1009.979	1077.5
1010.196	1050.5
1010.413	1125.5
1010.631	1168.5
1010.848	1181.5
1011.065	1173.5
1011.282	1114.5
1011.5	1051.5
1011.717	1192.5
1011.934	1132.5
1012.151	1152.5
1012.368	1134.5
1012.585	1067.5
1012.801	1117.5
1013.018	1091.5
1013.235	1067.5
1013.452	1082.5
1013.669	1106.5
1013.885	1086.5
1014.102	1088.5
1014.318	1070.5
1014.535	1051.5
1014.751	1067.5
1014.968	1097.5
1015.184	1106.5
1015.401	1052.5
1015.617	1050.5
1015.833	1036.5
1016.049	1025.5
1016.266	1009.5
1016.482	1017.5
1016.698	972.5
1016.914	1020.5
1017.13	983.5
1017.346	956.5
1017.562	1062.5
1017.778	968.5
1017.993	941.5
1018.209	1016.5
1018.425	968.5
1018.641	959.5
1018.856	919.5
1019.072	968.5
1019.288	998.5
1019.503	966.5
1019.719	856.5
1019.934	881.5
1020.149	983.5
1020.365	925.5
1020.58	882.5
1020.795	935.5
1021.011	876.5
1021.226	879.5
1021.441	921.5
1021.656	836.5
1021.871	797.5
1022.086	801.5
1022.301	808.5
1022.516	781.5
1022.731	852.5
1022.946	767.5
1023.16	734.5
1023.375	739.5
1023.59	717.5
1023.804	694.5
1024.019	797.5
1024.234	686.5
1024.448	705.5
1024.663	645.5
1024.877	685.5
1025.092	709.5
1025.306	705.5
1025.52	616.5
1025.734	713.5
1025.949	653.5
1026.163	628.5
1026.377	595.5
1026.591	633.5
1026.805	556.5
1027.019	570.5
1027.233	530.5
1027.447	482.5
1027.661	607.5
1027.875	529.5
1028.088	537.5
1028.302	487.5
1028.516	472.5
1028.73	503.5
1028.943	496.5
1029.157	444.5
1029.37	429.5
1029.584	-2.5
1029.797	-2.5
1030.011	-1.5
1030.224	-0.5
