Data from QEP037381__104__10-20-42-732.txt Node

Date: Wed Dec 21 10:20:42 EST 2022
User: dcclab
Spectrometer: QEP03738
Trigger mode: 4
Integration Time (sec): 1.000000E1
Scans to average: 1
Electric dark correction enabled: true
Nonlinearity correction enabled: false
Boxcar width: 0
XAxis mode: Wavelengths
Number of Pixels in Spectrum: 1044
>>>>>Begin Spectral Data<<<<<
784.041	12.5
784.3	4.5
784.558	-4.5
784.817	-4.5
785.075	75760.5
785.334	13113.5
785.592	6117.5
785.851	4270.5
786.109	3163.5
786.368	2484.5
786.626	2037.5
786.884	1684.5
787.143	1441.5
787.401	1196.5
787.659	1099.5
787.917	943.5
788.175	879.5
788.433	765.5
788.691	687.5
788.949	652.5
789.207	635.5
789.465	558.5
789.723	536.5
789.98	497.5
790.238	530.5
790.496	504.5
790.753	473.5
791.011	540.5
791.268	472.5
791.526	448.5
791.783	488.5
792.041	461.5
792.298	392.5
792.556	455.5
792.813	427.5
793.07	404.5
793.327	393.5
793.584	476.5
793.841	399.5
794.099	410.5
794.356	467.5
794.613	375.5
794.869	411.5
795.126	383.5
795.383	374.5
795.64	365.5
795.897	346.5
796.153	382.5
796.41	377.5
796.667	347.5
796.923	374.5
797.18	368.5
797.436	388.5
797.693	356.5
797.949	401.5
798.206	422.5
798.462	337.5
798.718	394.5
798.974	362.5
799.231	409.5
799.487	372.5
799.743	389.5
799.999	409.5
800.255	393.5
800.511	376.5
800.767	406.5
801.023	380.5
801.279	389.5
801.534	409.5
801.79	432.5
802.046	412.5
802.302	476.5
802.557	462.5
802.813	519.5
803.068	523.5
803.324	666.5
803.579	761.5
803.835	921.5
804.09	1252.5
804.345	1524.5
804.601	1860.5
804.856	2233.5
805.111	2557.5
805.366	2761.5
805.621	2907.5
805.876	3017.5
806.131	3051.5
806.386	3116.5
806.641	3120.5
806.896	3192.5
807.151	3307.5
807.406	3311.5
807.661	3343.5
807.915	3392.5
808.17	3512.5
808.425	3503.5
808.679	3511.5
808.934	3613.5
809.188	3620.5
809.443	3652.5
809.697	3733.5
809.951	3707.5
810.206	3703.5
810.46	3770.5
810.714	3803.5
810.968	3869.5
811.223	3835.5
811.477	3872.5
811.731	3953.5
811.985	3893.5
812.239	3839.5
812.493	3906.5
812.747	3934.5
813	3913.5
813.254	4029.5
813.508	4047.5
813.762	4035.5
814.015	3999.5
814.269	4096.5
814.522	4123.5
814.776	4200.5
815.03	4223.5
815.283	4248.5
815.536	4361.5
815.79	4405.5
816.043	4469.5
816.296	4510.5
816.55	4529.5
816.803	4561.5
817.056	4735.5
817.309	4710.5
817.562	4759.5
817.815	4856.5
818.068	4776.5
818.321	4845.5
818.574	4928.5
818.827	5011.5
819.079	5034.5
819.332	5229.5
819.585	5214.5
819.838	5334.5
820.09	5274.5
820.343	5353.5
820.595	5360.5
820.848	5429.5
821.1	5437.5
821.353	5472.5
821.605	5381.5
821.857	5470.5
822.11	5414.5
822.362	5342.5
822.614	5404.5
822.866	5438.5
823.118	5373.5
823.37	5502.5
823.622	5526.5
823.874	5507.5
824.126	5586.5
824.378	5499.5
824.63	5549.5
824.882	5587.5
825.134	5493.5
825.385	5534.5
825.637	5526.5
825.888	5484.5
826.14	5473.5
826.392	5412.5
826.643	5421.5
826.895	5441.5
827.146	5407.5
827.397	5334.5
827.649	5461.5
827.9	5374.5
828.151	5352.5
828.402	5360.5
828.653	5400.5
828.905	5369.5
829.156	5454.5
829.407	5327.5
829.658	5386.5
829.909	5478.5
830.159	5450.5
830.41	5408.5
830.661	5403.5
830.912	5343.5
831.162	5282.5
831.413	5390.5
831.664	5372.5
831.914	5349.5
832.165	5369.5
832.415	5382.5
832.666	5355.5
832.916	5354.5
833.167	5376.5
833.417	5408.5
833.667	5316.5
833.917	5327.5
834.168	5432.5
834.418	5312.5
834.668	5362.5
834.918	5289.5
835.168	5282.5
835.418	5198.5
835.668	5276.5
835.918	5233.5
836.167	5258.5
836.417	5196.5
836.667	5247.5
836.917	5260.5
837.166	5177.5
837.416	5222.5
837.666	5229.5
837.915	5217.5
838.165	5213.5
838.414	5107.5
838.663	5086.5
838.913	5175.5
839.162	5058.5
839.411	5237.5
839.661	5093.5
839.91	5148.5
840.159	5140.5
840.408	5103.5
840.657	5101.5
840.906	5155.5
841.155	5197.5
841.404	5106.5
841.653	5122.5
841.902	5090.5
842.15	5139.5
842.399	5198.5
842.648	5121.5
842.897	5166.5
843.145	5060.5
843.394	5030.5
843.642	5018.5
843.891	5029.5
844.139	4990.5
844.388	4864.5
844.636	4915.5
844.884	4926.5
845.133	4928.5
845.381	4995.5
845.629	4975.5
845.877	4901.5
846.125	4934.5
846.373	4989.5
846.621	4902.5
846.869	4923.5
847.117	4915.5
847.365	4858.5
847.613	4842.5
847.861	4878.5
848.108	4896.5
848.356	4859.5
848.604	4800.5
848.851	4888.5
849.099	4853.5
849.346	4827.5
849.594	4919.5
849.841	4879.5
850.089	4859.5
850.336	4889.5
850.583	4879.5
850.831	4918.5
851.078	4987.5
851.325	4993.5
851.572	5134.5
851.819	5012.5
852.066	4808.5
852.313	4681.5
852.56	4588.5
852.807	4648.5
853.054	4560.5
853.301	4609.5
853.548	4661.5
853.794	4787.5
854.041	4765.5
854.288	4712.5
854.534	4858.5
854.781	4792.5
855.028	4728.5
855.274	4749.5
855.52	4723.5
855.767	4650.5
856.013	4698.5
856.26	4945.5
856.506	4627.5
856.752	4679.5
856.998	4646.5
857.244	4639.5
857.49	4665.5
857.736	4678.5
857.982	4706.5
858.228	4680.5
858.474	4608.5
858.72	4648.5
858.966	4563.5
859.212	4528.5
859.458	4471.5
859.703	4457.5
859.949	4383.5
860.195	4420.5
860.44	4378.5
860.686	4304.5
860.931	4394.5
861.177	4230.5
861.422	4309.5
861.667	4258.5
861.913	4312.5
862.158	4249.5
862.403	4351.5
862.648	4376.5
862.893	4358.5
863.138	4340.5
863.384	4306.5
863.629	4363.5
863.873	4308.5
864.118	4307.5
864.363	4226.5
864.608	4288.5
864.853	4286.5
865.098	4265.5
865.342	4246.5
865.587	4217.5
865.832	4264.5
866.076	4239.5
866.321	4219.5
866.565	4185.5
866.81	4143.5
867.054	4160.5
867.298	4191.5
867.543	4105.5
867.787	4168.5
868.031	4119.5
868.275	4145.5
868.519	4143.5
868.764	4186.5
869.008	4098.5
869.252	4159.5
869.496	4142.5
869.739	4122.5
869.983	4134.5
870.227	4188.5
870.471	4073.5
870.715	4145.5
870.958	4143.5
871.202	4163.5
871.446	4187.5
871.689	4156.5
871.933	4172.5
872.176	4210.5
872.42	4123.5
872.663	4112.5
872.906	4190.5
873.15	4131.5
873.393	4043.5
873.636	4146.5
873.879	4120.5
874.122	4051.5
874.366	3981.5
874.609	3984.5
874.852	3942.5
875.095	3937.5
875.337	3911.5
875.58	3874.5
875.823	3849.5
876.066	3898.5
876.309	3900.5
876.551	3833.5
876.794	3771.5
877.037	3873.5
877.279	3754.5
877.522	3833.5
877.764	3824.5
878.007	3780.5
878.249	3798.5
878.491	3756.5
878.734	3832.5
878.976	3810.5
879.218	3703.5
879.46	3781.5
879.702	3751.5
879.945	3712.5
880.187	3672.5
880.429	3615.5
880.671	3625.5
880.912	3578.5
881.154	3559.5
881.396	3521.5
881.638	3624.5
881.88	3577.5
882.121	3549.5
882.363	3562.5
882.605	3606.5
882.846	3551.5
883.088	3561.5
883.329	3510.5
883.571	3542.5
883.812	3589.5
884.053	3642.5
884.295	3769.5
884.536	3851.5
884.777	3787.5
885.018	3857.5
885.259	3833.5
885.5	3722.5
885.742	4025.5
885.982	3732.5
886.223	3675.5
886.464	3623.5
886.705	3556.5
886.946	3551.5
887.187	3463.5
887.428	3528.5
887.668	3383.5
887.909	3367.5
888.15	3300.5
888.39	3333.5
888.631	3333.5
888.871	3300.5
889.111	3311.5
889.352	3271.5
889.592	3181.5
889.833	3216.5
890.073	3172.5
890.313	3229.5
890.553	3095.5
890.793	3099.5
891.033	3088.5
891.273	3086.5
891.513	3084.5
891.753	3160.5
891.993	3065.5
892.233	3114.5
892.473	3179.5
892.713	3118.5
892.952	3070.5
893.192	3115.5
893.432	3066.5
893.671	3176.5
893.911	3107.5
894.15	3087.5
894.39	2996.5
894.629	3036.5
894.869	3040.5
895.108	3029.5
895.347	2967.5
895.587	3019.5
895.826	2958.5
896.065	2966.5
896.304	2996.5
896.543	3035.5
896.782	2932.5
897.021	3009.5
897.26	2988.5
897.499	3046.5
897.738	3024.5
897.977	2955.5
898.216	2924.5
898.454	2926.5
898.693	2868.5
898.932	2879.5
899.17	2867.5
899.409	2853.5
899.647	2859.5
899.886	2810.5
900.124	2858.5
900.363	2852.5
900.601	2881.5
900.839	2878.5
901.078	2895.5
901.316	2921.5
901.554	2900.5
901.792	2947.5
902.03	2897.5
902.268	2949.5
902.506	2946.5
902.744	2899.5
902.982	2919.5
903.22	2809.5
903.458	2819.5
903.695	2780.5
903.933	2795.5
904.171	2706.5
904.409	2633.5
904.646	2660.5
904.884	2604.5
905.121	2638.5
905.359	2575.5
905.596	2532.5
905.833	2496.5
906.071	2449.5
906.308	2516.5
906.545	2485.5
906.783	2478.5
907.02	2508.5
907.257	2431.5
907.494	2447.5
907.731	2484.5
907.968	2492.5
908.205	2441.5
908.442	2433.5
908.679	2445.5
908.915	2424.5
909.152	2401.5
909.389	2283.5
909.626	2347.5
909.862	2296.5
910.099	2321.5
910.335	2348.5
910.572	2266.5
910.808	2311.5
911.045	2313.5
911.281	2239.5
911.518	2337.5
911.754	2296.5
911.99	2289.5
912.226	2259.5
912.463	2216.5
912.699	2202.5
912.935	2209.5
913.171	2220.5
913.407	2127.5
913.643	2224.5
913.879	2171.5
914.114	2154.5
914.35	2118.5
914.586	2114.5
914.822	2072.5
915.057	2172.5
915.293	2015.5
915.529	2012.5
915.764	2128.5
916	2081.5
916.235	2056.5
916.471	2080.5
916.706	2003.5
916.941	2033.5
917.177	2045.5
917.412	2096.5
917.647	2061.5
917.882	2023.5
918.117	2038.5
918.352	2030.5
918.588	2083.5
918.823	2006.5
919.057	2001.5
919.292	1891.5
919.527	2016.5
919.762	1940.5
919.997	1996.5
920.232	1915.5
920.466	1940.5
920.701	1831.5
920.935	1897.5
921.17	1852.5
921.405	1824.5
921.639	1884.5
921.873	1842.5
922.108	1849.5
922.342	1873.5
922.576	1830.5
922.811	1838.5
923.045	1871.5
923.279	1872.5
923.513	1756.5
923.747	1833.5
923.981	1832.5
924.215	1791.5
924.449	1795.5
924.683	1727.5
924.917	1780.5
925.151	1739.5
925.385	1806.5
925.618	1770.5
925.852	1770.5
926.086	1693.5
926.319	1763.5
926.553	1786.5
926.786	1807.5
927.02	1738.5
927.253	1784.5
927.486	1758.5
927.72	1725.5
927.953	1767.5
928.186	1736.5
928.42	1752.5
928.653	1704.5
928.886	1715.5
929.119	1735.5
929.352	1750.5
929.585	1719.5
929.818	1688.5
930.051	1696.5
930.284	1717.5
930.516	1604.5
930.749	1642.5
930.982	1693.5
931.215	1685.5
931.447	1607.5
931.68	1612.5
931.912	1601.5
932.145	1630.5
932.377	1636.5
932.61	1726.5
932.842	1573.5
933.074	1632.5
933.307	1623.5
933.539	1720.5
933.771	1727.5
934.003	1667.5
934.236	1789.5
934.468	1863.5
934.7	1752.5
934.932	1798.5
935.164	1710.5
935.395	1656.5
935.627	1662.5
935.859	1627.5
936.091	1568.5
936.323	1619.5
936.554	1626.5
936.786	1607.5
937.017	1575.5
937.249	1613.5
937.481	1519.5
937.712	1622.5
937.943	1561.5
938.175	1557.5
938.406	1542.5
938.637	1641.5
938.869	1530.5
939.1	1579.5
939.331	1555.5
939.562	1573.5
939.793	1575.5
940.024	1580.5
940.255	1606.5
940.486	1555.5
940.717	1524.5
940.948	1532.5
941.179	1522.5
941.409	1521.5
941.64	1516.5
941.871	1533.5
942.102	1494.5
942.332	1526.5
942.563	1548.5
942.793	1519.5
943.024	1448.5
943.254	1514.5
943.484	1559.5
943.715	1570.5
943.945	1536.5
944.175	1455.5
944.405	1447.5
944.636	1468.5
944.866	1519.5
945.096	1538.5
945.326	1447.5
945.556	1547.5
945.786	1542.5
946.016	1493.5
946.245	1407.5
946.475	1450.5
946.705	1447.5
946.935	1462.5
947.164	1500.5
947.394	1432.5
947.624	1449.5
947.853	1485.5
948.083	1446.5
948.312	1456.5
948.542	1423.5
948.771	1361.5
949	1391.5
949.23	1403.5
949.459	1416.5
949.688	1448.5
949.917	1431.5
950.146	1424.5
950.375	1497.5
950.604	1391.5
950.833	1480.5
951.062	1458.5
951.291	1441.5
951.52	1416.5
951.749	1419.5
951.978	1387.5
952.206	1401.5
952.435	1357.5
952.664	1420.5
952.892	1423.5
953.121	1409.5
953.349	1415.5
953.578	1425.5
953.806	1374.5
954.035	1365.5
954.263	1386.5
954.491	1324.5
954.719	1391.5
954.948	1347.5
955.176	1351.5
955.404	1301.5
955.632	1373.5
955.86	1366.5
956.088	1353.5
956.316	1375.5
956.544	1392.5
956.772	1351.5
956.999	1313.5
957.227	1431.5
957.455	1311.5
957.683	1337.5
957.91	1287.5
958.138	1307.5
958.365	1312.5
958.593	1318.5
958.82	1246.5
959.048	1324.5
959.275	1302.5
959.502	1300.5
959.73	1284.5
959.957	1351.5
960.184	1342.5
960.411	1322.5
960.638	1366.5
960.865	1319.5
961.092	1319.5
961.319	1238.5
961.546	1354.5
961.773	1336.5
962	1286.5
962.227	1310.5
962.454	1301.5
962.68	1264.5
962.907	1312.5
963.134	1241.5
963.36	1259.5
963.587	1319.5
963.813	1240.5
964.04	1304.5
964.266	1239.5
964.493	1323.5
964.719	1309.5
964.945	1294.5
965.171	1195.5
965.398	1258.5
965.624	1287.5
965.85	1237.5
966.076	1202.5
966.302	1268.5
966.528	1216.5
966.754	1264.5
966.98	1264.5
967.206	1240.5
967.431	1190.5
967.657	1266.5
967.883	1263.5
968.109	1230.5
968.334	1178.5
968.56	1203.5
968.785	1207.5
969.011	1149.5
969.236	1226.5
969.462	1175.5
969.687	1169.5
969.912	1230.5
970.138	1242.5
970.363	1163.5
970.588	1214.5
970.813	1186.5
971.038	1184.5
971.263	1171.5
971.488	1196.5
971.713	1236.5
971.938	1244.5
972.163	1121.5
972.388	1173.5
972.613	1130.5
972.838	1163.5
973.062	1140.5
973.287	1158.5
973.512	1084.5
973.736	1138.5
973.961	1122.5
974.185	1113.5
974.41	1158.5
974.634	1088.5
974.858	1106.5
975.083	1139.5
975.307	1160.5
975.531	1110.5
975.755	1064.5
975.98	1109.5
976.204	1034.5
976.428	1045.5
976.652	1046.5
976.876	1014.5
977.1	1054.5
977.324	1051.5
977.547	1084.5
977.771	1101.5
977.995	1059.5
978.219	1022.5
978.442	1139.5
978.666	1059.5
978.89	1091.5
979.113	1072.5
979.337	1042.5
979.56	1021.5
979.783	1104.5
980.007	1027.5
980.23	1032.5
980.453	1027.5
980.677	1068.5
980.9	1065.5
981.123	947.5
981.346	1068.5
981.569	1063.5
981.792	1070.5
982.015	1030.5
982.238	1006.5
982.461	1046.5
982.684	1008.5
982.907	1000.5
983.129	981.5
983.352	1032.5
983.575	1003.5
983.797	1027.5
984.02	973.5
984.242	990.5
984.465	987.5
984.687	1040.5
984.91	1059.5
985.132	1030.5
985.354	1039.5
985.577	1044.5
985.799	1023.5
986.021	957.5
986.243	980.5
986.465	977.5
986.687	1028.5
986.909	1067.5
987.131	1035.5
987.353	985.5
987.575	1024.5
987.797	993.5
988.019	908.5
988.241	974.5
988.462	946.5
988.684	1021.5
988.906	1024.5
989.127	1067.5
989.349	945.5
989.57	990.5
989.792	1028.5
990.013	1010.5
990.234	1006.5
990.456	1058.5
990.677	1040.5
990.898	1000.5
991.119	990.5
991.341	1029.5
991.562	964.5
991.783	1000.5
992.004	952.5
992.225	944.5
992.446	996.5
992.667	889.5
992.887	990.5
993.108	918.5
993.329	1031.5
993.55	991.5
993.77	942.5
993.991	941.5
994.212	962.5
994.432	960.5
994.653	973.5
994.873	977.5
995.093	868.5
995.314	895.5
995.534	1002.5
995.754	1010.5
995.975	1009.5
996.195	912.5
996.415	980.5
996.635	972.5
996.855	979.5
997.075	954.5
997.295	938.5
997.515	934.5
997.735	968.5
997.955	945.5
998.174	949.5
998.394	915.5
998.614	967.5
998.834	910.5
999.053	1012.5
999.273	949.5
999.492	1031.5
999.712	972.5
999.931	925.5
1000.151	969.5
1000.37	955.5
1000.589	1020.5
1000.809	933.5
1001.028	1072.5
1001.247	997.5
1001.466	894.5
1001.685	1048.5
1001.904	963.5
1002.123	993.5
1002.342	979.5
1002.561	977.5
1002.78	984.5
1002.999	1063.5
1003.218	991.5
1003.436	958.5
1003.655	1039.5
1003.874	953.5
1004.092	980.5
1004.311	1015.5
1004.53	988.5
1004.748	1081.5
1004.966	1002.5
1005.185	1032.5
1005.403	1040.5
1005.622	1005.5
1005.84	1082.5
1006.058	978.5
1006.276	1012.5
1006.494	1513.5
1006.712	1012.5
1006.931	1095.5
1007.149	989.5
1007.367	993.5
1007.584	1027.5
1007.802	1065.5
1008.02	992.5
1008.238	1105.5
1008.456	1082.5
1008.673	944.5
1008.891	1056.5
1009.109	992.5
1009.326	1042.5
1009.544	1113.5
1009.761	1005.5
1009.979	1084.5
1010.196	1084.5
1010.413	1159.5
1010.631	1197.5
1010.848	1204.5
1011.065	1209.5
1011.282	1144.5
1011.5	1113.5
1011.717	1210.5
1011.934	1142.5
1012.151	1186.5
1012.368	1200.5
1012.585	1112.5
1012.801	1161.5
1013.018	1127.5
1013.235	1098.5
1013.452	1107.5
1013.669	1135.5
1013.885	1095.5
1014.102	1145.5
1014.318	1121.5
1014.535	1066.5
1014.751	1098.5
1014.968	1148.5
1015.184	1135.5
1015.401	1076.5
1015.617	1114.5
1015.833	1041.5
1016.049	1069.5
1016.266	1071.5
1016.482	1087.5
1016.698	1007.5
1016.914	1077.5
1017.13	1026.5
1017.346	1001.5
1017.562	1080.5
1017.778	1038.5
1017.993	996.5
1018.209	1047.5
1018.425	1010.5
1018.641	1013.5
1018.856	974.5
1019.072	1002.5
1019.288	1043.5
1019.503	993.5
1019.719	915.5
1019.934	940.5
1020.149	1019.5
1020.365	950.5
1020.58	922.5
1020.795	1001.5
1021.011	944.5
1021.226	909.5
1021.441	942.5
1021.656	866.5
1021.871	813.5
1022.086	813.5
1022.301	821.5
1022.516	823.5
1022.731	926.5
1022.946	799.5
1023.16	782.5
1023.375	758.5
1023.59	754.5
1023.804	711.5
1024.019	853.5
1024.234	703.5
1024.448	760.5
1024.663	678.5
1024.877	689.5
1025.092	731.5
1025.306	741.5
1025.52	648.5
1025.734	738.5
1025.949	678.5
1026.163	646.5
1026.377	584.5
1026.591	661.5
1026.805	583.5
1027.019	586.5
1027.233	557.5
1027.447	514.5
1027.661	607.5
1027.875	540.5
1028.088	558.5
1028.302	510.5
1028.516	504.5
1028.73	508.5
1028.943	527.5
1029.157	483.5
1029.37	443.5
1029.584	-3.5
1029.797	0.5
1030.011	-3.5
1030.224	-1.5
