Data from QEP037381__85__10-17-32-731.txt Node

Date: Wed Dec 21 10:17:32 EST 2022
User: dcclab
Spectrometer: QEP03738
Trigger mode: 4
Integration Time (sec): 1.000000E1
Scans to average: 1
Electric dark correction enabled: true
Nonlinearity correction enabled: false
Boxcar width: 0
XAxis mode: Wavelengths
Number of Pixels in Spectrum: 1044
>>>>>Begin Spectral Data<<<<<
784.041	13.88
784.3	-4.12
784.558	-4.12
784.817	-0.12
785.075	78992.88
785.334	13420.88
785.592	6252.88
785.851	4337.88
786.109	3278.88
786.368	2528.88
786.626	2075.88
786.884	1762.88
787.143	1464.88
787.401	1220.88
787.659	1093.88
787.917	959.88
788.175	884.88
788.433	781.88
788.691	711.88
788.949	645.88
789.207	649.88
789.465	540.88
789.723	561.88
789.98	510.88
790.238	533.88
790.496	501.88
790.753	481.88
791.011	530.88
791.268	465.88
791.526	472.88
791.783	461.88
792.041	450.88
792.298	384.88
792.556	449.88
792.813	428.88
793.07	405.88
793.327	401.88
793.584	460.88
793.841	387.88
794.099	400.88
794.356	469.88
794.613	369.88
794.869	403.88
795.126	371.88
795.383	360.88
795.64	379.88
795.897	332.88
796.153	402.88
796.41	372.88
796.667	364.88
796.923	362.88
797.18	369.88
797.436	386.88
797.693	354.88
797.949	387.88
798.206	431.88
798.462	321.88
798.718	406.88
798.974	367.88
799.231	412.88
799.487	381.88
799.743	386.88
799.999	419.88
800.255	389.88
800.511	382.88
800.767	426.88
801.023	387.88
801.279	404.88
801.534	417.88
801.79	438.88
802.046	421.88
802.302	477.88
802.557	500.88
802.813	559.88
803.068	568.88
803.324	735.88
803.579	863.88
803.835	1104.88
804.09	1466.88
804.345	1776.88
804.601	2209.88
804.856	2664.88
805.111	3063.88
805.366	3308.88
805.621	3509.88
805.876	3650.88
806.131	3727.88
806.386	3733.88
806.641	3792.88
806.896	3840.88
807.151	3977.88
807.406	3976.88
807.661	4074.88
807.915	4088.88
808.17	4164.88
808.425	4240.88
808.679	4212.88
808.934	4342.88
809.188	4320.88
809.443	4408.88
809.697	4507.88
809.951	4401.88
810.206	4465.88
810.46	4552.88
810.714	4539.88
810.968	4617.88
811.223	4565.88
811.477	4678.88
811.731	4760.88
811.985	4676.88
812.239	4693.88
812.493	4735.88
812.747	4755.88
813	4744.88
813.254	4780.88
813.508	4833.88
813.762	4799.88
814.015	4856.88
814.269	4891.88
814.522	4937.88
814.776	5007.88
815.03	5077.88
815.283	5155.88
815.536	5231.88
815.79	5279.88
816.043	5318.88
816.296	5419.88
816.55	5471.88
816.803	5474.88
817.056	5624.88
817.309	5651.88
817.562	5644.88
817.815	5772.88
818.068	5758.88
818.321	5782.88
818.574	5819.88
818.827	5929.88
819.079	6017.88
819.332	6248.88
819.585	6218.88
819.838	6276.88
820.09	6292.88
820.343	6376.88
820.595	6380.88
820.848	6518.88
821.1	6479.88
821.353	6419.88
821.605	6467.88
821.857	6487.88
822.11	6395.88
822.362	6354.88
822.614	6372.88
822.866	6442.88
823.118	6428.88
823.37	6572.88
823.622	6462.88
823.874	6566.88
824.126	6603.88
824.378	6547.88
824.63	6588.88
824.882	6685.88
825.134	6585.88
825.385	6547.88
825.637	6586.88
825.888	6562.88
826.14	6473.88
826.392	6411.88
826.643	6414.88
826.895	6431.88
827.146	6386.88
827.397	6367.88
827.649	6432.88
827.9	6328.88
828.151	6343.88
828.402	6378.88
828.653	6408.88
828.905	6425.88
829.156	6400.88
829.407	6367.88
829.658	6405.88
829.909	6437.88
830.159	6421.88
830.41	6359.88
830.661	6341.88
830.912	6295.88
831.162	6313.88
831.413	6320.88
831.664	6302.88
831.914	6304.88
832.165	6327.88
832.415	6358.88
832.666	6313.88
832.916	6382.88
833.167	6313.88
833.417	6320.88
833.667	6316.88
833.917	6285.88
834.168	6305.88
834.418	6299.88
834.668	6304.88
834.918	6164.88
835.168	6210.88
835.418	6199.88
835.668	6218.88
835.918	6247.88
836.167	6197.88
836.417	6088.88
836.667	6193.88
836.917	6173.88
837.166	6153.88
837.416	6119.88
837.666	6117.88
837.915	6060.88
838.165	6083.88
838.414	5997.88
838.663	6002.88
838.913	5995.88
839.162	5980.88
839.411	6091.88
839.661	6018.88
839.91	5985.88
840.159	5969.88
840.408	6040.88
840.657	5954.88
840.906	5977.88
841.155	6049.88
841.404	5965.88
841.653	5974.88
841.902	6018.88
842.15	6013.88
842.399	6041.88
842.648	5990.88
842.897	5950.88
843.145	5880.88
843.394	5866.88
843.642	5857.88
843.891	5802.88
844.139	5822.88
844.388	5803.88
844.636	5761.88
844.884	5769.88
845.133	5688.88
845.381	5768.88
845.629	5803.88
845.877	5720.88
846.125	5717.88
846.373	5717.88
846.621	5712.88
846.869	5712.88
847.117	5705.88
847.365	5650.88
847.613	5638.88
847.861	5600.88
848.108	5635.88
848.356	5605.88
848.604	5501.88
848.851	5620.88
849.099	5618.88
849.346	5618.88
849.594	5699.88
849.841	5715.88
850.089	5673.88
850.336	5689.88
850.583	5734.88
850.831	5684.88
851.078	5710.88
851.325	5760.88
851.572	5812.88
851.819	5761.88
852.066	5544.88
852.313	5406.88
852.56	5385.88
852.807	5347.88
853.054	5352.88
853.301	5387.88
853.548	5353.88
853.794	5517.88
854.041	5480.88
854.288	5421.88
854.534	5520.88
854.781	5446.88
855.028	5412.88
855.274	5448.88
855.52	5397.88
855.767	5359.88
856.013	5410.88
856.26	5683.88
856.506	5302.88
856.752	5358.88
856.998	5315.88
857.244	5305.88
857.49	5391.88
857.736	5362.88
857.982	5414.88
858.228	5399.88
858.474	5319.88
858.72	5340.88
858.966	5311.88
859.212	5232.88
859.458	5174.88
859.703	5110.88
859.949	5016.88
860.195	5032.88
860.44	4991.88
860.686	4962.88
860.931	5071.88
861.177	4941.88
861.422	4983.88
861.667	4910.88
861.913	4889.88
862.158	4952.88
862.403	5026.88
862.648	4964.88
862.893	5076.88
863.138	4954.88
863.384	4953.88
863.629	4982.88
863.873	4951.88
864.118	4893.88
864.363	4877.88
864.608	4915.88
864.853	4889.88
865.098	4911.88
865.342	4865.88
865.587	4809.88
865.832	4812.88
866.076	4858.88
866.321	4810.88
866.565	4776.88
866.81	4707.88
867.054	4760.88
867.298	4734.88
867.543	4703.88
867.787	4747.88
868.031	4725.88
868.275	4739.88
868.519	4701.88
868.764	4699.88
869.008	4677.88
869.252	4727.88
869.496	4682.88
869.739	4687.88
869.983	4716.88
870.227	4685.88
870.471	4645.88
870.715	4740.88
870.958	4698.88
871.202	4640.88
871.446	4672.88
871.689	4707.88
871.933	4707.88
872.176	4713.88
872.42	4698.88
872.663	4628.88
872.906	4728.88
873.15	4638.88
873.393	4622.88
873.636	4693.88
873.879	4619.88
874.122	4560.88
874.366	4480.88
874.609	4470.88
874.852	4432.88
875.095	4423.88
875.337	4368.88
875.58	4330.88
875.823	4370.88
876.066	4427.88
876.309	4432.88
876.551	4281.88
876.794	4255.88
877.037	4321.88
877.279	4245.88
877.522	4284.88
877.764	4256.88
878.007	4232.88
878.249	4298.88
878.491	4297.88
878.734	4310.88
878.976	4260.88
879.218	4218.88
879.46	4231.88
879.702	4242.88
879.945	4189.88
880.187	4067.88
880.429	4062.88
880.671	4070.88
880.912	4087.88
881.154	4071.88
881.396	3972.88
881.638	4053.88
881.88	4039.88
882.121	3991.88
882.363	4003.88
882.605	4052.88
882.846	4045.88
883.088	4051.88
883.329	3983.88
883.571	3945.88
883.812	4018.88
884.053	4075.88
884.295	4158.88
884.536	4326.88
884.777	4190.88
885.018	4260.88
885.259	4231.88
885.5	4143.88
885.742	4390.88
885.982	4151.88
886.223	4071.88
886.464	4055.88
886.705	3938.88
886.946	3983.88
887.187	3851.88
887.428	3943.88
887.668	3811.88
887.909	3712.88
888.15	3663.88
888.39	3769.88
888.631	3790.88
888.871	3733.88
889.111	3657.88
889.352	3702.88
889.592	3600.88
889.833	3579.88
890.073	3573.88
890.313	3583.88
890.553	3481.88
890.793	3501.88
891.033	3503.88
891.273	3432.88
891.513	3444.88
891.753	3555.88
891.993	3444.88
892.233	3514.88
892.473	3569.88
892.713	3529.88
892.952	3426.88
893.192	3549.88
893.432	3487.88
893.671	3569.88
893.911	3509.88
894.15	3483.88
894.39	3372.88
894.629	3387.88
894.869	3420.88
895.108	3364.88
895.347	3317.88
895.587	3374.88
895.826	3312.88
896.065	3318.88
896.304	3376.88
896.543	3370.88
896.782	3268.88
897.021	3287.88
897.26	3314.88
897.499	3414.88
897.738	3380.88
897.977	3282.88
898.216	3227.88
898.454	3208.88
898.693	3185.88
898.932	3234.88
899.17	3200.88
899.409	3167.88
899.647	3168.88
899.886	3128.88
900.124	3194.88
900.363	3066.88
900.601	3174.88
900.839	3146.88
901.078	3193.88
901.316	3191.88
901.554	3176.88
901.792	3227.88
902.03	3176.88
902.268	3202.88
902.506	3230.88
902.744	3179.88
902.982	3195.88
903.22	3075.88
903.458	3101.88
903.695	3072.88
903.933	3052.88
904.171	2938.88
904.409	2910.88
904.646	2950.88
904.884	2885.88
905.121	2924.88
905.359	2861.88
905.596	2824.88
905.833	2789.88
906.071	2761.88
906.308	2791.88
906.545	2775.88
906.783	2717.88
907.02	2771.88
907.257	2686.88
907.494	2718.88
907.731	2734.88
907.968	2749.88
908.205	2653.88
908.442	2685.88
908.679	2665.88
908.915	2653.88
909.152	2624.88
909.389	2554.88
909.626	2579.88
909.862	2545.88
910.099	2603.88
910.335	2581.88
910.572	2526.88
910.808	2561.88
911.045	2549.88
911.281	2511.88
911.518	2586.88
911.754	2493.88
911.99	2486.88
912.226	2487.88
912.463	2441.88
912.699	2431.88
912.935	2433.88
913.171	2400.88
913.407	2410.88
913.643	2399.88
913.879	2384.88
914.114	2370.88
914.35	2340.88
914.586	2355.88
914.822	2294.88
915.057	2377.88
915.293	2257.88
915.529	2254.88
915.764	2320.88
916	2273.88
916.235	2287.88
916.471	2276.88
916.706	2192.88
916.941	2259.88
917.177	2242.88
917.412	2276.88
917.647	2263.88
917.882	2221.88
918.117	2276.88
918.352	2217.88
918.588	2299.88
918.823	2214.88
919.057	2181.88
919.292	2072.88
919.527	2227.88
919.762	2130.88
919.997	2175.88
920.232	2101.88
920.466	2144.88
920.701	2024.88
920.935	2063.88
921.17	2063.88
921.405	2016.88
921.639	2049.88
921.873	2037.88
922.108	2056.88
922.342	2048.88
922.576	1972.88
922.811	2006.88
923.045	2015.88
923.279	2057.88
923.513	1959.88
923.747	2035.88
923.981	2032.88
924.215	1913.88
924.449	1953.88
924.683	1879.88
924.917	1891.88
925.151	1917.88
925.385	1985.88
925.618	1936.88
925.852	1919.88
926.086	1880.88
926.319	1911.88
926.553	1924.88
926.786	1910.88
927.02	1922.88
927.253	1921.88
927.486	1911.88
927.72	1856.88
927.953	1926.88
928.186	1882.88
928.42	1888.88
928.653	1860.88
928.886	1803.88
929.119	1850.88
929.352	1826.88
929.585	1854.88
929.818	1819.88
930.051	1843.88
930.284	1833.88
930.516	1739.88
930.749	1787.88
930.982	1829.88
931.215	1766.88
931.447	1741.88
931.68	1724.88
931.912	1729.88
932.145	1756.88
932.377	1755.88
932.61	1884.88
932.842	1674.88
933.074	1756.88
933.307	1719.88
933.539	1829.88
933.771	1784.88
934.003	1739.88
934.236	1814.88
934.468	1816.88
934.7	1756.88
934.932	1768.88
935.164	1735.88
935.395	1699.88
935.627	1750.88
935.859	1762.88
936.091	1672.88
936.323	1737.88
936.554	1768.88
936.786	1705.88
937.017	1641.88
937.249	1707.88
937.481	1640.88
937.712	1730.88
937.943	1692.88
938.175	1676.88
938.406	1662.88
938.637	1765.88
938.869	1623.88
939.1	1714.88
939.331	1651.88
939.562	1676.88
939.793	1680.88
940.024	1713.88
940.255	1703.88
940.486	1654.88
940.717	1663.88
940.948	1635.88
941.179	1619.88
941.409	1637.88
941.64	1614.88
941.871	1638.88
942.102	1608.88
942.332	1609.88
942.563	1645.88
942.793	1628.88
943.024	1593.88
943.254	1613.88
943.484	1667.88
943.715	1681.88
943.945	1633.88
944.175	1576.88
944.405	1581.88
944.636	1570.88
944.866	1604.88
945.096	1620.88
945.326	1567.88
945.556	1596.88
945.786	1625.88
946.016	1587.88
946.245	1534.88
946.475	1553.88
946.705	1561.88
946.935	1577.88
947.164	1581.88
947.394	1522.88
947.624	1539.88
947.853	1609.88
948.083	1554.88
948.312	1542.88
948.542	1483.88
948.771	1471.88
949	1484.88
949.23	1477.88
949.459	1512.88
949.688	1570.88
949.917	1494.88
950.146	1533.88
950.375	1583.88
950.604	1467.88
950.833	1557.88
951.062	1556.88
951.291	1516.88
951.52	1467.88
951.749	1510.88
951.978	1429.88
952.206	1479.88
952.435	1449.88
952.664	1505.88
952.892	1532.88
953.121	1476.88
953.349	1515.88
953.578	1504.88
953.806	1476.88
954.035	1431.88
954.263	1463.88
954.491	1407.88
954.719	1485.88
954.948	1416.88
955.176	1449.88
955.404	1368.88
955.632	1445.88
955.86	1460.88
956.088	1420.88
956.316	1478.88
956.544	1463.88
956.772	1433.88
956.999	1390.88
957.227	1481.88
957.455	1391.88
957.683	1402.88
957.91	1368.88
958.138	1353.88
958.365	1394.88
958.593	1363.88
958.82	1325.88
959.048	1401.88
959.275	1374.88
959.502	1367.88
959.73	1326.88
959.957	1394.88
960.184	1436.88
960.411	1363.88
960.638	1455.88
960.865	1382.88
961.092	1409.88
961.319	1296.88
961.546	1404.88
961.773	1416.88
962	1346.88
962.227	1402.88
962.454	1363.88
962.68	1324.88
962.907	1371.88
963.134	1338.88
963.36	1332.88
963.587	1365.88
963.813	1314.88
964.04	1365.88
964.266	1272.88
964.493	1374.88
964.719	1359.88
964.945	1359.88
965.171	1279.88
965.398	1326.88
965.624	1365.88
965.85	1260.88
966.076	1259.88
966.302	1310.88
966.528	1264.88
966.754	1314.88
966.98	1325.88
967.206	1303.88
967.431	1234.88
967.657	1343.88
967.883	1310.88
968.109	1310.88
968.334	1233.88
968.56	1232.88
968.785	1257.88
969.011	1235.88
969.236	1289.88
969.462	1242.88
969.687	1229.88
969.912	1304.88
970.138	1288.88
970.363	1215.88
970.588	1251.88
970.813	1224.88
971.038	1211.88
971.263	1258.88
971.488	1264.88
971.713	1285.88
971.938	1251.88
972.163	1152.88
972.388	1234.88
972.613	1176.88
972.838	1201.88
973.062	1218.88
973.287	1220.88
973.512	1148.88
973.736	1193.88
973.961	1178.88
974.185	1150.88
974.41	1214.88
974.634	1103.88
974.858	1144.88
975.083	1196.88
975.307	1212.88
975.531	1126.88
975.755	1081.88
975.98	1125.88
976.204	1039.88
976.428	1064.88
976.652	1076.88
976.876	1060.88
977.1	1132.88
977.324	1057.88
977.547	1148.88
977.771	1142.88
977.995	1093.88
978.219	1033.88
978.442	1155.88
978.666	1102.88
978.89	1102.88
979.113	1100.88
979.337	1106.88
979.56	1055.88
979.783	1136.88
980.007	1059.88
980.23	1103.88
980.453	1049.88
980.677	1092.88
980.9	1078.88
981.123	1002.88
981.346	1087.88
981.569	1073.88
981.792	1120.88
982.015	1070.88
982.238	1030.88
982.461	1051.88
982.684	1019.88
982.907	1018.88
983.129	1005.88
983.352	1065.88
983.575	1060.88
983.797	1042.88
984.02	1005.88
984.242	1007.88
984.465	1014.88
984.687	1060.88
984.91	1084.88
985.132	1047.88
985.354	1096.88
985.577	1033.88
985.799	1033.88
986.021	945.88
986.243	978.88
986.465	1027.88
986.687	1062.88
986.909	1099.88
987.131	1018.88
987.353	990.88
987.575	1032.88
987.797	1002.88
988.019	965.88
988.241	1009.88
988.462	978.88
988.684	1041.88
988.906	1068.88
989.127	1084.88
989.349	974.88
989.57	1011.88
989.792	1055.88
990.013	1069.88
990.234	1056.88
990.456	1096.88
990.677	1091.88
990.898	988.88
991.119	1026.88
991.341	1038.88
991.562	999.88
991.783	1019.88
992.004	979.88
992.225	928.88
992.446	1003.88
992.667	929.88
992.887	1025.88
993.108	924.88
993.329	1027.88
993.55	1009.88
993.77	945.88
993.991	970.88
994.212	990.88
994.432	989.88
994.653	1008.88
994.873	999.88
995.093	892.88
995.314	925.88
995.534	1001.88
995.754	1017.88
995.975	1029.88
996.195	927.88
996.415	991.88
996.635	967.88
996.855	981.88
997.075	941.88
997.295	957.88
997.515	933.88
997.735	987.88
997.955	969.88
998.174	956.88
998.394	927.88
998.614	977.88
998.834	932.88
999.053	999.88
999.273	981.88
999.492	1029.88
999.712	972.88
999.931	931.88
1000.151	1006.88
1000.37	974.88
1000.589	1021.88
1000.809	952.88
1001.028	1087.88
1001.247	1013.88
1001.466	907.88
1001.685	1050.88
1001.904	1003.88
1002.123	989.88
1002.342	1006.88
1002.561	957.88
1002.78	980.88
1002.999	1060.88
1003.218	981.88
1003.436	982.88
1003.655	1022.88
1003.874	963.88
1004.092	999.88
1004.311	1040.88
1004.53	989.88
1004.748	1091.88
1004.966	989.88
1005.185	1054.88
1005.403	1059.88
1005.622	1034.88
1005.84	1079.88
1006.058	993.88
1006.276	1015.88
1006.494	1524.88
1006.712	1041.88
1006.931	1075.88
1007.149	977.88
1007.367	992.88
1007.584	1055.88
1007.802	1048.88
1008.02	995.88
1008.238	1057.88
1008.456	1068.88
1008.673	932.88
1008.891	1059.88
1009.109	989.88
1009.326	1031.88
1009.544	1147.88
1009.761	1018.88
1009.979	1070.88
1010.196	1060.88
1010.413	1146.88
1010.631	1166.88
1010.848	1186.88
1011.065	1188.88
1011.282	1108.88
1011.5	1065.88
1011.717	1201.88
1011.934	1131.88
1012.151	1180.88
1012.368	1158.88
1012.585	1096.88
1012.801	1144.88
1013.018	1104.88
1013.235	1069.88
1013.452	1107.88
1013.669	1107.88
1013.885	1096.88
1014.102	1115.88
1014.318	1069.88
1014.535	1062.88
1014.751	1091.88
1014.968	1105.88
1015.184	1124.88
1015.401	1019.88
1015.617	1088.88
1015.833	1025.88
1016.049	1056.88
1016.266	1027.88
1016.482	1053.88
1016.698	978.88
1016.914	1031.88
1017.13	995.88
1017.346	1014.88
1017.562	1063.88
1017.778	999.88
1017.993	959.88
1018.209	1015.88
1018.425	996.88
1018.641	959.88
1018.856	914.88
1019.072	979.88
1019.288	1008.88
1019.503	965.88
1019.719	896.88
1019.934	914.88
1020.149	999.88
1020.365	928.88
1020.58	905.88
1020.795	944.88
1021.011	876.88
1021.226	894.88
1021.441	920.88
1021.656	841.88
1021.871	811.88
1022.086	811.88
1022.301	802.88
1022.516	783.88
1022.731	908.88
1022.946	778.88
1023.16	754.88
1023.375	762.88
1023.59	749.88
1023.804	689.88
1024.019	823.88
1024.234	691.88
1024.448	728.88
1024.663	671.88
1024.877	678.88
1025.092	695.88
1025.306	736.88
1025.52	648.88
1025.734	728.88
1025.949	641.88
1026.163	646.88
1026.377	600.88
1026.591	636.88
1026.805	584.88
1027.019	574.88
1027.233	536.88
1027.447	501.88
1027.661	587.88
1027.875	559.88
1028.088	571.88
1028.302	494.88
1028.516	494.88
1028.73	500.88
1028.943	491.88
1029.157	469.88
1029.37	437.88
1029.584	-2.12
1029.797	-3.12
1030.011	-1.12
1030.224	0.88
