Data from QEP037381__96__10-19-22-732.txt Node

Date: Wed Dec 21 10:19:22 EST 2022
User: dcclab
Spectrometer: QEP03738
Trigger mode: 4
Integration Time (sec): 1.000000E1
Scans to average: 1
Electric dark correction enabled: true
Nonlinearity correction enabled: false
Boxcar width: 0
XAxis mode: Wavelengths
Number of Pixels in Spectrum: 1044
>>>>>Begin Spectral Data<<<<<
784.041	10.5
784.3	0.5
784.558	-2.5
784.817	-3.5
785.075	77929.5
785.334	13540.5
785.592	6389.5
785.851	4422.5
786.109	3369.5
786.368	2656.5
786.626	2151.5
786.884	1798.5
787.143	1490.5
787.401	1251.5
787.659	1132.5
787.917	942.5
788.175	905.5
788.433	764.5
788.691	722.5
788.949	667.5
789.207	656.5
789.465	553.5
789.723	542.5
789.98	500.5
790.238	531.5
790.496	513.5
790.753	491.5
791.011	531.5
791.268	476.5
791.526	451.5
791.783	464.5
792.041	474.5
792.298	373.5
792.556	438.5
792.813	429.5
793.07	392.5
793.327	401.5
793.584	477.5
793.841	382.5
794.099	425.5
794.356	477.5
794.613	381.5
794.869	427.5
795.126	369.5
795.383	365.5
795.64	378.5
795.897	339.5
796.153	393.5
796.41	375.5
796.667	348.5
796.923	361.5
797.18	359.5
797.436	398.5
797.693	362.5
797.949	406.5
798.206	443.5
798.462	332.5
798.718	390.5
798.974	374.5
799.231	405.5
799.487	384.5
799.743	394.5
799.999	409.5
800.255	397.5
800.511	374.5
800.767	404.5
801.023	385.5
801.279	398.5
801.534	419.5
801.79	429.5
802.046	409.5
802.302	468.5
802.557	479.5
802.813	520.5
803.068	538.5
803.324	660.5
803.579	778.5
803.835	973.5
804.09	1275.5
804.345	1555.5
804.601	1853.5
804.856	2284.5
805.111	2588.5
805.366	2790.5
805.621	2937.5
805.876	3033.5
806.131	3082.5
806.386	3127.5
806.641	3145.5
806.896	3208.5
807.151	3298.5
807.406	3308.5
807.661	3386.5
807.915	3422.5
808.17	3444.5
808.425	3512.5
808.679	3503.5
808.934	3631.5
809.188	3544.5
809.443	3653.5
809.697	3719.5
809.951	3676.5
810.206	3703.5
810.46	3754.5
810.714	3781.5
810.968	3831.5
811.223	3788.5
811.477	3827.5
811.731	3914.5
811.985	3867.5
812.239	3908.5
812.493	3920.5
812.747	3954.5
813	3900.5
813.254	3949.5
813.508	4027.5
813.762	4021.5
814.015	3991.5
814.269	4088.5
814.522	4117.5
814.776	4149.5
815.03	4193.5
815.283	4213.5
815.536	4310.5
815.79	4383.5
816.043	4416.5
816.296	4436.5
816.55	4552.5
816.803	4596.5
817.056	4623.5
817.309	4638.5
817.562	4692.5
817.815	4785.5
818.068	4721.5
818.321	4800.5
818.574	4843.5
818.827	4963.5
819.079	5014.5
819.332	5142.5
819.585	5146.5
819.838	5307.5
820.09	5191.5
820.343	5316.5
820.595	5232.5
820.848	5383.5
821.1	5367.5
821.353	5370.5
821.605	5397.5
821.857	5431.5
822.11	5270.5
822.362	5349.5
822.614	5322.5
822.866	5388.5
823.118	5349.5
823.37	5440.5
823.622	5440.5
823.874	5393.5
824.126	5524.5
824.378	5477.5
824.63	5498.5
824.882	5535.5
825.134	5501.5
825.385	5482.5
825.637	5412.5
825.888	5369.5
826.14	5378.5
826.392	5357.5
826.643	5274.5
826.895	5359.5
827.146	5275.5
827.397	5288.5
827.649	5333.5
827.9	5242.5
828.151	5260.5
828.402	5253.5
828.653	5343.5
828.905	5326.5
829.156	5356.5
829.407	5285.5
829.658	5324.5
829.909	5389.5
830.159	5349.5
830.41	5341.5
830.661	5354.5
830.912	5302.5
831.162	5209.5
831.413	5240.5
831.664	5319.5
831.914	5203.5
832.165	5286.5
832.415	5266.5
832.666	5299.5
832.916	5309.5
833.167	5240.5
833.417	5361.5
833.667	5282.5
833.917	5246.5
834.168	5292.5
834.418	5299.5
834.668	5266.5
834.918	5242.5
835.168	5244.5
835.418	5139.5
835.668	5149.5
835.918	5211.5
836.167	5191.5
836.417	5076.5
836.667	5195.5
836.917	5179.5
837.166	5115.5
837.416	5173.5
837.666	5147.5
837.915	5145.5
838.165	5062.5
838.414	5036.5
838.663	4977.5
838.913	5004.5
839.162	5008.5
839.411	5048.5
839.661	4974.5
839.91	5007.5
840.159	5029.5
840.408	5043.5
840.657	5018.5
840.906	5048.5
841.155	5064.5
841.404	5034.5
841.653	5034.5
841.902	4954.5
842.15	5004.5
842.399	5049.5
842.648	4987.5
842.897	5003.5
843.145	4931.5
843.394	4912.5
843.642	4850.5
843.891	4872.5
844.139	4908.5
844.388	4858.5
844.636	4746.5
844.884	4823.5
845.133	4843.5
845.381	4830.5
845.629	4850.5
845.877	4762.5
846.125	4859.5
846.373	4813.5
846.621	4760.5
846.869	4842.5
847.117	4726.5
847.365	4691.5
847.613	4672.5
847.861	4723.5
848.108	4715.5
848.356	4720.5
848.604	4666.5
848.851	4673.5
849.099	4729.5
849.346	4694.5
849.594	4758.5
849.841	4766.5
850.089	4778.5
850.336	4764.5
850.583	4758.5
850.831	4801.5
851.078	4868.5
851.325	4851.5
851.572	5006.5
851.819	4900.5
852.066	4709.5
852.313	4583.5
852.56	4518.5
852.807	4537.5
853.054	4520.5
853.301	4494.5
853.548	4505.5
853.794	4691.5
854.041	4592.5
854.288	4585.5
854.534	4741.5
854.781	4667.5
855.028	4584.5
855.274	4631.5
855.52	4579.5
855.767	4521.5
856.013	4556.5
856.26	4789.5
856.506	4396.5
856.752	4508.5
856.998	4440.5
857.244	4453.5
857.49	4520.5
857.736	4506.5
857.982	4561.5
858.228	4535.5
858.474	4430.5
858.72	4459.5
858.966	4430.5
859.212	4368.5
859.458	4313.5
859.703	4303.5
859.949	4212.5
860.195	4215.5
860.44	4240.5
860.686	4184.5
860.931	4243.5
861.177	4080.5
861.422	4181.5
861.667	4192.5
861.913	4165.5
862.158	4124.5
862.403	4191.5
862.648	4219.5
862.893	4262.5
863.138	4210.5
863.384	4170.5
863.629	4206.5
863.873	4201.5
864.118	4184.5
864.363	4096.5
864.608	4218.5
864.853	4158.5
865.098	4122.5
865.342	4085.5
865.587	4067.5
865.832	4116.5
866.076	4098.5
866.321	4057.5
866.565	4071.5
866.81	3978.5
867.054	4027.5
867.298	4048.5
867.543	3974.5
867.787	4073.5
868.031	3996.5
868.275	3985.5
868.519	3961.5
868.764	4025.5
869.008	3946.5
869.252	4015.5
869.496	3939.5
869.739	3988.5
869.983	3985.5
870.227	3969.5
870.471	3964.5
870.715	4023.5
870.958	4020.5
871.202	4001.5
871.446	4029.5
871.689	3979.5
871.933	3984.5
872.176	3986.5
872.42	3985.5
872.663	3932.5
872.906	4028.5
873.15	3904.5
873.393	3886.5
873.636	3965.5
873.879	3941.5
874.122	3889.5
874.366	3807.5
874.609	3801.5
874.852	3781.5
875.095	3766.5
875.337	3737.5
875.58	3630.5
875.823	3735.5
876.066	3721.5
876.309	3764.5
876.551	3689.5
876.794	3637.5
877.037	3654.5
877.279	3607.5
877.522	3604.5
877.764	3688.5
878.007	3652.5
878.249	3672.5
878.491	3612.5
878.734	3635.5
878.976	3632.5
879.218	3561.5
879.46	3606.5
879.702	3567.5
879.945	3519.5
880.187	3491.5
880.429	3465.5
880.671	3465.5
880.912	3462.5
881.154	3441.5
881.396	3355.5
881.638	3421.5
881.88	3417.5
882.121	3394.5
882.363	3414.5
882.605	3420.5
882.846	3426.5
883.088	3443.5
883.329	3388.5
883.571	3346.5
883.812	3424.5
884.053	3456.5
884.295	3498.5
884.536	3673.5
884.777	3607.5
885.018	3614.5
885.259	3611.5
885.5	3504.5
885.742	3776.5
885.982	3542.5
886.223	3496.5
886.464	3423.5
886.705	3375.5
886.946	3371.5
887.187	3313.5
887.428	3342.5
887.668	3230.5
887.909	3177.5
888.15	3162.5
888.39	3229.5
888.631	3260.5
888.871	3193.5
889.111	3142.5
889.352	3091.5
889.592	3062.5
889.833	3060.5
890.073	3068.5
890.313	3100.5
890.553	2933.5
890.793	2987.5
891.033	2941.5
891.273	2940.5
891.513	2999.5
891.753	3054.5
891.993	2959.5
892.233	3002.5
892.473	3026.5
892.713	2949.5
892.952	2974.5
893.192	2982.5
893.432	3015.5
893.671	3038.5
893.911	2988.5
894.15	2980.5
894.39	2891.5
894.629	2886.5
894.869	2901.5
895.108	2879.5
895.347	2882.5
895.587	2882.5
895.826	2853.5
896.065	2822.5
896.304	2883.5
896.543	2915.5
896.782	2770.5
897.021	2836.5
897.26	2861.5
897.499	2904.5
897.738	2920.5
897.977	2878.5
898.216	2803.5
898.454	2765.5
898.693	2721.5
898.932	2793.5
899.17	2724.5
899.409	2714.5
899.647	2708.5
899.886	2722.5
900.124	2713.5
900.363	2697.5
900.601	2721.5
900.839	2741.5
901.078	2746.5
901.316	2782.5
901.554	2750.5
901.792	2768.5
902.03	2707.5
902.268	2759.5
902.506	2776.5
902.744	2722.5
902.982	2755.5
903.22	2652.5
903.458	2631.5
903.695	2637.5
903.933	2609.5
904.171	2560.5
904.409	2498.5
904.646	2544.5
904.884	2476.5
905.121	2529.5
905.359	2439.5
905.596	2416.5
905.833	2396.5
906.071	2358.5
906.308	2421.5
906.545	2376.5
906.783	2353.5
907.02	2343.5
907.257	2308.5
907.494	2342.5
907.731	2379.5
907.968	2368.5
908.205	2304.5
908.442	2315.5
908.679	2309.5
908.915	2285.5
909.152	2285.5
909.389	2207.5
909.626	2254.5
909.862	2193.5
910.099	2232.5
910.335	2280.5
910.572	2164.5
910.808	2215.5
911.045	2186.5
911.281	2141.5
911.518	2233.5
911.754	2191.5
911.99	2180.5
912.226	2154.5
912.463	2103.5
912.699	2121.5
912.935	2097.5
913.171	2077.5
913.407	2065.5
913.643	2117.5
913.879	2041.5
914.114	2039.5
914.35	1977.5
914.586	2023.5
914.822	1963.5
915.057	2064.5
915.293	1932.5
915.529	1905.5
915.764	2010.5
916	2016.5
916.235	1971.5
916.471	1967.5
916.706	1879.5
916.941	1951.5
917.177	1925.5
917.412	1956.5
917.647	1965.5
917.882	1918.5
918.117	1986.5
918.352	1937.5
918.588	1989.5
918.823	1928.5
919.057	1903.5
919.292	1818.5
919.527	1947.5
919.762	1835.5
919.997	1909.5
920.232	1823.5
920.466	1836.5
920.701	1737.5
920.935	1808.5
921.17	1774.5
921.405	1762.5
921.639	1831.5
921.873	1758.5
922.108	1782.5
922.342	1787.5
922.576	1699.5
922.811	1743.5
923.045	1772.5
923.279	1818.5
923.513	1686.5
923.747	1794.5
923.981	1741.5
924.215	1675.5
924.449	1704.5
924.683	1665.5
924.917	1703.5
925.151	1691.5
925.385	1740.5
925.618	1676.5
925.852	1682.5
926.086	1611.5
926.319	1679.5
926.553	1665.5
926.786	1688.5
927.02	1663.5
927.253	1709.5
927.486	1711.5
927.72	1624.5
927.953	1689.5
928.186	1637.5
928.42	1688.5
928.653	1641.5
928.886	1626.5
929.119	1624.5
929.352	1619.5
929.585	1643.5
929.818	1587.5
930.051	1615.5
930.284	1624.5
930.516	1521.5
930.749	1551.5
930.982	1589.5
931.215	1570.5
931.447	1520.5
931.68	1539.5
931.912	1532.5
932.145	1507.5
932.377	1556.5
932.61	1645.5
932.842	1509.5
933.074	1546.5
933.307	1501.5
933.539	1590.5
933.771	1602.5
934.003	1517.5
934.236	1593.5
934.468	1599.5
934.7	1545.5
934.932	1571.5
935.164	1503.5
935.395	1493.5
935.627	1517.5
935.859	1536.5
936.091	1478.5
936.323	1529.5
936.554	1564.5
936.786	1545.5
937.017	1471.5
937.249	1522.5
937.481	1460.5
937.712	1509.5
937.943	1487.5
938.175	1475.5
938.406	1470.5
938.637	1553.5
938.869	1444.5
939.1	1485.5
939.331	1485.5
939.562	1501.5
939.793	1484.5
940.024	1505.5
940.255	1518.5
940.486	1460.5
940.717	1462.5
940.948	1460.5
941.179	1397.5
941.409	1428.5
941.64	1418.5
941.871	1470.5
942.102	1409.5
942.332	1450.5
942.563	1471.5
942.793	1449.5
943.024	1409.5
943.254	1418.5
943.484	1461.5
943.715	1478.5
943.945	1454.5
944.175	1385.5
944.405	1370.5
944.636	1397.5
944.866	1440.5
945.096	1431.5
945.326	1375.5
945.556	1435.5
945.786	1458.5
946.016	1412.5
946.245	1346.5
946.475	1387.5
946.705	1383.5
946.935	1357.5
947.164	1397.5
947.394	1360.5
947.624	1398.5
947.853	1408.5
948.083	1391.5
948.312	1366.5
948.542	1296.5
948.771	1292.5
949	1303.5
949.23	1329.5
949.459	1324.5
949.688	1402.5
949.917	1335.5
950.146	1377.5
950.375	1399.5
950.604	1295.5
950.833	1399.5
951.062	1387.5
951.291	1335.5
951.52	1317.5
951.749	1329.5
951.978	1294.5
952.206	1287.5
952.435	1296.5
952.664	1351.5
952.892	1365.5
953.121	1326.5
953.349	1377.5
953.578	1342.5
953.806	1314.5
954.035	1276.5
954.263	1300.5
954.491	1261.5
954.719	1323.5
954.948	1280.5
955.176	1267.5
955.404	1219.5
955.632	1269.5
955.86	1291.5
956.088	1287.5
956.316	1292.5
956.544	1314.5
956.772	1255.5
956.999	1235.5
957.227	1357.5
957.455	1232.5
957.683	1293.5
957.91	1236.5
958.138	1224.5
958.365	1248.5
958.593	1222.5
958.82	1184.5
959.048	1266.5
959.275	1224.5
959.502	1223.5
959.73	1201.5
959.957	1245.5
960.184	1295.5
960.411	1242.5
960.638	1302.5
960.865	1220.5
961.092	1257.5
961.319	1147.5
961.546	1271.5
961.773	1254.5
962	1221.5
962.227	1257.5
962.454	1263.5
962.68	1212.5
962.907	1215.5
963.134	1201.5
963.36	1200.5
963.587	1204.5
963.813	1170.5
964.04	1233.5
964.266	1172.5
964.493	1267.5
964.719	1219.5
964.945	1222.5
965.171	1136.5
965.398	1187.5
965.624	1195.5
965.85	1158.5
966.076	1162.5
966.302	1203.5
966.528	1167.5
966.754	1192.5
966.98	1204.5
967.206	1164.5
967.431	1113.5
967.657	1227.5
967.883	1188.5
968.109	1185.5
968.334	1104.5
968.56	1127.5
968.785	1135.5
969.011	1108.5
969.236	1151.5
969.462	1138.5
969.687	1128.5
969.912	1170.5
970.138	1171.5
970.363	1114.5
970.588	1155.5
970.813	1134.5
971.038	1088.5
971.263	1144.5
971.488	1147.5
971.713	1188.5
971.938	1164.5
972.163	1075.5
972.388	1089.5
972.613	1090.5
972.838	1115.5
973.062	1088.5
973.287	1083.5
973.512	1054.5
973.736	1109.5
973.961	1061.5
974.185	1069.5
974.41	1120.5
974.634	1013.5
974.858	1032.5
975.083	1103.5
975.307	1093.5
975.531	1028.5
975.755	1001.5
975.98	1009.5
976.204	954.5
976.428	982.5
976.652	985.5
976.876	976.5
977.1	1009.5
977.324	978.5
977.547	1036.5
977.771	1040.5
977.995	996.5
978.219	943.5
978.442	1095.5
978.666	1018.5
978.89	1007.5
979.113	999.5
979.337	1019.5
979.56	979.5
979.783	1072.5
980.007	951.5
980.23	992.5
980.453	961.5
980.677	992.5
980.9	1015.5
981.123	875.5
981.346	1017.5
981.569	1011.5
981.792	1030.5
982.015	964.5
982.238	962.5
982.461	971.5
982.684	949.5
982.907	944.5
983.129	938.5
983.352	984.5
983.575	967.5
983.797	984.5
984.02	916.5
984.242	965.5
984.465	945.5
984.687	970.5
984.91	1008.5
985.132	965.5
985.354	994.5
985.577	982.5
985.799	966.5
986.021	900.5
986.243	927.5
986.465	942.5
986.687	1000.5
986.909	1018.5
987.131	974.5
987.353	928.5
987.575	960.5
987.797	934.5
988.019	856.5
988.241	933.5
988.462	898.5
988.684	959.5
988.906	1005.5
989.127	1000.5
989.349	879.5
989.57	968.5
989.792	989.5
990.013	973.5
990.234	980.5
990.456	1012.5
990.677	988.5
990.898	938.5
991.119	944.5
991.341	990.5
991.562	918.5
991.783	947.5
992.004	897.5
992.225	869.5
992.446	957.5
992.667	859.5
992.887	967.5
993.108	859.5
993.329	1004.5
993.55	932.5
993.77	862.5
993.991	872.5
994.212	932.5
994.432	924.5
994.653	924.5
994.873	938.5
995.093	825.5
995.314	887.5
995.534	949.5
995.754	973.5
995.975	996.5
996.195	873.5
996.415	931.5
996.635	911.5
996.855	930.5
997.075	901.5
997.295	909.5
997.515	886.5
997.735	927.5
997.955	902.5
998.174	915.5
998.394	856.5
998.614	928.5
998.834	870.5
999.053	952.5
999.273	920.5
999.492	985.5
999.712	924.5
999.931	878.5
1000.151	937.5
1000.37	921.5
1000.589	959.5
1000.809	892.5
1001.028	1044.5
1001.247	958.5
1001.466	878.5
1001.685	1007.5
1001.904	953.5
1002.123	930.5
1002.342	927.5
1002.561	917.5
1002.78	951.5
1002.999	989.5
1003.218	943.5
1003.436	928.5
1003.655	990.5
1003.874	903.5
1004.092	955.5
1004.311	1008.5
1004.53	957.5
1004.748	1049.5
1004.966	955.5
1005.185	1011.5
1005.403	1010.5
1005.622	989.5
1005.84	1053.5
1006.058	938.5
1006.276	967.5
1006.494	1450.5
1006.712	977.5
1006.931	1047.5
1007.149	931.5
1007.367	954.5
1007.584	1013.5
1007.802	1000.5
1008.02	954.5
1008.238	1073.5
1008.456	1025.5
1008.673	908.5
1008.891	991.5
1009.109	959.5
1009.326	1005.5
1009.544	1068.5
1009.761	968.5
1009.979	1040.5
1010.196	1018.5
1010.413	1079.5
1010.631	1107.5
1010.848	1124.5
1011.065	1103.5
1011.282	1066.5
1011.5	1029.5
1011.717	1136.5
1011.934	1073.5
1012.151	1115.5
1012.368	1073.5
1012.585	1052.5
1012.801	1087.5
1013.018	1058.5
1013.235	1024.5
1013.452	1045.5
1013.669	1047.5
1013.885	1031.5
1014.102	1034.5
1014.318	1007.5
1014.535	1005.5
1014.751	1014.5
1014.968	1021.5
1015.184	1074.5
1015.401	1000.5
1015.617	1003.5
1015.833	966.5
1016.049	957.5
1016.266	976.5
1016.482	974.5
1016.698	913.5
1016.914	977.5
1017.13	937.5
1017.346	950.5
1017.562	1018.5
1017.778	951.5
1017.993	914.5
1018.209	963.5
1018.425	944.5
1018.641	912.5
1018.856	882.5
1019.072	901.5
1019.288	960.5
1019.503	928.5
1019.719	862.5
1019.934	859.5
1020.149	926.5
1020.365	872.5
1020.58	839.5
1020.795	897.5
1021.011	843.5
1021.226	827.5
1021.441	861.5
1021.656	804.5
1021.871	778.5
1022.086	772.5
1022.301	745.5
1022.516	750.5
1022.731	848.5
1022.946	738.5
1023.16	727.5
1023.375	721.5
1023.59	701.5
1023.804	657.5
1024.019	790.5
1024.234	667.5
1024.448	720.5
1024.663	625.5
1024.877	660.5
1025.092	677.5
1025.306	694.5
1025.52	593.5
1025.734	685.5
1025.949	644.5
1026.163	623.5
1026.377	547.5
1026.591	630.5
1026.805	554.5
1027.019	569.5
1027.233	521.5
1027.447	473.5
1027.661	588.5
1027.875	508.5
1028.088	543.5
1028.302	463.5
1028.516	475.5
1028.73	473.5
1028.943	494.5
1029.157	452.5
1029.37	419.5
1029.584	-4.5
1029.797	-1.5
1030.011	-0.5
1030.224	1.5
