Data from QEP037381__100__10-20-02-741.txt Node

Date: Wed Dec 21 10:20:02 EST 2022
User: dcclab
Spectrometer: QEP03738
Trigger mode: 4
Integration Time (sec): 1.000000E1
Scans to average: 1
Electric dark correction enabled: true
Nonlinearity correction enabled: false
Boxcar width: 0
XAxis mode: Wavelengths
Number of Pixels in Spectrum: 1044
>>>>>Begin Spectral Data<<<<<
784.041	13.5
784.3	2.5
784.558	-2.5
784.817	-3.5
785.075	77605.5
785.334	13507.5
785.592	6366.5
785.851	4385.5
786.109	3356.5
786.368	2640.5
786.626	2103.5
786.884	1753.5
787.143	1460.5
787.401	1243.5
787.659	1098.5
787.917	947.5
788.175	888.5
788.433	779.5
788.691	717.5
788.949	683.5
789.207	644.5
789.465	562.5
789.723	524.5
789.98	481.5
790.238	540.5
790.496	510.5
790.753	471.5
791.011	523.5
791.268	451.5
791.526	465.5
791.783	472.5
792.041	453.5
792.298	376.5
792.556	441.5
792.813	410.5
793.07	398.5
793.327	395.5
793.584	469.5
793.841	391.5
794.099	411.5
794.356	474.5
794.613	365.5
794.869	421.5
795.126	368.5
795.383	359.5
795.64	372.5
795.897	336.5
796.153	370.5
796.41	364.5
796.667	358.5
796.923	378.5
797.18	362.5
797.436	385.5
797.693	340.5
797.949	400.5
798.206	433.5
798.462	335.5
798.718	398.5
798.974	361.5
799.231	404.5
799.487	385.5
799.743	400.5
799.999	407.5
800.255	390.5
800.511	368.5
800.767	411.5
801.023	383.5
801.279	395.5
801.534	404.5
801.79	430.5
802.046	399.5
802.302	463.5
802.557	466.5
802.813	519.5
803.068	522.5
803.324	655.5
803.579	752.5
803.835	926.5
804.09	1221.5
804.345	1447.5
804.601	1786.5
804.856	2113.5
805.111	2437.5
805.366	2605.5
805.621	2730.5
805.876	2814.5
806.131	2888.5
806.386	2924.5
806.641	2941.5
806.896	2966.5
807.151	3080.5
807.406	3049.5
807.661	3123.5
807.915	3177.5
808.17	3265.5
808.425	3227.5
808.679	3245.5
808.934	3336.5
809.188	3297.5
809.443	3365.5
809.697	3447.5
809.951	3382.5
810.206	3441.5
810.46	3475.5
810.714	3466.5
810.968	3523.5
811.223	3512.5
811.477	3557.5
811.731	3598.5
811.985	3583.5
812.239	3566.5
812.493	3612.5
812.747	3638.5
813	3630.5
813.254	3643.5
813.508	3699.5
813.762	3669.5
814.015	3704.5
814.269	3764.5
814.522	3793.5
814.776	3851.5
815.03	3875.5
815.283	3894.5
815.536	3975.5
815.79	4047.5
816.043	4030.5
816.296	4107.5
816.55	4106.5
816.803	4251.5
817.056	4252.5
817.309	4277.5
817.562	4325.5
817.815	4406.5
818.068	4371.5
818.321	4344.5
818.574	4427.5
818.827	4511.5
819.079	4562.5
819.332	4749.5
819.585	4710.5
819.838	4806.5
820.09	4763.5
820.343	4819.5
820.595	4790.5
820.848	4883.5
821.1	4910.5
821.353	4908.5
821.605	4887.5
821.857	4940.5
822.11	4816.5
822.362	4892.5
822.614	4872.5
822.866	4910.5
823.118	4848.5
823.37	5002.5
823.622	4955.5
823.874	4972.5
824.126	5043.5
824.378	5015.5
824.63	5098.5
824.882	5084.5
825.134	4975.5
825.385	5002.5
825.637	4973.5
825.888	4921.5
826.14	4962.5
826.392	4869.5
826.643	4838.5
826.895	4895.5
827.146	4743.5
827.397	4850.5
827.649	4833.5
827.9	4769.5
828.151	4749.5
828.402	4770.5
828.653	4882.5
828.905	4843.5
829.156	4893.5
829.407	4826.5
829.658	4842.5
829.909	4856.5
830.159	4861.5
830.41	4896.5
830.661	4837.5
830.912	4764.5
831.162	4804.5
831.413	4738.5
831.664	4802.5
831.914	4800.5
832.165	4777.5
832.415	4782.5
832.666	4799.5
832.916	4825.5
833.167	4778.5
833.417	4865.5
833.667	4814.5
833.917	4759.5
834.168	4807.5
834.418	4832.5
834.668	4792.5
834.918	4706.5
835.168	4762.5
835.418	4691.5
835.668	4706.5
835.918	4752.5
836.167	4723.5
836.417	4687.5
836.667	4692.5
836.917	4699.5
837.166	4608.5
837.416	4693.5
837.666	4675.5
837.915	4618.5
838.165	4644.5
838.414	4584.5
838.663	4526.5
838.913	4555.5
839.162	4486.5
839.411	4600.5
839.661	4536.5
839.91	4557.5
840.159	4587.5
840.408	4576.5
840.657	4582.5
840.906	4643.5
841.155	4623.5
841.404	4596.5
841.653	4565.5
841.902	4565.5
842.15	4566.5
842.399	4532.5
842.648	4506.5
842.897	4510.5
843.145	4477.5
843.394	4432.5
843.642	4434.5
843.891	4462.5
844.139	4434.5
844.388	4324.5
844.636	4379.5
844.884	4388.5
845.133	4320.5
845.381	4378.5
845.629	4391.5
845.877	4354.5
846.125	4342.5
846.373	4334.5
846.621	4292.5
846.869	4338.5
847.117	4307.5
847.365	4274.5
847.613	4247.5
847.861	4272.5
848.108	4330.5
848.356	4297.5
848.604	4255.5
848.851	4313.5
849.099	4302.5
849.346	4253.5
849.594	4349.5
849.841	4379.5
850.089	4293.5
850.336	4281.5
850.583	4362.5
850.831	4369.5
851.078	4390.5
851.325	4417.5
851.572	4584.5
851.819	4466.5
852.066	4283.5
852.313	4179.5
852.56	4101.5
852.807	4071.5
853.054	4052.5
853.301	4111.5
853.548	4142.5
853.794	4288.5
854.041	4192.5
854.288	4162.5
854.534	4277.5
854.781	4195.5
855.028	4132.5
855.274	4256.5
855.52	4117.5
855.767	4077.5
856.013	4146.5
856.26	4415.5
856.506	4069.5
856.752	4099.5
856.998	4059.5
857.244	4053.5
857.49	4095.5
857.736	4128.5
857.982	4111.5
858.228	4162.5
858.474	4026.5
858.72	4071.5
858.966	4009.5
859.212	3995.5
859.458	3962.5
859.703	3942.5
859.949	3829.5
860.195	3874.5
860.44	3829.5
860.686	3776.5
860.931	3844.5
861.177	3763.5
861.422	3805.5
861.667	3759.5
861.913	3775.5
862.158	3747.5
862.403	3829.5
862.648	3863.5
862.893	3889.5
863.138	3790.5
863.384	3830.5
863.629	3792.5
863.873	3813.5
864.118	3778.5
864.363	3708.5
864.608	3779.5
864.853	3789.5
865.098	3735.5
865.342	3706.5
865.587	3721.5
865.832	3688.5
866.076	3732.5
866.321	3680.5
866.565	3664.5
866.81	3580.5
867.054	3693.5
867.298	3642.5
867.543	3615.5
867.787	3709.5
868.031	3633.5
868.275	3601.5
868.519	3624.5
868.764	3608.5
869.008	3593.5
869.252	3627.5
869.496	3564.5
869.739	3602.5
869.983	3593.5
870.227	3596.5
870.471	3532.5
870.715	3638.5
870.958	3685.5
871.202	3585.5
871.446	3588.5
871.689	3574.5
871.933	3642.5
872.176	3606.5
872.42	3597.5
872.663	3590.5
872.906	3605.5
873.15	3580.5
873.393	3546.5
873.636	3572.5
873.879	3539.5
874.122	3519.5
874.366	3466.5
874.609	3461.5
874.852	3445.5
875.095	3400.5
875.337	3381.5
875.58	3295.5
875.823	3375.5
876.066	3409.5
876.309	3434.5
876.551	3347.5
876.794	3249.5
877.037	3384.5
877.279	3292.5
877.522	3289.5
877.764	3355.5
878.007	3274.5
878.249	3294.5
878.491	3251.5
878.734	3317.5
878.976	3308.5
879.218	3228.5
879.46	3268.5
879.702	3250.5
879.945	3205.5
880.187	3129.5
880.429	3184.5
880.671	3145.5
880.912	3132.5
881.154	3147.5
881.396	3051.5
881.638	3125.5
881.88	3119.5
882.121	3092.5
882.363	3084.5
882.605	3133.5
882.846	3084.5
883.088	3119.5
883.329	3081.5
883.571	3057.5
883.812	3111.5
884.053	3145.5
884.295	3195.5
884.536	3300.5
884.777	3281.5
885.018	3312.5
885.259	3263.5
885.5	3217.5
885.742	3460.5
885.982	3218.5
886.223	3142.5
886.464	3130.5
886.705	3041.5
886.946	3068.5
887.187	2958.5
887.428	3032.5
887.668	2927.5
887.909	2892.5
888.15	2871.5
888.39	2886.5
888.631	2924.5
888.871	2867.5
889.111	2834.5
889.352	2840.5
889.592	2763.5
889.833	2775.5
890.073	2757.5
890.313	2827.5
890.553	2632.5
890.793	2716.5
891.033	2703.5
891.273	2637.5
891.513	2735.5
891.753	2751.5
891.993	2701.5
892.233	2705.5
892.473	2794.5
892.713	2730.5
892.952	2639.5
893.192	2702.5
893.432	2668.5
893.671	2743.5
893.911	2725.5
894.15	2696.5
894.39	2616.5
894.629	2616.5
894.869	2638.5
895.108	2624.5
895.347	2540.5
895.587	2632.5
895.826	2578.5
896.065	2566.5
896.304	2626.5
896.543	2623.5
896.782	2525.5
897.021	2570.5
897.26	2580.5
897.499	2663.5
897.738	2662.5
897.977	2594.5
898.216	2551.5
898.454	2526.5
898.693	2474.5
898.932	2504.5
899.17	2474.5
899.409	2465.5
899.647	2476.5
899.886	2431.5
900.124	2463.5
900.363	2437.5
900.601	2463.5
900.839	2500.5
901.078	2500.5
901.316	2512.5
901.554	2483.5
901.792	2508.5
902.03	2479.5
902.268	2507.5
902.506	2533.5
902.744	2474.5
902.982	2501.5
903.22	2402.5
903.458	2394.5
903.695	2402.5
903.933	2388.5
904.171	2293.5
904.409	2295.5
904.646	2279.5
904.884	2222.5
905.121	2297.5
905.359	2242.5
905.596	2231.5
905.833	2146.5
906.071	2153.5
906.308	2235.5
906.545	2160.5
906.783	2150.5
907.02	2148.5
907.257	2110.5
907.494	2123.5
907.731	2174.5
907.968	2129.5
908.205	2089.5
908.442	2084.5
908.679	2116.5
908.915	2086.5
909.152	2111.5
909.389	1988.5
909.626	2003.5
909.862	2018.5
910.099	2048.5
910.335	2055.5
910.572	1938.5
910.808	2007.5
911.045	1965.5
911.281	1968.5
911.518	2025.5
911.754	1958.5
911.99	1979.5
912.226	1956.5
912.463	1939.5
912.699	1910.5
912.935	1916.5
913.171	1889.5
913.407	1882.5
913.643	1942.5
913.879	1882.5
914.114	1833.5
914.35	1828.5
914.586	1819.5
914.822	1791.5
915.057	1881.5
915.293	1738.5
915.529	1746.5
915.764	1847.5
916	1836.5
916.235	1826.5
916.471	1832.5
916.706	1736.5
916.941	1771.5
917.177	1770.5
917.412	1798.5
917.647	1795.5
917.882	1717.5
918.117	1775.5
918.352	1775.5
918.588	1823.5
918.823	1749.5
919.057	1740.5
919.292	1649.5
919.527	1808.5
919.762	1675.5
919.997	1770.5
920.232	1670.5
920.466	1692.5
920.701	1593.5
920.935	1640.5
921.17	1606.5
921.405	1602.5
921.639	1653.5
921.873	1643.5
922.108	1629.5
922.342	1661.5
922.576	1575.5
922.811	1546.5
923.045	1645.5
923.279	1636.5
923.513	1504.5
923.747	1619.5
923.981	1605.5
924.215	1547.5
924.449	1546.5
924.683	1515.5
924.917	1540.5
925.151	1521.5
925.385	1582.5
925.618	1560.5
925.852	1554.5
926.086	1499.5
926.319	1511.5
926.553	1527.5
926.786	1531.5
927.02	1494.5
927.253	1546.5
927.486	1536.5
927.72	1482.5
927.953	1550.5
928.186	1521.5
928.42	1532.5
928.653	1470.5
928.886	1458.5
929.119	1483.5
929.352	1482.5
929.585	1503.5
929.818	1460.5
930.051	1479.5
930.284	1475.5
930.516	1398.5
930.749	1424.5
930.982	1459.5
931.215	1441.5
931.447	1408.5
931.68	1414.5
931.912	1395.5
932.145	1409.5
932.377	1424.5
932.61	1542.5
932.842	1369.5
933.074	1442.5
933.307	1407.5
933.539	1455.5
933.771	1489.5
934.003	1460.5
934.236	1530.5
934.468	1569.5
934.7	1479.5
934.932	1497.5
935.164	1464.5
935.395	1432.5
935.627	1438.5
935.859	1430.5
936.091	1344.5
936.323	1411.5
936.554	1425.5
936.786	1389.5
937.017	1332.5
937.249	1401.5
937.481	1313.5
937.712	1424.5
937.943	1371.5
938.175	1354.5
938.406	1347.5
938.637	1432.5
938.869	1330.5
939.1	1385.5
939.331	1336.5
939.562	1364.5
939.793	1365.5
940.024	1371.5
940.255	1378.5
940.486	1363.5
940.717	1338.5
940.948	1321.5
941.179	1259.5
941.409	1312.5
941.64	1319.5
941.871	1329.5
942.102	1314.5
942.332	1313.5
942.563	1319.5
942.793	1333.5
943.024	1266.5
943.254	1322.5
943.484	1349.5
943.715	1320.5
943.945	1329.5
944.175	1259.5
944.405	1277.5
944.636	1269.5
944.866	1326.5
945.096	1321.5
945.326	1268.5
945.556	1330.5
945.786	1325.5
946.016	1295.5
946.245	1225.5
946.475	1286.5
946.705	1258.5
946.935	1288.5
947.164	1276.5
947.394	1236.5
947.624	1263.5
947.853	1316.5
948.083	1253.5
948.312	1249.5
948.542	1207.5
948.771	1187.5
949	1189.5
949.23	1225.5
949.459	1236.5
949.688	1302.5
949.917	1210.5
950.146	1246.5
950.375	1303.5
950.604	1210.5
950.833	1297.5
951.062	1270.5
951.291	1229.5
951.52	1203.5
951.749	1233.5
951.978	1189.5
952.206	1201.5
952.435	1193.5
952.664	1240.5
952.892	1259.5
953.121	1229.5
953.349	1269.5
953.578	1253.5
953.806	1204.5
954.035	1179.5
954.263	1215.5
954.491	1157.5
954.719	1238.5
954.948	1176.5
955.176	1152.5
955.404	1120.5
955.632	1183.5
955.86	1194.5
956.088	1165.5
956.316	1200.5
956.544	1243.5
956.772	1168.5
956.999	1134.5
957.227	1254.5
957.455	1141.5
957.683	1157.5
957.91	1142.5
958.138	1125.5
958.365	1150.5
958.593	1128.5
958.82	1075.5
959.048	1155.5
959.275	1120.5
959.502	1117.5
959.73	1105.5
959.957	1160.5
960.184	1232.5
960.411	1145.5
960.638	1202.5
960.865	1144.5
961.092	1166.5
961.319	1063.5
961.546	1161.5
961.773	1167.5
962	1151.5
962.227	1157.5
962.454	1153.5
962.68	1111.5
962.907	1128.5
963.134	1088.5
963.36	1128.5
963.587	1124.5
963.813	1094.5
964.04	1139.5
964.266	1056.5
964.493	1147.5
964.719	1149.5
964.945	1162.5
965.171	1040.5
965.398	1110.5
965.624	1131.5
965.85	1064.5
966.076	1079.5
966.302	1114.5
966.528	1075.5
966.754	1117.5
966.98	1098.5
967.206	1115.5
967.431	1040.5
967.657	1132.5
967.883	1085.5
968.109	1090.5
968.334	1039.5
968.56	1052.5
968.785	1057.5
969.011	1013.5
969.236	1087.5
969.462	1030.5
969.687	1041.5
969.912	1083.5
970.138	1088.5
970.363	1038.5
970.588	1037.5
970.813	1056.5
971.038	1017.5
971.263	1055.5
971.488	1072.5
971.713	1090.5
971.938	1068.5
972.163	986.5
972.388	1010.5
972.613	1002.5
972.838	1059.5
973.062	1011.5
973.287	1015.5
973.512	963.5
973.736	984.5
973.961	983.5
974.185	982.5
974.41	1033.5
974.634	958.5
974.858	948.5
975.083	999.5
975.307	1044.5
975.531	962.5
975.755	919.5
975.98	938.5
976.204	894.5
976.428	931.5
976.652	927.5
976.876	919.5
977.1	956.5
977.324	900.5
977.547	984.5
977.771	964.5
977.995	946.5
978.219	887.5
978.442	1007.5
978.666	946.5
978.89	951.5
979.113	936.5
979.337	937.5
979.56	908.5
979.783	995.5
980.007	882.5
980.23	937.5
980.453	907.5
980.677	933.5
980.9	920.5
981.123	849.5
981.346	941.5
981.569	941.5
981.792	939.5
982.015	927.5
982.238	895.5
982.461	925.5
982.684	880.5
982.907	890.5
983.129	875.5
983.352	919.5
983.575	902.5
983.797	913.5
984.02	877.5
984.242	883.5
984.465	883.5
984.687	916.5
984.91	958.5
985.132	917.5
985.354	935.5
985.577	897.5
985.799	913.5
986.021	853.5
986.243	868.5
986.465	896.5
986.687	955.5
986.909	965.5
987.131	896.5
987.353	897.5
987.575	918.5
987.797	872.5
988.019	807.5
988.241	883.5
988.462	867.5
988.684	917.5
988.906	952.5
989.127	946.5
989.349	842.5
989.57	907.5
989.792	905.5
990.013	925.5
990.234	955.5
990.456	953.5
990.677	931.5
990.898	878.5
991.119	881.5
991.341	931.5
991.562	850.5
991.783	912.5
992.004	870.5
992.225	819.5
992.446	904.5
992.667	808.5
992.887	910.5
993.108	796.5
993.329	940.5
993.55	900.5
993.77	820.5
993.991	857.5
994.212	877.5
994.432	869.5
994.653	896.5
994.873	899.5
995.093	776.5
995.314	832.5
995.534	892.5
995.754	907.5
995.975	949.5
996.195	824.5
996.415	891.5
996.635	863.5
996.855	886.5
997.075	850.5
997.295	868.5
997.515	836.5
997.735	876.5
997.955	879.5
998.174	857.5
998.394	839.5
998.614	889.5
998.834	829.5
999.053	917.5
999.273	874.5
999.492	927.5
999.712	887.5
999.931	854.5
1000.151	898.5
1000.37	857.5
1000.589	933.5
1000.809	856.5
1001.028	982.5
1001.247	927.5
1001.466	830.5
1001.685	980.5
1001.904	908.5
1002.123	918.5
1002.342	922.5
1002.561	871.5
1002.78	911.5
1002.999	963.5
1003.218	910.5
1003.436	900.5
1003.655	948.5
1003.874	890.5
1004.092	919.5
1004.311	953.5
1004.53	904.5
1004.748	1007.5
1004.966	918.5
1005.185	978.5
1005.403	956.5
1005.622	940.5
1005.84	1021.5
1006.058	933.5
1006.276	938.5
1006.494	1446.5
1006.712	960.5
1006.931	1016.5
1007.149	894.5
1007.367	915.5
1007.584	954.5
1007.802	996.5
1008.02	909.5
1008.238	1018.5
1008.456	1004.5
1008.673	860.5
1008.891	971.5
1009.109	912.5
1009.326	964.5
1009.544	1018.5
1009.761	957.5
1009.979	1007.5
1010.196	972.5
1010.413	1057.5
1010.631	1054.5
1010.848	1074.5
1011.065	1098.5
1011.282	1036.5
1011.5	969.5
1011.717	1093.5
1011.934	1026.5
1012.151	1088.5
1012.368	1051.5
1012.585	1000.5
1012.801	1054.5
1013.018	1016.5
1013.235	990.5
1013.452	1001.5
1013.669	1025.5
1013.885	980.5
1014.102	1012.5
1014.318	978.5
1014.535	967.5
1014.751	991.5
1014.968	1013.5
1015.184	1033.5
1015.401	953.5
1015.617	981.5
1015.833	942.5
1016.049	975.5
1016.266	930.5
1016.482	957.5
1016.698	897.5
1016.914	971.5
1017.13	908.5
1017.346	905.5
1017.562	981.5
1017.778	914.5
1017.993	876.5
1018.209	927.5
1018.425	923.5
1018.641	856.5
1018.856	853.5
1019.072	891.5
1019.288	922.5
1019.503	896.5
1019.719	819.5
1019.934	824.5
1020.149	884.5
1020.365	849.5
1020.58	826.5
1020.795	859.5
1021.011	827.5
1021.226	816.5
1021.441	863.5
1021.656	788.5
1021.871	726.5
1022.086	736.5
1022.301	729.5
1022.516	726.5
1022.731	858.5
1022.946	749.5
1023.16	1456.5
1023.375	2056.5
1023.59	728.5
1023.804	644.5
1024.019	768.5
1024.234	618.5
1024.448	690.5
1024.663	626.5
1024.877	644.5
1025.092	650.5
1025.306	668.5
1025.52	583.5
1025.734	684.5
1025.949	624.5
1026.163	584.5
1026.377	537.5
1026.591	607.5
1026.805	539.5
1027.019	517.5
1027.233	504.5
1027.447	458.5
1027.661	578.5
1027.875	516.5
1028.088	518.5
1028.302	462.5
1028.516	455.5
1028.73	471.5
1028.943	462.5
1029.157	435.5
1029.37	396.5
1029.584	-2.5
1029.797	-1.5
1030.011	-2.5
1030.224	-3.5
