Data from QEP037381__134__10-25-42-732.txt Node

Date: Wed Dec 21 10:25:42 EST 2022
User: dcclab
Spectrometer: QEP03738
Trigger mode: 4
Integration Time (sec): 1.000000E1
Scans to average: 1
Electric dark correction enabled: true
Nonlinearity correction enabled: false
Boxcar width: 0
XAxis mode: Wavelengths
Number of Pixels in Spectrum: 1044
>>>>>Begin Spectral Data<<<<<
784.041	12.25
784.3	4.25
784.558	-2.75
784.817	-7.75
785.075	78266.25
785.334	13524.25
785.592	6421.25
785.851	4440.25
786.109	3358.25
786.368	2612.25
786.626	2101.25
786.884	1761.25
787.143	1530.25
787.401	1235.25
787.659	1141.25
787.917	978.25
788.175	902.25
788.433	778.25
788.691	703.25
788.949	669.25
789.207	648.25
789.465	568.25
789.723	531.25
789.98	504.25
790.238	529.25
790.496	506.25
790.753	489.25
791.011	531.25
791.268	469.25
791.526	459.25
791.783	466.25
792.041	460.25
792.298	375.25
792.556	440.25
792.813	434.25
793.07	409.25
793.327	404.25
793.584	464.25
793.841	388.25
794.099	408.25
794.356	462.25
794.613	372.25
794.869	402.25
795.126	371.25
795.383	359.25
795.64	378.25
795.897	325.25
796.153	394.25
796.41	380.25
796.667	344.25
796.923	365.25
797.18	363.25
797.436	380.25
797.693	355.25
797.949	390.25
798.206	428.25
798.462	333.25
798.718	385.25
798.974	349.25
799.231	395.25
799.487	391.25
799.743	381.25
799.999	394.25
800.255	385.25
800.511	363.25
800.767	404.25
801.023	376.25
801.279	380.25
801.534	406.25
801.79	425.25
802.046	386.25
802.302	453.25
802.557	454.25
802.813	496.25
803.068	493.25
803.324	594.25
803.579	694.25
803.835	808.25
804.09	1061.25
804.345	1286.25
804.601	1489.25
804.856	1804.25
805.111	2049.25
805.366	2208.25
805.621	2343.25
805.876	2411.25
806.131	2473.25
806.386	2487.25
806.641	2497.25
806.896	2534.25
807.151	2677.25
807.406	2655.25
807.661	2679.25
807.915	2688.25
808.17	2785.25
808.425	2743.25
808.679	2774.25
808.934	2897.25
809.188	2876.25
809.443	2898.25
809.697	2961.25
809.951	2935.25
810.206	2966.25
810.46	2998.25
810.714	3024.25
810.968	3046.25
811.223	3037.25
811.477	3063.25
811.731	3119.25
811.985	3053.25
812.239	3024.25
812.493	3096.25
812.747	3145.25
813	3120.25
813.254	3165.25
813.508	3159.25
813.762	3170.25
814.015	3179.25
814.269	3200.25
814.522	3296.25
814.776	3314.25
815.03	3324.25
815.283	3384.25
815.536	3424.25
815.79	3463.25
816.043	3543.25
816.296	3544.25
816.55	3585.25
816.803	3592.25
817.056	3734.25
817.309	3736.25
817.562	3724.25
817.815	3768.25
818.068	3762.25
818.321	3810.25
818.574	3855.25
818.827	3941.25
819.079	3936.25
819.332	4121.25
819.585	4075.25
819.838	4168.25
820.09	4133.25
820.343	4199.25
820.595	4116.25
820.848	4268.25
821.1	4271.25
821.353	4243.25
821.605	4285.25
821.857	4299.25
822.11	4179.25
822.362	4224.25
822.614	4222.25
822.866	4258.25
823.118	4232.25
823.37	4333.25
823.622	4301.25
823.874	4301.25
824.126	4387.25
824.378	4368.25
824.63	4357.25
824.882	4378.25
825.134	4343.25
825.385	4379.25
825.637	4366.25
825.888	4267.25
826.14	4287.25
826.392	4236.25
826.643	4185.25
826.895	4276.25
827.146	4175.25
827.397	4129.25
827.649	4223.25
827.9	4161.25
828.151	4192.25
828.402	4187.25
828.653	4181.25
828.905	4226.25
829.156	4233.25
829.407	4171.25
829.658	4231.25
829.909	4273.25
830.159	4257.25
830.41	4175.25
830.661	4231.25
830.912	4179.25
831.162	4165.25
831.413	4112.25
831.664	4226.25
831.914	4164.25
832.165	4116.25
832.415	4203.25
832.666	4194.25
832.916	4224.25
833.167	4189.25
833.417	4227.25
833.667	4190.25
833.917	4140.25
834.168	4229.25
834.418	4193.25
834.668	4178.25
834.918	4098.25
835.168	4195.25
835.418	4060.25
835.668	4130.25
835.918	4167.25
836.167	4132.25
836.417	4058.25
836.667	4058.25
836.917	4150.25
837.166	4063.25
837.416	4074.25
837.666	4078.25
837.915	4040.25
838.165	4007.25
838.414	3969.25
838.663	3929.25
838.913	4005.25
839.162	3978.25
839.411	4008.25
839.661	3937.25
839.91	3954.25
840.159	3952.25
840.408	3982.25
840.657	3968.25
840.906	3987.25
841.155	4062.25
841.404	3939.25
841.653	3964.25
841.902	3901.25
842.15	3940.25
842.399	3990.25
842.648	3966.25
842.897	3961.25
843.145	3890.25
843.394	3878.25
843.642	3878.25
843.891	3855.25
844.139	3834.25
844.388	3811.25
844.636	3795.25
844.884	3784.25
845.133	3784.25
845.381	3800.25
845.629	3853.25
845.877	3790.25
846.125	3796.25
846.373	3843.25
846.621	3742.25
846.869	3806.25
847.117	3761.25
847.365	3693.25
847.613	3743.25
847.861	3684.25
848.108	3767.25
848.356	3787.25
848.604	3717.25
848.851	3795.25
849.099	3723.25
849.346	3785.25
849.594	3812.25
849.841	3825.25
850.089	3756.25
850.336	3760.25
850.583	3810.25
850.831	3800.25
851.078	3851.25
851.325	3899.25
851.572	4042.25
851.819	3894.25
852.066	3755.25
852.313	3623.25
852.56	3568.25
852.807	3540.25
853.054	3578.25
853.301	3638.25
853.548	3601.25
853.794	3733.25
854.041	3686.25
854.288	3598.25
854.534	3749.25
854.781	3703.25
855.028	3625.25
855.274	3696.25
855.52	3592.25
855.767	3573.25
856.013	3608.25
856.26	3869.25
856.506	3545.25
856.752	3589.25
856.998	3548.25
857.244	3523.25
857.49	3603.25
857.736	3618.25
857.982	3603.25
858.228	3575.25
858.474	3537.25
858.72	3565.25
858.966	3547.25
859.212	3443.25
859.458	3435.25
859.703	3404.25
859.949	3341.25
860.195	3375.25
860.44	3336.25
860.686	3283.25
860.931	3352.25
861.177	3285.25
861.422	3340.25
861.667	3298.25
861.913	3306.25
862.158	3272.25
862.403	3364.25
862.648	3370.25
862.893	3388.25
863.138	3352.25
863.384	3287.25
863.629	3366.25
863.873	3298.25
864.118	3336.25
864.363	3232.25
864.608	3355.25
864.853	3323.25
865.098	3299.25
865.342	3310.25
865.587	3246.25
865.832	3319.25
866.076	3293.25
866.321	3268.25
866.565	3222.25
866.81	3188.25
867.054	3182.25
867.298	3216.25
867.543	3132.25
867.787	3242.25
868.031	3183.25
868.275	3198.25
868.519	3118.25
868.764	3144.25
869.008	3175.25
869.252	3194.25
869.496	3149.25
869.739	3151.25
869.983	3204.25
870.227	3144.25
870.471	3143.25
870.715	3219.25
870.958	3180.25
871.202	3136.25
871.446	3168.25
871.689	3122.25
871.933	3143.25
872.176	3191.25
872.42	3142.25
872.663	3149.25
872.906	3212.25
873.15	3146.25
873.393	3096.25
873.636	3149.25
873.879	3112.25
874.122	3106.25
874.366	3054.25
874.609	3058.25
874.852	2996.25
875.095	2993.25
875.337	2960.25
875.58	2919.25
875.823	2996.25
876.066	3008.25
876.309	3018.25
876.551	2911.25
876.794	2884.25
877.037	2944.25
877.279	2880.25
877.522	2875.25
877.764	2935.25
878.007	2854.25
878.249	2909.25
878.491	2890.25
878.734	2926.25
878.976	2898.25
879.218	2834.25
879.46	2891.25
879.702	2885.25
879.945	2832.25
880.187	2767.25
880.429	2763.25
880.671	2735.25
880.912	2780.25
881.154	2743.25
881.396	2652.25
881.638	2712.25
881.88	2729.25
882.121	2685.25
882.363	2717.25
882.605	2757.25
882.846	2743.25
883.088	2728.25
883.329	2687.25
883.571	2688.25
883.812	2742.25
884.053	2792.25
884.295	2864.25
884.536	3010.25
884.777	2862.25
885.018	2941.25
885.259	2918.25
885.5	2821.25
885.742	3120.25
885.982	2843.25
886.223	2764.25
886.464	2776.25
886.705	2701.25
886.946	2695.25
887.187	2600.25
887.428	2683.25
887.668	2585.25
887.909	2532.25
888.15	2526.25
888.39	2576.25
888.631	2585.25
888.871	2531.25
889.111	2493.25
889.352	2506.25
889.592	2419.25
889.833	2434.25
890.073	2440.25
890.313	2491.25
890.553	2389.25
890.793	2381.25
891.033	2377.25
891.273	2341.25
891.513	2415.25
891.753	2431.25
891.993	2368.25
892.233	2398.25
892.473	2431.25
892.713	2414.25
892.952	2367.25
893.192	2390.25
893.432	2377.25
893.671	2440.25
893.911	2413.25
894.15	2375.25
894.39	2255.25
894.629	2320.25
894.869	2340.25
895.108	2299.25
895.347	2291.25
895.587	2278.25
895.826	2279.25
896.065	2280.25
896.304	2303.25
896.543	2315.25
896.782	2218.25
897.021	2310.25
897.26	2293.25
897.499	2367.25
897.738	2344.25
897.977	2306.25
898.216	2255.25
898.454	2217.25
898.693	2203.25
898.932	2206.25
899.17	2216.25
899.409	2176.25
899.647	2209.25
899.886	2158.25
900.124	2202.25
900.363	2159.25
900.601	2210.25
900.839	2172.25
901.078	2205.25
901.316	2195.25
901.554	2178.25
901.792	2228.25
902.03	2183.25
902.268	2212.25
902.506	2217.25
902.744	2198.25
902.982	2236.25
903.22	2114.25
903.458	2154.25
903.695	2159.25
903.933	2127.25
904.171	2039.25
904.409	2013.25
904.646	2049.25
904.884	1987.25
905.121	2018.25
905.359	1993.25
905.596	1953.25
905.833	1888.25
906.071	1907.25
906.308	1953.25
906.545	1927.25
906.783	1879.25
907.02	1907.25
907.257	1868.25
907.494	1861.25
907.731	1903.25
907.968	1924.25
908.205	1888.25
908.442	1848.25
908.679	1849.25
908.915	1832.25
909.152	1840.25
909.389	1763.25
909.626	1785.25
909.862	1745.25
910.099	1811.25
910.335	1827.25
910.572	1728.25
910.808	1776.25
911.045	1770.25
911.281	1745.25
911.518	1795.25
911.754	1731.25
911.99	1750.25
912.226	1768.25
912.463	1718.25
912.699	1709.25
912.935	1687.25
913.171	1692.25
913.407	1647.25
913.643	1720.25
913.879	1648.25
914.114	1645.25
914.35	1614.25
914.586	1627.25
914.822	1596.25
915.057	1693.25
915.293	1547.25
915.529	1561.25
915.764	1646.25
916	1595.25
916.235	1651.25
916.471	1603.25
916.706	1530.25
916.941	1590.25
917.177	1584.25
917.412	1618.25
917.647	1605.25
917.882	1547.25
918.117	1625.25
918.352	1590.25
918.588	1631.25
918.823	1533.25
919.057	1567.25
919.292	1481.25
919.527	1607.25
919.762	1498.25
919.997	1571.25
920.232	1464.25
920.466	1520.25
920.701	1416.25
920.935	1464.25
921.17	1436.25
921.405	1456.25
921.639	1480.25
921.873	1446.25
922.108	1470.25
922.342	1480.25
922.576	1403.25
922.811	1415.25
923.045	1452.25
923.279	1487.25
923.513	1368.25
923.747	1462.25
923.981	1457.25
924.215	1395.25
924.449	1366.25
924.683	1338.25
924.917	1366.25
925.151	1362.25
925.385	1448.25
925.618	1393.25
925.852	1387.25
926.086	1334.25
926.319	1386.25
926.553	1364.25
926.786	1383.25
927.02	1372.25
927.253	1397.25
927.486	1420.25
927.72	1313.25
927.953	1410.25
928.186	1340.25
928.42	1391.25
928.653	1322.25
928.886	1311.25
929.119	1339.25
929.352	1320.25
929.585	1328.25
929.818	1295.25
930.051	1330.25
930.284	1348.25
930.516	1269.25
930.749	1274.25
930.982	1332.25
931.215	1308.25
931.447	1256.25
931.68	1283.25
931.912	1262.25
932.145	1276.25
932.377	1289.25
932.61	1387.25
932.842	1213.25
933.074	1320.25
933.307	1261.25
933.539	1341.25
933.771	1320.25
934.003	1275.25
934.236	1350.25
934.468	1353.25
934.7	1274.25
934.932	1311.25
935.164	1263.25
935.395	1248.25
935.627	1263.25
935.859	1291.25
936.091	1213.25
936.323	1277.25
936.554	1297.25
936.786	1256.25
937.017	1186.25
937.249	1259.25
937.481	1191.25
937.712	1275.25
937.943	1239.25
938.175	1223.25
938.406	1203.25
938.637	1304.25
938.869	1190.25
939.1	1264.25
939.331	1182.25
939.562	1241.25
939.793	1235.25
940.024	1254.25
940.255	1279.25
940.486	1224.25
940.717	1217.25
940.948	1223.25
941.179	1186.25
941.409	1216.25
941.64	1191.25
941.871	1188.25
942.102	1179.25
942.332	1201.25
942.563	1243.25
942.793	1212.25
943.024	1161.25
943.254	1188.25
943.484	1233.25
943.715	1237.25
943.945	1206.25
944.175	1120.25
944.405	1135.25
944.636	1140.25
944.866	1193.25
945.096	1189.25
945.326	1136.25
945.556	1187.25
945.786	1242.25
946.016	1184.25
946.245	1139.25
946.475	1141.25
946.705	1135.25
946.935	1156.25
947.164	1161.25
947.394	1132.25
947.624	1123.25
947.853	1201.25
948.083	1162.25
948.312	1122.25
948.542	1084.25
948.771	1062.25
949	1072.25
949.23	1132.25
949.459	1122.25
949.688	1171.25
949.917	1117.25
950.146	1138.25
950.375	1187.25
950.604	1098.25
950.833	1171.25
951.062	1183.25
951.291	1117.25
951.52	1113.25
951.749	1130.25
951.978	1067.25
952.206	1101.25
952.435	1088.25
952.664	1126.25
952.892	1151.25
953.121	1125.25
953.349	1159.25
953.578	1144.25
953.806	1085.25
954.035	1086.25
954.263	1139.25
954.491	1068.25
954.719	1114.25
954.948	1075.25
955.176	1073.25
955.404	1011.25
955.632	1078.25
955.86	1101.25
956.088	1080.25
956.316	1084.25
956.544	1132.25
956.772	1073.25
956.999	1049.25
957.227	1130.25
957.455	1043.25
957.683	1098.25
957.91	1037.25
958.138	1042.25
958.365	1051.25
958.593	1064.25
958.82	982.25
959.048	1065.25
959.275	1048.25
959.502	1031.25
959.73	1008.25
959.957	1050.25
960.184	1124.25
960.411	1065.25
960.638	1118.25
960.865	1058.25
961.092	1079.25
961.319	963.25
961.546	1073.25
961.773	1071.25
962	1021.25
962.227	1057.25
962.454	1064.25
962.68	1037.25
962.907	1041.25
963.134	1011.25
963.36	1042.25
963.587	1063.25
963.813	1012.25
964.04	1070.25
964.266	984.25
964.493	1081.25
964.719	1058.25
964.945	1036.25
965.171	997.25
965.398	1030.25
965.624	1050.25
965.85	985.25
966.076	1000.25
966.302	1027.25
966.528	1005.25
966.754	1028.25
966.98	999.25
967.206	1025.25
967.431	966.25
967.657	1046.25
967.883	1017.25
968.109	1023.25
968.334	954.25
968.56	946.25
968.785	984.25
969.011	942.25
969.236	1015.25
969.462	933.25
969.687	979.25
969.912	1010.25
970.138	1033.25
970.363	953.25
970.588	982.25
970.813	979.25
971.038	950.25
971.263	987.25
971.488	1005.25
971.713	1026.25
971.938	1006.25
972.163	892.25
972.388	953.25
972.613	936.25
972.838	950.25
973.062	931.25
973.287	952.25
973.512	905.25
973.736	931.25
973.961	947.25
974.185	939.25
974.41	947.25
974.634	880.25
974.858	900.25
975.083	950.25
975.307	969.25
975.531	903.25
975.755	865.25
975.98	895.25
976.204	834.25
976.428	834.25
976.652	858.25
976.876	825.25
977.1	896.25
977.324	843.25
977.547	909.25
977.771	913.25
977.995	847.25
978.219	829.25
978.442	949.25
978.666	891.25
978.89	865.25
979.113	902.25
979.337	863.25
979.56	849.25
979.783	951.25
980.007	839.25
980.23	873.25
980.453	838.25
980.677	887.25
980.9	870.25
981.123	797.25
981.346	891.25
981.569	882.25
981.792	899.25
982.015	845.25
982.238	842.25
982.461	872.25
982.684	807.25
982.907	811.25
983.129	821.25
983.352	867.25
983.575	845.25
983.797	859.25
984.02	810.25
984.242	841.25
984.465	827.25
984.687	869.25
984.91	891.25
985.132	850.25
985.354	894.25
985.577	862.25
985.799	855.25
986.021	771.25
986.243	804.25
986.465	837.25
986.687	874.25
986.909	917.25
987.131	862.25
987.353	817.25
987.575	852.25
987.797	830.25
988.019	778.25
988.241	841.25
988.462	794.25
988.684	873.25
988.906	884.25
989.127	921.25
989.349	777.25
989.57	840.25
989.792	865.25
990.013	894.25
990.234	885.25
990.456	905.25
990.677	883.25
990.898	821.25
991.119	844.25
991.341	881.25
991.562	832.25
991.783	874.25
992.004	787.25
992.225	799.25
992.446	857.25
992.667	772.25
992.887	858.25
993.108	770.25
993.329	886.25
993.55	833.25
993.77	797.25
993.991	785.25
994.212	855.25
994.432	843.25
994.653	856.25
994.873	854.25
995.093	737.25
995.314	786.25
995.534	868.25
995.754	881.25
995.975	901.25
996.195	782.25
996.415	859.25
996.635	835.25
996.855	838.25
997.075	807.25
997.295	816.25
997.515	797.25
997.735	860.25
997.955	829.25
998.174	801.25
998.394	768.25
998.614	831.25
998.834	811.25
999.053	868.25
999.273	862.25
999.492	909.25
999.712	845.25
999.931	807.25
1000.151	847.25
1000.37	844.25
1000.589	896.25
1000.809	832.25
1001.028	933.25
1001.247	873.25
1001.466	798.25
1001.685	936.25
1001.904	887.25
1002.123	863.25
1002.342	880.25
1002.561	830.25
1002.78	870.25
1002.999	926.25
1003.218	883.25
1003.436	869.25
1003.655	919.25
1003.874	861.25
1004.092	877.25
1004.311	921.25
1004.53	898.25
1004.748	966.25
1004.966	894.25
1005.185	950.25
1005.403	943.25
1005.622	900.25
1005.84	968.25
1006.058	876.25
1006.276	901.25
1006.494	1396.25
1006.712	915.25
1006.931	966.25
1007.149	875.25
1007.367	892.25
1007.584	919.25
1007.802	940.25
1008.02	877.25
1008.238	979.25
1008.456	978.25
1008.673	843.25
1008.891	934.25
1009.109	893.25
1009.326	930.25
1009.544	1007.25
1009.761	915.25
1009.979	952.25
1010.196	942.25
1010.413	1042.25
1010.631	1045.25
1010.848	1045.25
1011.065	1018.25
1011.282	980.25
1011.5	909.25
1011.717	1056.25
1011.934	975.25
1012.151	1026.25
1012.368	1013.25
1012.585	960.25
1012.801	1007.25
1013.018	983.25
1013.235	933.25
1013.452	937.25
1013.669	969.25
1013.885	931.25
1014.102	979.25
1014.318	956.25
1014.535	916.25
1014.751	942.25
1014.968	946.25
1015.184	983.25
1015.401	903.25
1015.617	935.25
1015.833	916.25
1016.049	910.25
1016.266	898.25
1016.482	904.25
1016.698	852.25
1016.914	909.25
1017.13	870.25
1017.346	860.25
1017.562	958.25
1017.778	879.25
1017.993	851.25
1018.209	911.25
1018.425	859.25
1018.641	832.25
1018.856	829.25
1019.072	842.25
1019.288	901.25
1019.503	841.25
1019.719	775.25
1019.934	801.25
1020.149	888.25
1020.365	812.25
1020.58	805.25
1020.795	852.25
1021.011	795.25
1021.226	784.25
1021.441	820.25
1021.656	741.25
1021.871	706.25
1022.086	703.25
1022.301	702.25
1022.516	713.25
1022.731	775.25
1022.946	689.25
1023.16	680.25
1023.375	659.25
1023.59	637.25
1023.804	635.25
1024.019	726.25
1024.234	622.25
1024.448	666.25
1024.663	592.25
1024.877	619.25
1025.092	638.25
1025.306	645.25
1025.52	594.25
1025.734	658.25
1025.949	590.25
1026.163	586.25
1026.377	533.25
1026.591	588.25
1026.805	532.25
1027.019	523.25
1027.233	494.25
1027.447	441.25
1027.661	547.25
1027.875	496.25
1028.088	505.25
1028.302	446.25
1028.516	440.25
1028.73	467.25
1028.943	457.25
1029.157	420.25
1029.37	384.25
1029.584	-2.75
1029.797	1.25
1030.011	-1.75
1030.224	-2.75
