Data from QEP037381__94__10-19-02-732.txt Node

Date: Wed Dec 21 10:19:02 EST 2022
User: dcclab
Spectrometer: QEP03738
Trigger mode: 4
Integration Time (sec): 1.000000E1
Scans to average: 1
Electric dark correction enabled: true
Nonlinearity correction enabled: false
Boxcar width: 0
XAxis mode: Wavelengths
Number of Pixels in Spectrum: 1044
>>>>>Begin Spectral Data<<<<<
784.041	11.75
784.3	0.75
784.558	-2.25
784.817	-3.25
785.075	77826.75
785.334	13387.75
785.592	6260.75
785.851	4347.75
786.109	3290.75
786.368	2582.75
786.626	2077.75
786.884	1710.75
787.143	1464.75
787.401	1177.75
787.659	1081.75
787.917	932.75
788.175	854.75
788.433	761.75
788.691	686.75
788.949	657.75
789.207	634.75
789.465	538.75
789.723	544.75
789.98	475.75
790.238	526.75
790.496	499.75
790.753	479.75
791.011	520.75
791.268	464.75
791.526	444.75
791.783	484.75
792.041	462.75
792.298	373.75
792.556	451.75
792.813	433.75
793.07	395.75
793.327	389.75
793.584	474.75
793.841	393.75
794.099	415.75
794.356	470.75
794.613	368.75
794.869	405.75
795.126	366.75
795.383	354.75
795.64	370.75
795.897	344.75
796.153	388.75
796.41	377.75
796.667	351.75
796.923	361.75
797.18	362.75
797.436	380.75
797.693	355.75
797.949	406.75
798.206	426.75
798.462	333.75
798.718	400.75
798.974	358.75
799.231	387.75
799.487	377.75
799.743	388.75
799.999	396.75
800.255	397.75
800.511	370.75
800.767	411.75
801.023	381.75
801.279	408.75
801.534	416.75
801.79	427.75
802.046	411.75
802.302	473.75
802.557	483.75
802.813	525.75
803.068	542.75
803.324	661.75
803.579	795.75
803.835	971.75
804.09	1293.75
804.345	1630.75
804.601	1966.75
804.856	2374.75
805.111	2707.75
805.366	2896.75
805.621	3103.75
805.876	3222.75
806.131	3240.75
806.386	3308.75
806.641	3320.75
806.896	3391.75
807.151	3463.75
807.406	3500.75
807.661	3523.75
807.915	3592.75
808.17	3677.75
808.425	3690.75
808.679	3656.75
808.934	3802.75
809.188	3791.75
809.443	3846.75
809.697	3916.75
809.951	3852.75
810.206	3916.75
810.46	4028.75
810.714	3992.75
810.968	4048.75
811.223	4032.75
811.477	4048.75
811.731	4137.75
811.985	4083.75
812.239	4073.75
812.493	4155.75
812.747	4152.75
813	4131.75
813.254	4185.75
813.508	4267.75
813.762	4213.75
814.015	4296.75
814.269	4278.75
814.522	4365.75
814.776	4385.75
815.03	4431.75
815.283	4505.75
815.536	4557.75
815.79	4639.75
816.043	4683.75
816.296	4712.75
816.55	4793.75
816.803	4791.75
817.056	4989.75
817.309	4957.75
817.562	4993.75
817.815	5069.75
818.068	5089.75
818.321	5107.75
818.574	5102.75
818.827	5278.75
819.079	5331.75
819.332	5404.75
819.585	5486.75
819.838	5617.75
820.09	5533.75
820.343	5640.75
820.595	5655.75
820.848	5706.75
821.1	5741.75
821.353	5704.75
821.605	5698.75
821.857	5750.75
822.11	5659.75
822.362	5648.75
822.614	5652.75
822.866	5650.75
823.118	5627.75
823.37	5792.75
823.622	5743.75
823.874	5752.75
824.126	5799.75
824.378	5765.75
824.63	5845.75
824.882	5828.75
825.134	5827.75
825.385	5797.75
825.637	5823.75
825.888	5741.75
826.14	5748.75
826.392	5670.75
826.643	5612.75
826.895	5712.75
827.146	5589.75
827.397	5603.75
827.649	5670.75
827.9	5595.75
828.151	5592.75
828.402	5599.75
828.653	5652.75
828.905	5625.75
829.156	5725.75
829.407	5628.75
829.658	5661.75
829.909	5684.75
830.159	5700.75
830.41	5729.75
830.661	5673.75
830.912	5617.75
831.162	5553.75
831.413	5571.75
831.664	5598.75
831.914	5603.75
832.165	5646.75
832.415	5623.75
832.666	5616.75
832.916	5630.75
833.167	5547.75
833.417	5633.75
833.667	5573.75
833.917	5578.75
834.168	5623.75
834.418	5609.75
834.668	5570.75
834.918	5532.75
835.168	5561.75
835.418	5451.75
835.668	5505.75
835.918	5544.75
836.167	5561.75
836.417	5495.75
836.667	5516.75
836.917	5511.75
837.166	5408.75
837.416	5449.75
837.666	5446.75
837.915	5429.75
838.165	5388.75
838.414	5316.75
838.663	5287.75
838.913	5365.75
839.162	5254.75
839.411	5387.75
839.661	5319.75
839.91	5313.75
840.159	5324.75
840.408	5342.75
840.657	5359.75
840.906	5399.75
841.155	5345.75
841.404	5343.75
841.653	5386.75
841.902	5336.75
842.15	5340.75
842.399	5368.75
842.648	5356.75
842.897	5328.75
843.145	5275.75
843.394	5265.75
843.642	5222.75
843.891	5248.75
844.139	5251.75
844.388	5155.75
844.636	5112.75
844.884	5187.75
845.133	5148.75
845.381	5101.75
845.629	5162.75
845.877	5173.75
846.125	5089.75
846.373	5142.75
846.621	5120.75
846.869	5120.75
847.117	5071.75
847.365	5068.75
847.613	5047.75
847.861	5065.75
848.108	5088.75
848.356	5013.75
848.604	5048.75
848.851	5014.75
849.099	4999.75
849.346	5050.75
849.594	5106.75
849.841	5156.75
850.089	5071.75
850.336	5064.75
850.583	5098.75
850.831	5173.75
851.078	5171.75
851.325	5215.75
851.572	5309.75
851.819	5205.75
852.066	5023.75
852.313	4900.75
852.56	4812.75
852.807	4812.75
853.054	4772.75
853.301	4790.75
853.548	4826.75
853.794	4941.75
854.041	4936.75
854.288	4879.75
854.534	5005.75
854.781	4969.75
855.028	4901.75
855.274	4983.75
855.52	4841.75
855.767	4868.75
856.013	4877.75
856.26	5120.75
856.506	4817.75
856.752	4805.75
856.998	4776.75
857.244	4803.75
857.49	4854.75
857.736	4874.75
857.982	4848.75
858.228	4866.75
858.474	4790.75
858.72	4754.75
858.966	4756.75
859.212	4701.75
859.458	4683.75
859.703	4618.75
859.949	4503.75
860.195	4552.75
860.44	4531.75
860.686	4422.75
860.931	4552.75
861.177	4444.75
861.422	4470.75
861.667	4449.75
861.913	4453.75
862.158	4441.75
862.403	4471.75
862.648	4494.75
862.893	4579.75
863.138	4483.75
863.384	4463.75
863.629	4497.75
863.873	4487.75
864.118	4480.75
864.363	4368.75
864.608	4506.75
864.853	4464.75
865.098	4445.75
865.342	4452.75
865.587	4311.75
865.832	4422.75
866.076	4366.75
866.321	4314.75
866.565	4367.75
866.81	4289.75
867.054	4333.75
867.298	4246.75
867.543	4297.75
867.787	4334.75
868.031	4265.75
868.275	4284.75
868.519	4289.75
868.764	4285.75
869.008	4281.75
869.252	4324.75
869.496	4225.75
869.739	4237.75
869.983	4242.75
870.227	4249.75
870.471	4240.75
870.715	4310.75
870.958	4297.75
871.202	4293.75
871.446	4310.75
871.689	4286.75
871.933	4262.75
872.176	4288.75
872.42	4269.75
872.663	4282.75
872.906	4308.75
873.15	4207.75
873.393	4203.75
873.636	4221.75
873.879	4190.75
874.122	4198.75
874.366	4104.75
874.609	4136.75
874.852	4037.75
875.095	4033.75
875.337	4028.75
875.58	3915.75
875.823	3979.75
876.066	4026.75
876.309	4057.75
876.551	3958.75
876.794	3881.75
877.037	3980.75
877.279	3904.75
877.522	3872.75
877.764	3972.75
878.007	3870.75
878.249	3914.75
878.491	3849.75
878.734	3904.75
878.976	3900.75
879.218	3820.75
879.46	3874.75
879.702	3835.75
879.945	3743.75
880.187	3743.75
880.429	3797.75
880.671	3732.75
880.912	3754.75
881.154	3720.75
881.396	3626.75
881.638	3683.75
881.88	3707.75
882.121	3661.75
882.363	3704.75
882.605	3717.75
882.846	3717.75
883.088	3678.75
883.329	3655.75
883.571	3627.75
883.812	3734.75
884.053	3727.75
884.295	3843.75
884.536	3992.75
884.777	3909.75
885.018	3896.75
885.259	3935.75
885.5	3812.75
885.742	4083.75
885.982	3826.75
886.223	3727.75
886.464	3708.75
886.705	3659.75
886.946	3646.75
887.187	3547.75
887.428	3575.75
887.668	3438.75
887.909	3437.75
888.15	3422.75
888.39	3447.75
888.631	3432.75
888.871	3449.75
889.111	3395.75
889.352	3370.75
889.592	3302.75
889.833	3296.75
890.073	3283.75
890.313	3340.75
890.553	3208.75
890.793	3251.75
891.033	3215.75
891.273	3193.75
891.513	3207.75
891.753	3254.75
891.993	3191.75
892.233	3201.75
892.473	3266.75
892.713	3242.75
892.952	3189.75
893.192	3199.75
893.432	3198.75
893.671	3267.75
893.911	3202.75
894.15	3169.75
894.39	3155.75
894.629	3116.75
894.869	3130.75
895.108	3102.75
895.347	3080.75
895.587	3095.75
895.826	3061.75
896.065	3039.75
896.304	3079.75
896.543	3112.75
896.782	2998.75
897.021	3089.75
897.26	3046.75
897.499	3135.75
897.738	3108.75
897.977	3013.75
898.216	3014.75
898.454	2964.75
898.693	2963.75
898.932	2988.75
899.17	2910.75
899.409	2910.75
899.647	2951.75
899.886	2898.75
900.124	2941.75
900.363	2910.75
900.601	2920.75
900.839	2950.75
901.078	2924.75
901.316	2975.75
901.554	2989.75
901.792	3007.75
902.03	2994.75
902.268	3011.75
902.506	3002.75
902.744	2960.75
902.982	2954.75
903.22	2886.75
903.458	2841.75
903.695	2899.75
903.933	2829.75
904.171	2721.75
904.409	2721.75
904.646	2691.75
904.884	2641.75
905.121	2688.75
905.359	2604.75
905.596	2588.75
905.833	2527.75
906.071	2558.75
906.308	2598.75
906.545	2570.75
906.783	2521.75
907.02	2539.75
907.257	2504.75
907.494	2510.75
907.731	2521.75
907.968	2511.75
908.205	2497.75
908.442	2428.75
908.679	2508.75
908.915	2484.75
909.152	2463.75
909.389	2363.75
909.626	2408.75
909.862	2394.75
910.099	2402.75
910.335	2396.75
910.572	2340.75
910.808	2364.75
911.045	2353.75
911.281	2328.75
911.518	2397.75
911.754	2304.75
911.99	2324.75
912.226	2302.75
912.463	2266.75
912.699	2275.75
912.935	2262.75
913.171	2268.75
913.407	2201.75
913.643	2273.75
913.879	2227.75
914.114	2212.75
914.35	2184.75
914.586	2138.75
914.822	2118.75
915.057	2212.75
915.293	2074.75
915.529	2111.75
915.764	2139.75
916	2111.75
916.235	2122.75
916.471	2147.75
916.706	2044.75
916.941	2070.75
917.177	2086.75
917.412	2137.75
917.647	2104.75
917.882	2071.75
918.117	2118.75
918.352	2082.75
918.588	2139.75
918.823	2039.75
919.057	2053.75
919.292	1934.75
919.527	2061.75
919.762	1993.75
919.997	2037.75
920.232	1953.75
920.466	2006.75
920.701	1907.75
920.935	1925.75
921.17	1912.75
921.405	1852.75
921.639	1921.75
921.873	1892.75
922.108	1901.75
922.342	1932.75
922.576	1849.75
922.811	1850.75
923.045	1914.75
923.279	1955.75
923.513	1810.75
923.747	1877.75
923.981	1877.75
924.215	1825.75
924.449	1830.75
924.683	1788.75
924.917	1785.75
925.151	1800.75
925.385	1854.75
925.618	1820.75
925.852	1798.75
926.086	1756.75
926.319	1806.75
926.553	1764.75
926.786	1801.75
927.02	1785.75
927.253	1823.75
927.486	1801.75
927.72	1730.75
927.953	1807.75
928.186	1741.75
928.42	1806.75
928.653	1730.75
928.886	1743.75
929.119	1769.75
929.352	1755.75
929.585	1739.75
929.818	1709.75
930.051	1722.75
930.284	1707.75
930.516	1680.75
930.749	1693.75
930.982	1713.75
931.215	1676.75
931.447	1609.75
931.68	1654.75
931.912	1625.75
932.145	1619.75
932.377	1656.75
932.61	1802.75
932.842	1598.75
933.074	1650.75
933.307	1612.75
933.539	1715.75
933.771	1696.75
934.003	1639.75
934.236	1732.75
934.468	1723.75
934.7	1656.75
934.932	1699.75
935.164	1601.75
935.395	1611.75
935.627	1643.75
935.859	1630.75
936.091	1569.75
936.323	1656.75
936.554	1664.75
936.786	1605.75
937.017	1573.75
937.249	1608.75
937.481	1551.75
937.712	1603.75
937.943	1601.75
938.175	1572.75
938.406	1583.75
938.637	1676.75
938.869	1550.75
939.1	1608.75
939.331	1566.75
939.562	1603.75
939.793	1596.75
940.024	1622.75
940.255	1617.75
940.486	1584.75
940.717	1570.75
940.948	1577.75
941.179	1515.75
941.409	1529.75
941.64	1554.75
941.871	1554.75
942.102	1515.75
942.332	1532.75
942.563	1553.75
942.793	1536.75
943.024	1503.75
943.254	1524.75
943.484	1583.75
943.715	1547.75
943.945	1566.75
944.175	1497.75
944.405	1493.75
944.636	1476.75
944.866	1504.75
945.096	1529.75
945.326	1483.75
945.556	1545.75
945.786	1535.75
946.016	1538.75
946.245	1445.75
946.475	1490.75
946.705	1476.75
946.935	1462.75
947.164	1489.75
947.394	1446.75
947.624	1457.75
947.853	1510.75
948.083	1468.75
948.312	1459.75
948.542	1411.75
948.771	1391.75
949	1397.75
949.23	1440.75
949.459	1420.75
949.688	1525.75
949.917	1422.75
950.146	1453.75
950.375	1519.75
950.604	1407.75
950.833	1509.75
951.062	1509.75
951.291	1425.75
951.52	1393.75
951.749	1414.75
951.978	1391.75
952.206	1418.75
952.435	1407.75
952.664	1429.75
952.892	1449.75
953.121	1425.75
953.349	1468.75
953.578	1420.75
953.806	1415.75
954.035	1366.75
954.263	1418.75
954.491	1367.75
954.719	1409.75
954.948	1366.75
955.176	1377.75
955.404	1303.75
955.632	1352.75
955.86	1369.75
956.088	1373.75
956.316	1391.75
956.544	1429.75
956.772	1362.75
956.999	1330.75
957.227	1410.75
957.455	1342.75
957.683	1354.75
957.91	1315.75
958.138	1296.75
958.365	1310.75
958.593	1324.75
958.82	1279.75
959.048	1315.75
959.275	1293.75
959.502	1307.75
959.73	1273.75
959.957	1360.75
960.184	1393.75
960.411	1320.75
960.638	1383.75
960.865	1292.75
961.092	1359.75
961.319	1217.75
961.546	1324.75
961.773	1346.75
962	1285.75
962.227	1334.75
962.454	1318.75
962.68	1299.75
962.907	1300.75
963.134	1261.75
963.36	1285.75
963.587	1351.75
963.813	1268.75
964.04	1289.75
964.266	1255.75
964.493	1346.75
964.719	1292.75
964.945	1298.75
965.171	1188.75
965.398	1292.75
965.624	1301.75
965.85	1236.75
966.076	1215.75
966.302	1283.75
966.528	1241.75
966.754	1260.75
966.98	1250.75
967.206	1255.75
967.431	1192.75
967.657	1275.75
967.883	1257.75
968.109	1241.75
968.334	1188.75
968.56	1196.75
968.785	1216.75
969.011	1166.75
969.236	1260.75
969.462	1185.75
969.687	1202.75
969.912	1224.75
970.138	1255.75
970.363	1164.75
970.588	1207.75
970.813	1176.75
971.038	1154.75
971.263	1226.75
971.488	1236.75
971.713	1250.75
971.938	1221.75
972.163	1135.75
972.388	1176.75
972.613	1147.75
972.838	1175.75
973.062	1145.75
973.287	1167.75
973.512	1094.75
973.736	1139.75
973.961	1146.75
974.185	1119.75
974.41	1171.75
974.634	1105.75
974.858	1094.75
975.083	1116.75
975.307	1170.75
975.531	1124.75
975.755	1061.75
975.98	1076.75
976.204	1031.75
976.428	1050.75
976.652	1056.75
976.876	1035.75
977.1	1078.75
977.324	1009.75
977.547	1103.75
977.771	1081.75
977.995	1061.75
978.219	1030.75
978.442	1120.75
978.666	1066.75
978.89	1057.75
979.113	1067.75
979.337	1058.75
979.56	1019.75
979.783	1118.75
980.007	1022.75
980.23	1043.75
980.453	1018.75
980.677	1078.75
980.9	1058.75
981.123	966.75
981.346	1068.75
981.569	1061.75
981.792	1070.75
982.015	1049.75
982.238	994.75
982.461	1028.75
982.684	985.75
982.907	997.75
983.129	985.75
983.352	1042.75
983.575	1015.75
983.797	1025.75
984.02	996.75
984.242	988.75
984.465	994.75
984.687	1013.75
984.91	1062.75
985.132	1040.75
985.354	1050.75
985.577	1023.75
985.799	1018.75
986.021	919.75
986.243	986.75
986.465	987.75
986.687	1051.75
986.909	1075.75
987.131	1007.75
987.353	951.75
987.575	1036.75
987.797	992.75
988.019	940.75
988.241	984.75
988.462	957.75
988.684	1006.75
988.906	1028.75
989.127	1049.75
989.349	951.75
989.57	971.75
989.792	1041.75
990.013	1024.75
990.234	1050.75
990.456	1082.75
990.677	1024.75
990.898	996.75
991.119	991.75
991.341	1021.75
991.562	958.75
991.783	1003.75
992.004	959.75
992.225	931.75
992.446	989.75
992.667	915.75
992.887	1002.75
993.108	910.75
993.329	1034.75
993.55	979.75
993.77	907.75
993.991	934.75
994.212	977.75
994.432	971.75
994.653	969.75
994.873	981.75
995.093	859.75
995.314	906.75
995.534	976.75
995.754	997.75
995.975	999.75
996.195	892.75
996.415	968.75
996.635	940.75
996.855	961.75
997.075	944.75
997.295	925.75
997.515	928.75
997.735	972.75
997.955	939.75
998.174	957.75
998.394	930.75
998.614	967.75
998.834	909.75
999.053	998.75
999.273	950.75
999.492	1004.75
999.712	942.75
999.931	919.75
1000.151	981.75
1000.37	941.75
1000.589	1005.75
1000.809	949.75
1001.028	1064.75
1001.247	987.75
1001.466	903.75
1001.685	1056.75
1001.904	995.75
1002.123	975.75
1002.342	992.75
1002.561	943.75
1002.78	973.75
1002.999	1028.75
1003.218	983.75
1003.436	959.75
1003.655	1030.75
1003.874	969.75
1004.092	972.75
1004.311	1022.75
1004.53	993.75
1004.748	1073.75
1004.966	981.75
1005.185	1038.75
1005.403	1031.75
1005.622	1013.75
1005.84	1067.75
1006.058	986.75
1006.276	1024.75
1006.494	1487.75
1006.712	1008.75
1006.931	1082.75
1007.149	983.75
1007.367	983.75
1007.584	1024.75
1007.802	1060.75
1008.02	983.75
1008.238	1098.75
1008.456	1076.75
1008.673	953.75
1008.891	1052.75
1009.109	1008.75
1009.326	1035.75
1009.544	1115.75
1009.761	1010.75
1009.979	1074.75
1010.196	1065.75
1010.413	1132.75
1010.631	1144.75
1010.848	1193.75
1011.065	1182.75
1011.282	1124.75
1011.5	1067.75
1011.717	1207.75
1011.934	1140.75
1012.151	1174.75
1012.368	1158.75
1012.585	1112.75
1012.801	1143.75
1013.018	1104.75
1013.235	1081.75
1013.452	1093.75
1013.669	1077.75
1013.885	1094.75
1014.102	1120.75
1014.318	1099.75
1014.535	1055.75
1014.751	1082.75
1014.968	1080.75
1015.184	1141.75
1015.401	1032.75
1015.617	1097.75
1015.833	1024.75
1016.049	1044.75
1016.266	1043.75
1016.482	1042.75
1016.698	969.75
1016.914	1043.75
1017.13	990.75
1017.346	991.75
1017.562	1058.75
1017.778	989.75
1017.993	963.75
1018.209	1044.75
1018.425	1035.75
1018.641	967.75
1018.856	952.75
1019.072	976.75
1019.288	1018.75
1019.503	982.75
1019.719	900.75
1019.934	918.75
1020.149	1002.75
1020.365	952.75
1020.58	896.75
1020.795	982.75
1021.011	898.75
1021.226	881.75
1021.441	919.75
1021.656	846.75
1021.871	809.75
1022.086	825.75
1022.301	827.75
1022.516	804.75
1022.731	897.75
1022.946	775.75
1023.16	765.75
1023.375	751.75
1023.59	735.75
1023.804	715.75
1024.019	828.75
1024.234	695.75
1024.448	720.75
1024.663	662.75
1024.877	678.75
1025.092	713.75
1025.306	727.75
1025.52	626.75
1025.734	714.75
1025.949	663.75
1026.163	630.75
1026.377	607.75
1026.591	661.75
1026.805	572.75
1027.019	560.75
1027.233	543.75
1027.447	496.75
1027.661	592.75
1027.875	538.75
1028.088	584.75
1028.302	484.75
1028.516	499.75
1028.73	520.75
1028.943	500.75
1029.157	464.75
1029.37	431.75
1029.584	-2.25
1029.797	-0.25
1030.011	-2.25
1030.224	-2.25
