Data from QEP037381__144__10-27-22-734.txt Node

Date: Wed Dec 21 10:27:22 EST 2022
User: dcclab
Spectrometer: QEP03738
Trigger mode: 4
Integration Time (sec): 1.000000E1
Scans to average: 1
Electric dark correction enabled: true
Nonlinearity correction enabled: false
Boxcar width: 0
XAxis mode: Wavelengths
Number of Pixels in Spectrum: 1044
>>>>>Begin Spectral Data<<<<<
784.041	11.75
784.3	0.75
784.558	-5.25
784.817	-5.25
785.075	74509.75
785.334	13181.75
785.592	6287.75
785.851	4303.75
786.109	3280.75
786.368	2560.75
786.626	2095.75
786.884	1741.75
787.143	1469.75
787.401	1208.75
787.659	1115.75
787.917	953.75
788.175	881.75
788.433	764.75
788.691	683.75
788.949	656.75
789.207	628.75
789.465	544.75
789.723	538.75
789.98	488.75
790.238	541.75
790.496	502.75
790.753	485.75
791.011	543.75
791.268	466.75
791.526	449.75
791.783	481.75
792.041	449.75
792.298	368.75
792.556	450.75
792.813	421.75
793.07	392.75
793.327	398.75
793.584	471.75
793.841	399.75
794.099	421.75
794.356	468.75
794.613	359.75
794.869	404.75
795.126	377.75
795.383	355.75
795.64	380.75
795.897	331.75
796.153	398.75
796.41	373.75
796.667	342.75
796.923	368.75
797.18	363.75
797.436	391.75
797.693	354.75
797.949	390.75
798.206	428.75
798.462	332.75
798.718	396.75
798.974	362.75
799.231	407.75
799.487	375.75
799.743	398.75
799.999	408.75
800.255	385.75
800.511	377.75
800.767	404.75
801.023	388.75
801.279	397.75
801.534	417.75
801.79	435.75
802.046	409.75
802.302	479.75
802.557	480.75
802.813	524.75
803.068	531.75
803.324	676.75
803.579	790.75
803.835	980.75
804.09	1296.75
804.345	1627.75
804.601	1940.75
804.856	2366.75
805.111	2743.75
805.366	2939.75
805.621	3110.75
805.876	3199.75
806.131	3252.75
806.386	3302.75
806.641	3327.75
806.896	3392.75
807.151	3499.75
807.406	3473.75
807.661	3573.75
807.915	3594.75
808.17	3756.75
808.425	3695.75
808.679	3709.75
808.934	3835.75
809.188	3765.75
809.443	3880.75
809.697	3945.75
809.951	3890.75
810.206	3940.75
810.46	4023.75
810.714	4049.75
810.968	4122.75
811.223	4084.75
811.477	4117.75
811.731	4141.75
811.985	4137.75
812.239	4100.75
812.493	4165.75
812.747	4161.75
813	4168.75
813.254	4223.75
813.508	4253.75
813.762	4257.75
814.015	4286.75
814.269	4296.75
814.522	4388.75
814.776	4384.75
815.03	4476.75
815.283	4492.75
815.536	4631.75
815.79	4659.75
816.043	4760.75
816.296	4711.75
816.55	4843.75
816.803	4859.75
817.056	5030.75
817.309	4982.75
817.562	5000.75
817.815	5132.75
818.068	5034.75
818.321	5167.75
818.574	5168.75
818.827	5315.75
819.079	5298.75
819.332	5533.75
819.585	5539.75
819.838	5684.75
820.09	5630.75
820.343	5710.75
820.595	5651.75
820.848	5752.75
821.1	5748.75
821.353	5737.75
821.605	5745.75
821.857	5817.75
822.11	5699.75
822.362	5712.75
822.614	5681.75
822.866	5751.75
823.118	5755.75
823.37	5868.75
823.622	5759.75
823.874	5797.75
824.126	5888.75
824.378	5858.75
824.63	5961.75
824.882	5933.75
825.134	5924.75
825.385	5955.75
825.637	5860.75
825.888	5843.75
826.14	5793.75
826.392	5770.75
826.643	5682.75
826.895	5770.75
827.146	5698.75
827.397	5687.75
827.649	5742.75
827.9	5672.75
828.151	5705.75
828.402	5670.75
828.653	5688.75
828.905	5726.75
829.156	5816.75
829.407	5710.75
829.658	5713.75
829.909	5762.75
830.159	5838.75
830.41	5745.75
830.661	5780.75
830.912	5676.75
831.162	5707.75
831.413	5608.75
831.664	5715.75
831.914	5687.75
832.165	5691.75
832.415	5688.75
832.666	5690.75
832.916	5667.75
833.167	5651.75
833.417	5756.75
833.667	5673.75
833.917	5688.75
834.168	5714.75
834.418	5693.75
834.668	5623.75
834.918	5611.75
835.168	5646.75
835.418	5589.75
835.668	5681.75
835.918	5633.75
836.167	5592.75
836.417	5510.75
836.667	5593.75
836.917	5635.75
837.166	5560.75
837.416	5559.75
837.666	5546.75
837.915	5483.75
838.165	5474.75
838.414	5419.75
838.663	5395.75
838.913	5430.75
839.162	5427.75
839.411	5524.75
839.661	5405.75
839.91	5451.75
840.159	5460.75
840.408	5447.75
840.657	5457.75
840.906	5415.75
841.155	5479.75
841.404	5456.75
841.653	5457.75
841.902	5415.75
842.15	5521.75
842.399	5479.75
842.648	5413.75
842.897	5454.75
843.145	5396.75
843.394	5353.75
843.642	5337.75
843.891	5354.75
844.139	5362.75
844.388	5252.75
844.636	5225.75
844.884	5225.75
845.133	5224.75
845.381	5253.75
845.629	5267.75
845.877	5217.75
846.125	5233.75
846.373	5272.75
846.621	5224.75
846.869	5266.75
847.117	5189.75
847.365	5177.75
847.613	5175.75
847.861	5176.75
848.108	5196.75
848.356	5145.75
848.604	5156.75
848.851	5145.75
849.099	5195.75
849.346	5193.75
849.594	5194.75
849.841	5221.75
850.089	5225.75
850.336	5220.75
850.583	5228.75
850.831	5229.75
851.078	5245.75
851.325	5287.75
851.572	5404.75
851.819	5295.75
852.066	5127.75
852.313	5031.75
852.56	4961.75
852.807	4879.75
853.054	4900.75
853.301	4956.75
853.548	4935.75
853.794	5045.75
854.041	5044.75
854.288	5031.75
854.534	5186.75
854.781	5018.75
855.028	5043.75
855.274	5072.75
855.52	5026.75
855.767	4970.75
856.013	5058.75
856.26	5369.75
856.506	4922.75
856.752	4959.75
856.998	4888.75
857.244	4893.75
857.49	4978.75
857.736	4957.75
857.982	4982.75
858.228	5002.75
858.474	4903.75
858.72	4914.75
858.966	4909.75
859.212	4845.75
859.458	4772.75
859.703	4713.75
859.949	4685.75
860.195	4725.75
860.44	4664.75
860.686	4589.75
860.931	4682.75
861.177	4557.75
861.422	4588.75
861.667	4516.75
861.913	4526.75
862.158	4550.75
862.403	4630.75
862.648	4598.75
862.893	4646.75
863.138	4640.75
863.384	4584.75
863.629	4629.75
863.873	4579.75
864.118	4561.75
864.363	4551.75
864.608	4564.75
864.853	4636.75
865.098	4529.75
865.342	4499.75
865.587	4482.75
865.832	4539.75
866.076	4472.75
866.321	4442.75
866.565	4423.75
866.81	4401.75
867.054	4423.75
867.298	4483.75
867.543	4390.75
867.787	4448.75
868.031	4378.75
868.275	4432.75
868.519	4405.75
868.764	4403.75
869.008	4406.75
869.252	4441.75
869.496	4369.75
869.739	4355.75
869.983	4400.75
870.227	4412.75
870.471	4388.75
870.715	4440.75
870.958	4412.75
871.202	4384.75
871.446	4432.75
871.689	4380.75
871.933	4448.75
872.176	4431.75
872.42	4376.75
872.663	4381.75
872.906	4440.75
873.15	4365.75
873.393	4304.75
873.636	4389.75
873.879	4357.75
874.122	4337.75
874.366	4204.75
874.609	4219.75
874.852	4230.75
875.095	4200.75
875.337	4144.75
875.58	4090.75
875.823	4122.75
876.066	4109.75
876.309	4150.75
876.551	4105.75
876.794	3993.75
877.037	4085.75
877.279	3968.75
877.522	3997.75
877.764	4015.75
878.007	3961.75
878.249	4098.75
878.491	4010.75
878.734	4042.75
878.976	4003.75
879.218	3955.75
879.46	3997.75
879.702	3960.75
879.945	3899.75
880.187	3828.75
880.429	3873.75
880.671	3867.75
880.912	3845.75
881.154	3779.75
881.396	3717.75
881.638	3785.75
881.88	3823.75
882.121	3742.75
882.363	3764.75
882.605	3824.75
882.846	3852.75
883.088	3800.75
883.329	3727.75
883.571	3780.75
883.812	3838.75
884.053	3918.75
884.295	4007.75
884.536	4125.75
884.777	4055.75
885.018	4063.75
885.259	4026.75
885.5	3914.75
885.742	4227.75
885.982	3954.75
886.223	3893.75
886.464	3860.75
886.705	3831.75
886.946	3832.75
887.187	3655.75
887.428	3725.75
887.668	3600.75
887.909	3552.75
888.15	3524.75
888.39	3578.75
888.631	3576.75
888.871	3489.75
889.111	3483.75
889.352	3412.75
889.592	3393.75
889.833	3403.75
890.073	3368.75
890.313	3441.75
890.553	3299.75
890.793	3360.75
891.033	3279.75
891.273	3304.75
891.513	3254.75
891.753	3349.75
891.993	3271.75
892.233	3277.75
892.473	3333.75
892.713	3314.75
892.952	3280.75
893.192	3303.75
893.432	3327.75
893.671	3371.75
893.911	3327.75
894.15	3256.75
894.39	3208.75
894.629	3205.75
894.869	3241.75
895.108	3217.75
895.347	3134.75
895.587	3187.75
895.826	3147.75
896.065	3094.75
896.304	3179.75
896.543	3183.75
896.782	3110.75
897.021	3191.75
897.26	3137.75
897.499	3211.75
897.738	3179.75
897.977	3183.75
898.216	3076.75
898.454	3065.75
898.693	3010.75
898.932	3082.75
899.17	3065.75
899.409	2987.75
899.647	3036.75
899.886	3008.75
900.124	3039.75
900.363	3014.75
900.601	3071.75
900.839	3040.75
901.078	3058.75
901.316	3089.75
901.554	3053.75
901.792	3098.75
902.03	3091.75
902.268	3050.75
902.506	3097.75
902.744	3089.75
902.982	3063.75
903.22	2975.75
903.458	2970.75
903.695	2988.75
903.933	2913.75
904.171	2825.75
904.409	2813.75
904.646	2783.75
904.884	2700.75
905.121	2774.75
905.359	2730.75
905.596	2712.75
905.833	2660.75
906.071	2641.75
906.308	2723.75
906.545	2664.75
906.783	2606.75
907.02	2620.75
907.257	2574.75
907.494	2586.75
907.731	2586.75
907.968	2652.75
908.205	2562.75
908.442	2562.75
908.679	2569.75
908.915	2517.75
909.152	2516.75
909.389	2443.75
909.626	2478.75
909.862	2446.75
910.099	2468.75
910.335	2476.75
910.572	2405.75
910.808	2474.75
911.045	2444.75
911.281	2424.75
911.518	2488.75
911.754	2409.75
911.99	2402.75
912.226	2381.75
912.463	2355.75
912.699	2351.75
912.935	2335.75
913.171	2334.75
913.407	2278.75
913.643	2284.75
913.879	2307.75
914.114	2250.75
914.35	2253.75
914.586	2234.75
914.822	2198.75
915.057	2306.75
915.293	2153.75
915.529	2170.75
915.764	2241.75
916	2187.75
916.235	2185.75
916.471	2219.75
916.706	2130.75
916.941	2096.75
917.177	2119.75
917.412	2213.75
917.647	2184.75
917.882	2139.75
918.117	2173.75
918.352	2145.75
918.588	2222.75
918.823	2136.75
919.057	2097.75
919.292	2039.75
919.527	2129.75
919.762	2066.75
919.997	2120.75
920.232	2051.75
920.466	2091.75
920.701	1963.75
920.935	2026.75
921.17	1975.75
921.405	1947.75
921.639	2004.75
921.873	1984.75
922.108	1987.75
922.342	2006.75
922.576	1935.75
922.811	1935.75
923.045	1968.75
923.279	1981.75
923.513	1858.75
923.747	1975.75
923.981	1934.75
924.215	1884.75
924.449	1894.75
924.683	1832.75
924.917	1867.75
925.151	1828.75
925.385	1941.75
925.618	1879.75
925.852	1867.75
926.086	1825.75
926.319	1860.75
926.553	1845.75
926.786	1874.75
927.02	1869.75
927.253	1913.75
927.486	1878.75
927.72	1801.75
927.953	1883.75
928.186	1835.75
928.42	1859.75
928.653	1802.75
928.886	1805.75
929.119	1836.75
929.352	1795.75
929.585	1823.75
929.818	1741.75
930.051	1792.75
930.284	1789.75
930.516	1719.75
930.749	1716.75
930.982	1778.75
931.215	1741.75
931.447	1702.75
931.68	1704.75
931.912	1705.75
932.145	1695.75
932.377	1733.75
932.61	1865.75
932.842	1667.75
933.074	1734.75
933.307	1679.75
933.539	1769.75
933.771	1763.75
934.003	1690.75
934.236	1765.75
934.468	1787.75
934.7	1751.75
934.932	1740.75
935.164	1660.75
935.395	1674.75
935.627	1699.75
935.859	1710.75
936.091	1672.75
936.323	1711.75
936.554	1699.75
936.786	1665.75
937.017	1627.75
937.249	1682.75
937.481	1593.75
937.712	1675.75
937.943	1660.75
938.175	1640.75
938.406	1635.75
938.637	1714.75
938.869	1618.75
939.1	1669.75
939.331	1629.75
939.562	1632.75
939.793	1654.75
940.024	1685.75
940.255	1648.75
940.486	1634.75
940.717	1648.75
940.948	1614.75
941.179	1578.75
941.409	1572.75
941.64	1593.75
941.871	1614.75
942.102	1585.75
942.332	1609.75
942.563	1618.75
942.793	1623.75
943.024	1544.75
943.254	1578.75
943.484	1624.75
943.715	1637.75
943.945	1627.75
944.175	1573.75
944.405	1536.75
944.636	1539.75
944.866	1589.75
945.096	1626.75
945.326	1518.75
945.556	1609.75
945.786	1610.75
946.016	1573.75
946.245	1530.75
946.475	1548.75
946.705	1521.75
946.935	1548.75
947.164	1555.75
947.394	1509.75
947.624	1535.75
947.853	1565.75
948.083	1519.75
948.312	1533.75
948.542	1457.75
948.771	1438.75
949	1471.75
949.23	1475.75
949.459	1470.75
949.688	1542.75
949.917	1515.75
950.146	1498.75
950.375	1553.75
950.604	1479.75
950.833	1564.75
951.062	1547.75
951.291	1493.75
951.52	1478.75
951.749	1474.75
951.978	1446.75
952.206	1451.75
952.435	1482.75
952.664	1474.75
952.892	1518.75
953.121	1493.75
953.349	1509.75
953.578	1511.75
953.806	1467.75
954.035	1410.75
954.263	1458.75
954.491	1411.75
954.719	1490.75
954.948	1420.75
955.176	1420.75
955.404	1347.75
955.632	1446.75
955.86	1422.75
956.088	1429.75
956.316	1459.75
956.544	1461.75
956.772	1403.75
956.999	1366.75
957.227	1481.75
957.455	1366.75
957.683	1409.75
957.91	1377.75
958.138	1355.75
958.365	1373.75
958.593	1357.75
958.82	1321.75
959.048	1408.75
959.275	1382.75
959.502	1372.75
959.73	1359.75
959.957	1393.75
960.184	1414.75
960.411	1382.75
960.638	1417.75
960.865	1361.75
961.092	1376.75
961.319	1284.75
961.546	1397.75
961.773	1359.75
962	1353.75
962.227	1406.75
962.454	1352.75
962.68	1353.75
962.907	1382.75
963.134	1330.75
963.36	1363.75
963.587	1370.75
963.813	1311.75
964.04	1380.75
964.266	1293.75
964.493	1385.75
964.719	1348.75
964.945	1366.75
965.171	1248.75
965.398	1323.75
965.624	1318.75
965.85	1292.75
966.076	1274.75
966.302	1335.75
966.528	1309.75
966.754	1302.75
966.98	1325.75
967.206	1305.75
967.431	1249.75
967.657	1323.75
967.883	1306.75
968.109	1288.75
968.334	1250.75
968.56	1222.75
968.785	1273.75
969.011	1220.75
969.236	1291.75
969.462	1224.75
969.687	1237.75
969.912	1311.75
970.138	1303.75
970.363	1233.75
970.588	1262.75
970.813	1232.75
971.038	1218.75
971.263	1241.75
971.488	1282.75
971.713	1280.75
971.938	1280.75
972.163	1191.75
972.388	1215.75
972.613	1198.75
972.838	1211.75
973.062	1223.75
973.287	1216.75
973.512	1146.75
973.736	1192.75
973.961	1190.75
974.185	1155.75
974.41	1218.75
974.634	1118.75
974.858	1122.75
975.083	1199.75
975.307	1207.75
975.531	1140.75
975.755	1108.75
975.98	1136.75
976.204	1083.75
976.428	1076.75
976.652	1098.75
976.876	1072.75
977.1	1126.75
977.324	1092.75
977.547	1135.75
977.771	1122.75
977.995	1115.75
978.219	1032.75
978.442	1187.75
978.666	1116.75
978.89	1138.75
979.113	1122.75
979.337	1108.75
979.56	1080.75
979.783	1149.75
980.007	1060.75
980.23	1094.75
980.453	1057.75
980.677	1089.75
980.9	1083.75
981.123	999.75
981.346	1108.75
981.569	1092.75
981.792	1097.75
982.015	1082.75
982.238	1055.75
982.461	1075.75
982.684	1039.75
982.907	1030.75
983.129	1017.75
983.352	1087.75
983.575	1053.75
983.797	1077.75
984.02	1043.75
984.242	1050.75
984.465	1034.75
984.687	1067.75
984.91	1103.75
985.132	1059.75
985.354	1092.75
985.577	1049.75
985.799	1046.75
986.021	985.75
986.243	997.75
986.465	1027.75
986.687	1082.75
986.909	1144.75
987.131	1045.75
987.353	1016.75
987.575	1043.75
987.797	1002.75
988.019	979.75
988.241	1026.75
988.462	981.75
988.684	1044.75
988.906	1073.75
989.127	1106.75
989.349	984.75
989.57	1048.75
989.792	1049.75
990.013	1079.75
990.234	1091.75
990.456	1106.75
990.677	1089.75
990.898	1023.75
991.119	1012.75
991.341	1055.75
991.562	994.75
991.783	1065.75
992.004	979.75
992.225	954.75
992.446	1033.75
992.667	933.75
992.887	1021.75
993.108	933.75
993.329	1058.75
993.55	1009.75
993.77	955.75
993.991	964.75
994.212	1025.75
994.432	1001.75
994.653	1000.75
994.873	1015.75
995.093	903.75
995.314	945.75
995.534	1020.75
995.754	1030.75
995.975	1041.75
996.195	939.75
996.415	1001.75
996.635	992.75
996.855	999.75
997.075	973.75
997.295	979.75
997.515	945.75
997.735	1004.75
997.955	979.75
998.174	963.75
998.394	951.75
998.614	1003.75
998.834	945.75
999.053	1040.75
999.273	994.75
999.492	1015.75
999.712	1002.75
999.931	975.75
1000.151	1017.75
1000.37	992.75
1000.589	1036.75
1000.809	961.75
1001.028	1078.75
1001.247	1031.75
1001.466	920.75
1001.685	1057.75
1001.904	1030.75
1002.123	986.75
1002.342	1017.75
1002.561	969.75
1002.78	1019.75
1002.999	1090.75
1003.218	1003.75
1003.436	991.75
1003.655	1032.75
1003.874	994.75
1004.092	1009.75
1004.311	1060.75
1004.53	1016.75
1004.748	1103.75
1004.966	1015.75
1005.185	1074.75
1005.403	1061.75
1005.622	1034.75
1005.84	1118.75
1006.058	1017.75
1006.276	1023.75
1006.494	1517.75
1006.712	1021.75
1006.931	1086.75
1007.149	1016.75
1007.367	1000.75
1007.584	1040.75
1007.802	1079.75
1008.02	1018.75
1008.238	1104.75
1008.456	1120.75
1008.673	990.75
1008.891	1072.75
1009.109	1024.75
1009.326	1082.75
1009.544	1133.75
1009.761	1047.75
1009.979	1127.75
1010.196	1113.75
1010.413	1196.75
1010.631	1228.75
1010.848	1244.75
1011.065	1237.75
1011.282	1195.75
1011.5	1142.75
1011.717	1245.75
1011.934	1205.75
1012.151	1244.75
1012.368	1223.75
1012.585	1167.75
1012.801	1182.75
1013.018	1186.75
1013.235	1149.75
1013.452	1167.75
1013.669	1178.75
1013.885	1156.75
1014.102	1171.75
1014.318	1152.75
1014.535	1090.75
1014.751	1147.75
1014.968	1149.75
1015.184	1184.75
1015.401	1097.75
1015.617	1140.75
1015.833	1080.75
1016.049	1081.75
1016.266	1102.75
1016.482	1111.75
1016.698	1018.75
1016.914	1072.75
1017.13	1034.75
1017.346	1055.75
1017.562	1122.75
1017.778	1032.75
1017.993	1009.75
1018.209	1085.75
1018.425	1050.75
1018.641	1024.75
1018.856	1017.75
1019.072	1012.75
1019.288	1048.75
1019.503	1016.75
1019.719	940.75
1019.934	964.75
1020.149	1036.75
1020.365	1001.75
1020.58	952.75
1020.795	1000.75
1021.011	954.75
1021.226	922.75
1021.441	965.75
1021.656	902.75
1021.871	841.75
1022.086	841.75
1022.301	835.75
1022.516	829.75
1022.731	890.75
1022.946	791.75
1023.16	802.75
1023.375	785.75
1023.59	759.75
1023.804	733.75
1024.019	847.75
1024.234	711.75
1024.448	766.75
1024.663	686.75
1024.877	700.75
1025.092	737.75
1025.306	742.75
1025.52	654.75
1025.734	756.75
1025.949	676.75
1026.163	663.75
1026.377	590.75
1026.591	669.75
1026.805	609.75
1027.019	592.75
1027.233	548.75
1027.447	503.75
1027.661	611.75
1027.875	563.75
1028.088	576.75
1028.302	522.75
1028.516	503.75
1028.73	508.75
1028.943	519.75
1029.157	486.75
1029.37	449.75
1029.584	-1.25
1029.797	-1.25
1030.011	-0.25
1030.224	0.75
