Data from QEP037381__448__17-08-57-249.txt Node

Date: Fri Dec 16 17:08:57 EST 2022
User: dcclab
Spectrometer: QEP03738
Trigger mode: 4
Integration Time (sec): 1.000000E1
Scans to average: 1
Electric dark correction enabled: true
Nonlinearity correction enabled: false
Boxcar width: 0
XAxis mode: Wavelengths
Number of Pixels in Spectrum: 1044
>>>>>Begin Spectral Data<<<<<
784.041	13.12
784.3	-0.88
784.558	-4.88
784.817	-3.88
785.075	91952.12
785.334	15720.12
785.592	7329.12
785.851	5075.12
786.109	3840.12
786.368	2983.12
786.626	2420.12
786.884	2052.12
787.143	1700.12
787.401	1397.12
787.659	1277.12
787.917	1102.12
788.175	1017.12
788.433	903.12
788.691	798.12
788.949	753.12
789.207	704.12
789.465	636.12
789.723	610.12
789.98	546.12
790.238	580.12
790.496	574.12
790.753	528.12
791.011	590.12
791.268	518.12
791.526	502.12
791.783	514.12
792.041	512.12
792.298	416.12
792.556	485.12
792.813	467.12
793.07	453.12
793.327	431.12
793.584	518.12
793.841	447.12
794.099	452.12
794.356	515.12
794.613	428.12
794.869	467.12
795.126	417.12
795.383	407.12
795.64	431.12
795.897	380.12
796.153	437.12
796.41	408.12
796.667	409.12
796.923	424.12
797.18	421.12
797.436	439.12
797.693	400.12
797.949	453.12
798.206	490.12
798.462	413.12
798.718	455.12
798.974	419.12
799.231	477.12
799.487	459.12
799.743	471.12
799.999	498.12
800.255	479.12
800.511	479.12
800.767	524.12
801.023	484.12
801.279	528.12
801.534	574.12
801.79	617.12
802.046	641.12
802.302	764.12
802.557	847.12
802.813	1000.12
803.068	1213.12
803.324	1685.12
803.579	2238.12
803.835	3087.12
804.09	4352.12
804.345	5738.12
804.601	7179.12
804.856	8807.12
805.111	10211.12
805.366	11275.12
805.621	12089.12
805.876	12635.12
806.131	12971.12
806.386	13239.12
806.641	13464.12
806.896	13765.12
807.151	14014.12
807.406	14164.12
807.661	14528.12
807.915	14677.12
808.17	14937.12
808.425	15121.12
808.679	15273.12
808.934	15471.12
809.188	15655.12
809.443	15798.12
809.697	16028.12
809.951	16107.12
810.206	16247.12
810.46	16379.12
810.714	16588.12
810.968	16757.12
811.223	16813.12
811.477	16941.12
811.731	17106.12
811.985	17168.12
812.239	17270.12
812.493	17405.12
812.747	17441.12
813	17354.12
813.254	17495.12
813.508	17777.12
813.762	17751.12
814.015	17745.12
814.269	17887.12
814.522	18083.12
814.776	18258.12
815.03	18550.12
815.283	18766.12
815.536	19065.12
815.79	19404.12
816.043	19763.12
816.296	20013.12
816.55	20283.12
816.803	20458.12
817.056	20681.12
817.309	20929.12
817.562	21112.12
817.815	21326.12
818.068	21482.12
818.321	21666.12
818.574	21948.12
818.827	22241.12
819.079	22564.12
819.332	22973.12
819.585	23188.12
819.838	23598.12
820.09	23583.12
820.343	23818.12
820.595	23943.12
820.848	24216.12
821.1	24172.12
821.353	24092.12
821.605	24152.12
821.857	24286.12
822.11	24040.12
822.362	24040.12
822.614	23953.12
822.866	23953.12
823.118	23920.12
823.37	24008.12
823.622	24123.12
823.874	24132.12
824.126	24168.12
824.378	24143.12
824.63	24222.12
824.882	24423.12
825.134	24297.12
825.385	24311.12
825.637	24306.12
825.888	24217.12
826.14	24104.12
826.392	24049.12
826.643	23921.12
826.895	23903.12
827.146	23855.12
827.397	23687.12
827.649	23728.12
827.9	23672.12
828.151	23595.12
828.402	23620.12
828.653	23710.12
828.905	23885.12
829.156	23897.12
829.407	23756.12
829.658	23873.12
829.909	23880.12
830.159	23775.12
830.41	23744.12
830.661	23573.12
830.912	23366.12
831.162	23341.12
831.413	23251.12
831.664	23253.12
831.914	23327.12
832.165	23281.12
832.415	23268.12
832.666	23338.12
832.916	23320.12
833.167	23186.12
833.417	23282.12
833.667	23138.12
833.917	23128.12
834.168	23093.12
834.418	22893.12
834.668	22913.12
834.918	22630.12
835.168	22659.12
835.418	22516.12
835.668	22473.12
835.918	22503.12
836.167	22498.12
836.417	22298.12
836.667	22279.12
836.917	22306.12
837.166	22236.12
837.416	22196.12
837.666	22224.12
837.915	22202.12
838.165	22123.12
838.414	21987.12
838.663	21969.12
838.913	22004.12
839.162	21991.12
839.411	21864.12
839.661	21745.12
839.91	21727.12
840.159	21639.12
840.408	21684.12
840.657	21665.12
840.906	21720.12
841.155	21651.12
841.404	21612.12
841.653	21661.12
841.902	21691.12
842.15	21668.12
842.399	21700.12
842.648	21659.12
842.897	21536.12
843.145	21428.12
843.394	21356.12
843.642	21137.12
843.891	21082.12
844.139	20899.12
844.388	20864.12
844.636	20653.12
844.884	20807.12
845.133	20664.12
845.381	20681.12
845.629	20670.12
845.877	20658.12
846.125	20530.12
846.373	20634.12
846.621	20530.12
846.869	20484.12
847.117	20352.12
847.365	20201.12
847.613	20117.12
847.861	20133.12
848.108	20047.12
848.356	20040.12
848.604	19866.12
848.851	19915.12
849.099	19931.12
849.346	19972.12
849.594	20031.12
849.841	20141.12
850.089	20166.12
850.336	20106.12
850.583	20037.12
850.831	20027.12
851.078	19951.12
851.325	19924.12
851.572	19992.12
851.819	19813.12
852.066	19350.12
852.313	19019.12
852.56	18953.12
852.807	18853.12
853.054	18761.12
853.301	18857.12
853.548	18791.12
853.794	18999.12
854.041	18989.12
854.288	19000.12
854.534	19209.12
854.781	19037.12
855.028	19066.12
855.274	18964.12
855.52	18821.12
855.767	18661.12
856.013	18747.12
856.26	18998.12
856.506	18522.12
856.752	18519.12
856.998	18572.12
857.244	18596.12
857.49	18613.12
857.736	18586.12
857.982	18638.12
858.228	18591.12
858.474	18429.12
858.72	18360.12
858.966	18261.12
859.212	17982.12
859.458	17869.12
859.703	17596.12
859.949	17442.12
860.195	17338.12
860.44	17205.12
860.686	17128.12
860.931	17221.12
861.177	17105.12
861.422	16959.12
861.667	16949.12
861.913	16948.12
862.158	16985.12
862.403	16972.12
862.648	17116.12
862.893	17079.12
863.138	17115.12
863.384	16959.12
863.629	16947.12
863.873	16971.12
864.118	16930.12
864.363	16697.12
864.608	16772.12
864.853	16750.12
865.098	16606.12
865.342	16626.12
865.587	16444.12
865.832	16525.12
866.076	16372.12
866.321	16347.12
866.565	16301.12
866.81	16303.12
867.054	16192.12
867.298	16156.12
867.543	15982.12
867.787	16149.12
868.031	16015.12
868.275	15962.12
868.519	15990.12
868.764	15886.12
869.008	15768.12
869.252	15988.12
869.496	15741.12
869.739	15770.12
869.983	15774.12
870.227	15725.12
870.471	15781.12
870.715	15761.12
870.958	15838.12
871.202	15822.12
871.446	15845.12
871.689	15816.12
871.933	15878.12
872.176	15683.12
872.42	15667.12
872.663	15716.12
872.906	15600.12
873.15	15510.12
873.393	15530.12
873.636	15519.12
873.879	15300.12
874.122	15224.12
874.366	14981.12
874.609	14910.12
874.852	14746.12
875.095	14689.12
875.337	14574.12
875.58	14561.12
875.823	14572.12
876.066	14491.12
876.309	14530.12
876.551	14450.12
876.794	14201.12
877.037	14286.12
877.279	14137.12
877.522	14221.12
877.764	14233.12
878.007	14123.12
878.249	14174.12
878.491	14091.12
878.734	14162.12
878.976	13981.12
879.218	13931.12
879.46	13928.12
879.702	13870.12
879.945	13753.12
880.187	13553.12
880.429	13502.12
880.671	13451.12
880.912	13483.12
881.154	13262.12
881.396	13208.12
881.638	13248.12
881.88	13230.12
882.121	13274.12
882.363	13188.12
882.605	13265.12
882.846	13156.12
883.088	13122.12
883.329	13036.12
883.571	13105.12
883.812	13101.12
884.053	13290.12
884.295	13470.12
884.536	13574.12
884.777	13505.12
885.018	13415.12
885.259	13378.12
885.5	13327.12
885.742	13529.12
885.982	13234.12
886.223	13094.12
886.464	13109.12
886.705	12882.12
886.946	12868.12
887.187	12603.12
887.428	12592.12
887.668	12395.12
887.909	12184.12
888.15	12123.12
888.39	12131.12
888.631	12040.12
888.871	11879.12
889.111	11804.12
889.352	11811.12
889.592	11651.12
889.833	11519.12
890.073	11492.12
890.313	11454.12
890.553	11309.12
890.793	11259.12
891.033	11134.12
891.273	11149.12
891.513	11134.12
891.753	11133.12
891.993	11053.12
892.233	11033.12
892.473	11172.12
892.713	11087.12
892.952	11140.12
893.192	11170.12
893.432	11083.12
893.671	11048.12
893.911	11044.12
894.15	10874.12
894.39	10862.12
894.629	10804.12
894.869	10796.12
895.108	10715.12
895.347	10630.12
895.587	10574.12
895.826	10499.12
896.065	10550.12
896.304	10519.12
896.543	10556.12
896.782	10403.12
897.021	10464.12
897.26	10445.12
897.499	10475.12
897.738	10430.12
897.977	10317.12
898.216	10212.12
898.454	10129.12
898.693	10043.12
898.932	10057.12
899.17	9952.12
899.409	9975.12
899.647	9928.12
899.886	9963.12
900.124	9946.12
900.363	9937.12
900.601	9874.12
900.839	9895.12
901.078	9961.12
901.316	9968.12
901.554	10030.12
901.792	10060.12
902.03	10068.12
902.268	10101.12
902.506	10029.12
902.744	9965.12
902.982	9918.12
903.22	9706.12
903.458	9620.12
903.695	9473.12
903.933	9347.12
904.171	9228.12
904.409	9059.12
904.646	9009.12
904.884	8836.12
905.121	8800.12
905.359	8679.12
905.596	8663.12
905.833	8452.12
906.071	8505.12
906.308	8512.12
906.545	8449.12
906.783	8335.12
907.02	8338.12
907.257	8326.12
907.494	8275.12
907.731	8284.12
907.968	8227.12
908.205	8128.12
908.442	8157.12
908.679	8078.12
908.915	8076.12
909.152	7996.12
909.389	7858.12
909.626	7790.12
909.862	7786.12
910.099	7728.12
910.335	7805.12
910.572	7650.12
910.808	7627.12
911.045	7604.12
911.281	7546.12
911.518	7626.12
911.754	7496.12
911.99	7508.12
912.226	7391.12
912.463	7365.12
912.699	7282.12
912.935	7210.12
913.171	7193.12
913.407	7080.12
913.643	7140.12
913.879	7076.12
914.114	6969.12
914.35	6871.12
914.586	6795.12
914.822	6678.12
915.057	6762.12
915.293	6671.12
915.529	6620.12
915.764	6689.12
916	6605.12
916.235	6632.12
916.471	6573.12
916.706	6500.12
916.941	6560.12
917.177	6509.12
917.412	6575.12
917.647	6567.12
917.882	6481.12
918.117	6547.12
918.352	6417.12
918.588	6503.12
918.823	6349.12
919.057	6312.12
919.292	6188.12
919.527	6252.12
919.762	6181.12
919.997	6149.12
920.232	6025.12
920.466	6037.12
920.701	5870.12
920.935	5886.12
921.17	5885.12
921.405	5796.12
921.639	5841.12
921.873	5827.12
922.108	5740.12
922.342	5763.12
922.576	5691.12
922.811	5671.12
923.045	5716.12
923.279	5699.12
923.513	5568.12
923.747	5632.12
923.981	5526.12
924.215	5481.12
924.449	5470.12
924.683	5428.12
924.917	5405.12
925.151	5352.12
925.385	5408.12
925.618	5310.12
925.852	5317.12
926.086	5295.12
926.319	5279.12
926.553	5263.12
926.786	5353.12
927.02	5309.12
927.253	5387.12
927.486	5311.12
927.72	5223.12
927.953	5284.12
928.186	5211.12
928.42	5248.12
928.653	5142.12
928.886	5137.12
929.119	5179.12
929.352	5133.12
929.585	5134.12
929.818	4985.12
930.051	4982.12
930.284	5013.12
930.516	4886.12
930.749	4868.12
930.982	4855.12
931.215	4827.12
931.447	4775.12
931.68	4772.12
931.912	4795.12
932.145	4768.12
932.377	4819.12
932.61	4902.12
932.842	4746.12
933.074	4747.12
933.307	4693.12
933.539	4796.12
933.771	4758.12
934.003	4663.12
934.236	4740.12
934.468	4843.12
934.7	4682.12
934.932	4696.12
935.164	4664.12
935.395	4575.12
935.627	4615.12
935.859	4616.12
936.091	4540.12
936.323	4642.12
936.554	4626.12
936.786	4538.12
937.017	4493.12
937.249	4540.12
937.481	4436.12
937.712	4524.12
937.943	4488.12
938.175	4449.12
938.406	4380.12
938.637	4500.12
938.869	4416.12
939.1	4442.12
939.331	4426.12
939.562	4457.12
939.793	4410.12
940.024	4446.12
940.255	4399.12
940.486	4336.12
940.717	4342.12
940.948	4322.12
941.179	4227.12
941.409	4268.12
941.64	4242.12
941.871	4275.12
942.102	4207.12
942.332	4215.12
942.563	4248.12
942.793	4237.12
943.024	4141.12
943.254	4219.12
943.484	4281.12
943.715	4282.12
943.945	4192.12
944.175	4151.12
944.405	4128.12
944.636	4143.12
944.866	4168.12
945.096	4217.12
945.326	4078.12
945.556	4115.12
945.786	4147.12
946.016	4088.12
946.245	4022.12
946.475	4011.12
946.705	4017.12
946.935	3988.12
947.164	3942.12
947.394	3882.12
947.624	3948.12
947.853	3948.12
948.083	3878.12
948.312	3841.12
948.542	3792.12
948.771	3777.12
949	3807.12
949.23	3819.12
949.459	3782.12
949.688	3826.12
949.917	3823.12
950.146	3825.12
950.375	3831.12
950.604	3724.12
950.833	3803.12
951.062	3773.12
951.291	3758.12
951.52	3750.12
951.749	3718.12
951.978	3715.12
952.206	3676.12
952.435	3648.12
952.664	3692.12
952.892	3683.12
953.121	3626.12
953.349	3711.12
953.578	3627.12
953.806	3616.12
954.035	3547.12
954.263	3592.12
954.491	3505.12
954.719	3588.12
954.948	3494.12
955.176	3487.12
955.404	3448.12
955.632	3480.12
955.86	3440.12
956.088	3425.12
956.316	3449.12
956.544	3477.12
956.772	3377.12
956.999	3381.12
957.227	3455.12
957.455	3306.12
957.683	3319.12
957.91	3258.12
958.138	3262.12
958.365	3246.12
958.593	3254.12
958.82	3203.12
959.048	3259.12
959.275	3251.12
959.502	3221.12
959.73	3174.12
959.957	3206.12
960.184	3244.12
960.411	3148.12
960.638	3264.12
960.865	3151.12
961.092	3204.12
961.319	3096.12
961.546	3183.12
961.773	3190.12
962	3119.12
962.227	3191.12
962.454	3138.12
962.68	3057.12
962.907	3126.12
963.134	3100.12
963.36	3076.12
963.587	3131.12
963.813	2994.12
964.04	3066.12
964.266	2987.12
964.493	3046.12
964.719	3004.12
964.945	3034.12
965.171	2901.12
965.398	2957.12
965.624	2967.12
965.85	2872.12
966.076	2886.12
966.302	2909.12
966.528	2891.12
966.754	2888.12
966.98	2891.12
967.206	2841.12
967.431	2791.12
967.657	2907.12
967.883	2841.12
968.109	2821.12
968.334	2738.12
968.56	2761.12
968.785	2785.12
969.011	2730.12
969.236	2763.12
969.462	2685.12
969.687	2737.12
969.912	2730.12
970.138	2781.12
970.363	2674.12
970.588	2737.12
970.813	2687.12
971.038	2629.12
971.263	2698.12
971.488	2667.12
971.713	2719.12
971.938	2620.12
972.163	2590.12
972.388	2622.12
972.613	2580.12
972.838	2587.12
973.062	2554.12
973.287	2571.12
973.512	2491.12
973.736	2529.12
973.961	2527.12
974.185	2515.12
974.41	2537.12
974.634	2435.12
974.858	2458.12
975.083	2445.12
975.307	2489.12
975.531	2431.12
975.755	2374.12
975.98	2393.12
976.204	2295.12
976.428	2337.12
976.652	2319.12
976.876	2323.12
977.1	2324.12
977.324	2288.12
977.547	2334.12
977.771	2287.12
977.995	2312.12
978.219	2245.12
978.442	2348.12
978.666	2281.12
978.89	2262.12
979.113	2290.12
979.337	2252.12
979.56	2213.12
979.783	2330.12
980.007	2211.12
980.23	2258.12
980.453	2195.12
980.677	2243.12
980.9	2214.12
981.123	2099.12
981.346	2238.12
981.569	2214.12
981.792	2223.12
982.015	2172.12
982.238	2116.12
982.461	2139.12
982.684	2109.12
982.907	2068.12
983.129	2074.12
983.352	2157.12
983.575	2089.12
983.797	2080.12
984.02	2020.12
984.242	2057.12
984.465	2048.12
984.687	2075.12
984.91	2090.12
985.132	2025.12
985.354	2089.12
985.577	2041.12
985.799	2029.12
986.021	1936.12
986.243	1948.12
986.465	1978.12
986.687	2032.12
986.909	2033.12
987.131	1984.12
987.353	1921.12
987.575	1999.12
987.797	1940.12
988.019	1887.12
988.241	1935.12
988.462	1886.12
988.684	1926.12
988.906	1962.12
989.127	1967.12
989.349	1892.12
989.57	1891.12
989.792	1937.12
990.013	1935.12
990.234	1936.12
990.456	1960.12
990.677	1929.12
990.898	1887.12
991.119	1879.12
991.341	1878.12
991.562	1838.12
991.783	1890.12
992.004	1776.12
992.225	1772.12
992.446	1844.12
992.667	1739.12
992.887	1847.12
993.108	1719.12
993.329	1854.12
993.55	1790.12
993.77	1719.12
993.991	1724.12
994.212	1771.12
994.432	1732.12
994.653	1777.12
994.873	1745.12
995.093	1679.12
995.314	1669.12
995.534	1725.12
995.754	1752.12
995.975	1783.12
996.195	1658.12
996.415	1728.12
996.635	1692.12
996.855	1709.12
997.075	1673.12
997.295	1660.12
997.515	1638.12
997.735	1704.12
997.955	1668.12
998.174	1645.12
998.394	1638.12
998.614	1678.12
998.834	1617.12
999.053	1668.12
999.273	1654.12
999.492	1687.12
999.712	1645.12
999.931	1604.12
1000.151	1637.12
1000.37	1628.12
1000.589	1672.12
1000.809	1597.12
1001.028	1734.12
1001.247	1674.12
1001.466	1541.12
1001.685	1682.12
1001.904	1652.12
1002.123	1610.12
1002.342	1587.12
1002.561	1541.12
1002.78	1614.12
1002.999	1649.12
1003.218	1602.12
1003.436	1586.12
1003.655	1629.12
1003.874	1544.12
1004.092	1564.12
1004.311	1605.12
1004.53	1561.12
1004.748	1633.12
1004.966	1554.12
1005.185	1598.12
1005.403	1590.12
1005.622	1570.12
1005.84	1647.12
1006.058	1515.12
1006.276	1558.12
1006.494	2072.12
1006.712	1540.12
1006.931	1635.12
1007.149	1509.12
1007.367	1536.12
1007.584	1584.12
1007.802	1591.12
1008.02	1534.12
1008.238	1636.12
1008.456	1589.12
1008.673	1487.12
1008.891	1624.12
1009.109	1524.12
1009.326	1590.12
1009.544	1660.12
1009.761	1562.12
1009.979	1663.12
1010.196	1672.12
1010.413	1755.12
1010.631	1756.12
1010.848	1815.12
1011.065	1802.12
1011.282	1752.12
1011.5	1727.12
1011.717	1828.12
1011.934	1751.12
1012.151	1773.12
1012.368	1743.12
1012.585	1712.12
1012.801	1753.12
1013.018	1741.12
1013.235	1703.12
1013.452	1723.12
1013.669	1723.12
1013.885	1705.12
1014.102	1775.12
1014.318	1728.12
1014.535	1680.12
1014.751	1704.12
1014.968	1694.12
1015.184	1742.12
1015.401	1635.12
1015.617	1672.12
1015.833	1592.12
1016.049	1604.12
1016.266	1606.12
1016.482	1610.12
1016.698	1543.12
1016.914	1572.12
1017.13	1553.12
1017.346	1518.12
1017.562	1595.12
1017.778	1533.12
1017.993	1519.12
1018.209	1538.12
1018.425	1546.12
1018.641	1498.12
1018.856	1491.12
1019.072	1519.12
1019.288	1578.12
1019.503	1519.12
1019.719	1430.12
1019.934	1436.12
1020.149	1505.12
1020.365	1468.12
1020.58	1405.12
1020.795	1479.12
1021.011	1391.12
1021.226	1387.12
1021.441	1422.12
1021.656	1327.12
1021.871	1239.12
1022.086	1249.12
1022.301	1253.12
1022.516	1247.12
1022.731	1290.12
1022.946	1205.12
1023.16	1189.12
1023.375	1149.12
1023.59	1126.12
1023.804	1132.12
1024.019	1205.12
1024.234	1079.12
1024.448	1098.12
1024.663	1036.12
1024.877	1062.12
1025.092	1068.12
1025.306	1066.12
1025.52	985.12
1025.734	1059.12
1025.949	961.12
1026.163	945.12
1026.377	889.12
1026.591	933.12
1026.805	861.12
1027.019	860.12
1027.233	826.12
1027.447	771.12
1027.661	883.12
1027.875	821.12
1028.088	810.12
1028.302	740.12
1028.516	749.12
1028.73	741.12
1028.943	715.12
1029.157	677.12
1029.37	627.12
1029.584	0.12
1029.797	-2.88
1030.011	1.12
1030.224	-1.88
