Data from QEP037381__456__17-10-17-249.txt Node

Date: Fri Dec 16 17:10:17 EST 2022
User: dcclab
Spectrometer: QEP03738
Trigger mode: 4
Integration Time (sec): 1.000000E1
Scans to average: 1
Electric dark correction enabled: true
Nonlinearity correction enabled: false
Boxcar width: 0
XAxis mode: Wavelengths
Number of Pixels in Spectrum: 1044
>>>>>Begin Spectral Data<<<<<
784.041	11.88
784.3	0.88
784.558	-4.12
784.817	-5.12
785.075	88108.88
785.334	15375.88
785.592	7225.88
785.851	4993.88
786.109	3765.88
786.368	2933.88
786.626	2386.88
786.884	1993.88
787.143	1676.88
787.401	1383.88
787.659	1282.88
787.917	1079.88
788.175	996.88
788.433	874.88
788.691	787.88
788.949	728.88
789.207	707.88
789.465	626.88
789.723	606.88
789.98	547.88
790.238	592.88
790.496	578.88
790.753	513.88
791.011	569.88
791.268	511.88
791.526	493.88
791.783	515.88
792.041	502.88
792.298	417.88
792.556	489.88
792.813	466.88
793.07	448.88
793.327	442.88
793.584	502.88
793.841	436.88
794.099	460.88
794.356	501.88
794.613	429.88
794.869	451.88
795.126	418.88
795.383	402.88
795.64	427.88
795.897	364.88
796.153	437.88
796.41	419.88
796.667	411.88
796.923	406.88
797.18	398.88
797.436	442.88
797.693	406.88
797.949	443.88
798.206	482.88
798.462	385.88
798.718	462.88
798.974	430.88
799.231	462.88
799.487	448.88
799.743	465.88
799.999	490.88
800.255	481.88
800.511	470.88
800.767	506.88
801.023	481.88
801.279	532.88
801.534	554.88
801.79	594.88
802.046	593.88
802.302	750.88
802.557	817.88
802.813	1007.88
803.068	1216.88
803.324	1666.88
803.579	2231.88
803.835	3065.88
804.09	4249.88
804.345	5513.88
804.601	6954.88
804.856	8494.88
805.111	9805.88
805.366	10750.88
805.621	11509.88
805.876	12060.88
806.131	12387.88
806.386	12554.88
806.641	12777.88
806.896	13024.88
807.151	13347.88
807.406	13552.88
807.661	13745.88
807.915	14050.88
808.17	14181.88
808.425	14369.88
808.679	14548.88
808.934	14743.88
809.188	14807.88
809.443	15033.88
809.697	15242.88
809.951	15339.88
810.206	15465.88
810.46	15658.88
810.714	15757.88
810.968	15967.88
811.223	15966.88
811.477	16216.88
811.731	16288.88
811.985	16373.88
812.239	16375.88
812.493	16581.88
812.747	16614.88
813	16642.88
813.254	16681.88
813.508	16855.88
813.762	16934.88
814.015	16988.88
814.269	17145.88
814.522	17244.88
814.776	17439.88
815.03	17629.88
815.283	17974.88
815.536	18256.88
815.79	18567.88
816.043	18768.88
816.296	19052.88
816.55	19173.88
816.803	19436.88
817.056	19740.88
817.309	19936.88
817.562	20068.88
817.815	20347.88
818.068	20432.88
818.321	20564.88
818.574	20923.88
818.827	21244.88
819.079	21538.88
819.332	21915.88
819.585	22175.88
819.838	22463.88
820.09	22483.88
820.343	22676.88
820.595	22801.88
820.848	22927.88
821.1	23069.88
821.353	23010.88
821.605	23053.88
821.857	23088.88
822.11	22835.88
822.362	22907.88
822.614	22783.88
822.866	22828.88
823.118	22903.88
823.37	22842.88
823.622	22999.88
823.874	22892.88
824.126	23018.88
824.378	23190.88
824.63	23273.88
824.882	23384.88
825.134	23315.88
825.385	23188.88
825.637	23219.88
825.888	23131.88
826.14	22949.88
826.392	22904.88
826.643	22759.88
826.895	22699.88
827.146	22610.88
827.397	22545.88
827.649	22643.88
827.9	22538.88
828.151	22557.88
828.402	22625.88
828.653	22672.88
828.905	22701.88
829.156	22755.88
829.407	22675.88
829.658	22670.88
829.909	22734.88
830.159	22677.88
830.41	22611.88
830.661	22525.88
830.912	22282.88
831.162	22181.88
831.413	22204.88
831.664	22209.88
831.914	22125.88
832.165	22085.88
832.415	22146.88
832.666	22133.88
832.916	22159.88
833.167	22042.88
833.417	21916.88
833.667	22023.88
833.917	21773.88
834.168	21891.88
834.418	21881.88
834.668	21697.88
834.918	21551.88
835.168	21545.88
835.418	21330.88
835.668	21323.88
835.918	21339.88
836.167	21299.88
836.417	21234.88
836.667	21161.88
836.917	21115.88
837.166	20991.88
837.416	21171.88
837.666	21015.88
837.915	20892.88
838.165	20973.88
838.414	20792.88
838.663	20839.88
838.913	20774.88
839.162	20757.88
839.411	20726.88
839.661	20674.88
839.91	20575.88
840.159	20541.88
840.408	20467.88
840.657	20517.88
840.906	20554.88
841.155	20542.88
841.404	20392.88
841.653	20501.88
841.902	20559.88
842.15	20509.88
842.399	20410.88
842.648	20414.88
842.897	20384.88
843.145	20294.88
843.394	20083.88
843.642	20076.88
843.891	19927.88
844.139	19856.88
844.388	19652.88
844.636	19577.88
844.884	19561.88
845.133	19588.88
845.381	19489.88
845.629	19555.88
845.877	19466.88
846.125	19507.88
846.373	19488.88
846.621	19309.88
846.869	19304.88
847.117	19266.88
847.365	19126.88
847.613	18975.88
847.861	18949.88
848.108	18981.88
848.356	18868.88
848.604	18724.88
848.851	18814.88
849.099	18790.88
849.346	18853.88
849.594	18932.88
849.841	19008.88
850.089	18954.88
850.336	18981.88
850.583	19022.88
850.831	18904.88
851.078	18807.88
851.325	18710.88
851.572	18827.88
851.819	18673.88
852.066	18244.88
852.313	17988.88
852.56	17860.88
852.807	17708.88
853.054	17673.88
853.301	17755.88
853.548	17768.88
853.794	17922.88
854.041	17838.88
854.288	17830.88
854.534	18116.88
854.781	18015.88
855.028	17874.88
855.274	17839.88
855.52	17783.88
855.767	17686.88
856.013	17663.88
856.26	17914.88
856.506	17455.88
856.752	17394.88
856.998	17472.88
857.244	17497.88
857.49	17579.88
857.736	17538.88
857.982	17579.88
858.228	17472.88
858.474	17379.88
858.72	17262.88
858.966	17208.88
859.212	16979.88
859.458	16790.88
859.703	16641.88
859.949	16458.88
860.195	16406.88
860.44	16288.88
860.686	16215.88
860.931	16200.88
861.177	16074.88
861.422	15985.88
861.667	15891.88
861.913	15933.88
862.158	16047.88
862.403	15991.88
862.648	16037.88
862.893	16059.88
863.138	16022.88
863.384	15937.88
863.629	16016.88
863.873	15861.88
864.118	15837.88
864.363	15787.88
864.608	15785.88
864.853	15651.88
865.098	15639.88
865.342	15618.88
865.587	15427.88
865.832	15499.88
866.076	15438.88
866.321	15376.88
866.565	15325.88
866.81	15171.88
867.054	15202.88
867.298	15085.88
867.543	15049.88
867.787	15013.88
868.031	15013.88
868.275	14994.88
868.519	15018.88
868.764	14859.88
869.008	14900.88
869.252	14932.88
869.496	14794.88
869.739	14818.88
869.983	14827.88
870.227	14788.88
870.471	14735.88
870.715	14868.88
870.958	14769.88
871.202	14825.88
871.446	14836.88
871.689	14852.88
871.933	14855.88
872.176	14817.88
872.42	14659.88
872.663	14677.88
872.906	14657.88
873.15	14566.88
873.393	14471.88
873.636	14463.88
873.879	14348.88
874.122	14236.88
874.366	14050.88
874.609	13943.88
874.852	13806.88
875.095	13779.88
875.337	13689.88
875.58	13565.88
875.823	13603.88
876.066	13631.88
876.309	13514.88
876.551	13397.88
876.794	13311.88
877.037	13351.88
877.279	13246.88
877.522	13282.88
877.764	13315.88
878.007	13202.88
878.249	13211.88
878.491	13228.88
878.734	13181.88
878.976	13063.88
879.218	13017.88
879.46	13010.88
879.702	12918.88
879.945	12767.88
880.187	12650.88
880.429	12571.88
880.671	12553.88
880.912	12495.88
881.154	12428.88
881.396	12336.88
881.638	12391.88
881.88	12408.88
882.121	12298.88
882.363	12308.88
882.605	12381.88
882.846	12217.88
883.088	12224.88
883.329	12206.88
883.571	12172.88
883.812	12233.88
884.053	12262.88
884.295	12495.88
884.536	12687.88
884.777	12497.88
885.018	12550.88
885.259	12474.88
885.5	12335.88
885.742	12640.88
885.982	12405.88
886.223	12281.88
886.464	12221.88
886.705	12041.88
886.946	12029.88
887.187	11813.88
887.428	11736.88
887.668	11517.88
887.909	11399.88
888.15	11328.88
888.39	11292.88
888.631	11220.88
888.871	11091.88
889.111	11036.88
889.352	10952.88
889.592	10867.88
889.833	10783.88
890.073	10720.88
890.313	10705.88
890.553	10489.88
890.793	10535.88
891.033	10386.88
891.273	10383.88
891.513	10422.88
891.753	10408.88
891.993	10349.88
892.233	10449.88
892.473	10425.88
892.713	10332.88
892.952	10352.88
893.192	10326.88
893.432	10330.88
893.671	10326.88
893.911	10252.88
894.15	10257.88
894.39	10104.88
894.629	10092.88
894.869	10070.88
895.108	9989.88
895.347	9918.88
895.587	9862.88
895.826	9816.88
896.065	9860.88
896.304	9844.88
896.543	9848.88
896.782	9732.88
897.021	9750.88
897.26	9709.88
897.499	9768.88
897.738	9801.88
897.977	9621.88
898.216	9545.88
898.454	9492.88
898.693	9366.88
898.932	9332.88
899.17	9313.88
899.409	9277.88
899.647	9308.88
899.886	9256.88
900.124	9268.88
900.363	9239.88
900.601	9262.88
900.839	9297.88
901.078	9256.88
901.316	9321.88
901.554	9300.88
901.792	9435.88
902.03	9365.88
902.268	9376.88
902.506	9321.88
902.744	9249.88
902.982	9249.88
903.22	9060.88
903.458	8879.88
903.695	8876.88
903.933	8744.88
904.171	8535.88
904.409	8493.88
904.646	8421.88
904.884	8257.88
905.121	8161.88
905.359	8113.88
905.596	8069.88
905.833	7900.88
906.071	7937.88
906.308	7912.88
906.545	7882.88
906.783	7836.88
907.02	7812.88
907.257	7774.88
907.494	7746.88
907.731	7681.88
907.968	7707.88
908.205	7592.88
908.442	7592.88
908.679	7529.88
908.915	7456.88
909.152	7471.88
909.389	7281.88
909.626	7276.88
909.862	7224.88
910.099	7293.88
910.335	7190.88
910.572	7055.88
910.808	7140.88
911.045	7089.88
911.281	6964.88
911.518	7071.88
911.754	7007.88
911.99	7002.88
912.226	6912.88
912.463	6831.88
912.699	6822.88
912.935	6760.88
913.171	6735.88
913.407	6652.88
913.643	6641.88
913.879	6584.88
914.114	6494.88
914.35	6381.88
914.586	6387.88
914.822	6330.88
915.057	6365.88
915.293	6197.88
915.529	6136.88
915.764	6224.88
916	6191.88
916.235	6175.88
916.471	6160.88
916.706	6157.88
916.941	6064.88
917.177	6098.88
917.412	6082.88
917.647	6059.88
917.882	6005.88
918.117	6074.88
918.352	6095.88
918.588	6086.88
918.823	5942.88
919.057	5900.88
919.292	5804.88
919.527	5840.88
919.762	5722.88
919.997	5783.88
920.232	5638.88
920.466	5658.88
920.701	5486.88
920.935	5492.88
921.17	5458.88
921.405	5344.88
921.639	5447.88
921.873	5441.88
922.108	5400.88
922.342	5397.88
922.576	5314.88
922.811	5312.88
923.045	5337.88
923.279	5311.88
923.513	5168.88
923.747	5254.88
923.981	5197.88
924.215	5156.88
924.449	5096.88
924.683	5028.88
924.917	5044.88
925.151	5036.88
925.385	5090.88
925.618	4982.88
925.852	5011.88
926.086	4891.88
926.319	4947.88
926.553	4940.88
926.786	4966.88
927.02	4919.88
927.253	4951.88
927.486	4996.88
927.72	4882.88
927.953	4897.88
928.186	4835.88
928.42	4833.88
928.653	4768.88
928.886	4733.88
929.119	4784.88
929.352	4767.88
929.585	4701.88
929.818	4655.88
930.051	4627.88
930.284	4628.88
930.516	4539.88
930.749	4535.88
930.982	4548.88
931.215	4578.88
931.447	4453.88
931.68	4473.88
931.912	4435.88
932.145	4444.88
932.377	4460.88
932.61	4575.88
932.842	4367.88
933.074	4480.88
933.307	4386.88
933.539	4499.88
933.771	4490.88
934.003	4399.88
934.236	4516.88
934.468	4488.88
934.7	4376.88
934.932	4430.88
935.164	4311.88
935.395	4327.88
935.627	4333.88
935.859	4332.88
936.091	4315.88
936.323	4327.88
936.554	4325.88
936.786	4237.88
937.017	4213.88
937.249	4254.88
937.481	4153.88
937.712	4175.88
937.943	4193.88
938.175	4142.88
938.406	4180.88
938.637	4272.88
938.869	4095.88
939.1	4103.88
939.331	4070.88
939.562	4143.88
939.793	4091.88
940.024	4159.88
940.255	4099.88
940.486	4012.88
940.717	4006.88
940.948	4009.88
941.179	3981.88
941.409	3949.88
941.64	3980.88
941.871	3975.88
942.102	3920.88
942.332	3949.88
942.563	3986.88
942.793	3969.88
943.024	3861.88
943.254	3923.88
943.484	3995.88
943.715	3976.88
943.945	3939.88
944.175	3872.88
944.405	3824.88
944.636	3887.88
944.866	3890.88
945.096	3875.88
945.326	3815.88
945.556	3857.88
945.786	3867.88
946.016	3790.88
946.245	3733.88
946.475	3755.88
946.705	3741.88
946.935	3722.88
947.164	3741.88
947.394	3626.88
947.624	3720.88
947.853	3696.88
948.083	3675.88
948.312	3647.88
948.542	3528.88
948.771	3542.88
949	3549.88
949.23	3546.88
949.459	3554.88
949.688	3660.88
949.917	3541.88
950.146	3537.88
950.375	3601.88
950.604	3519.88
950.833	3533.88
951.062	3521.88
951.291	3520.88
951.52	3501.88
951.749	3485.88
951.978	3408.88
952.206	3437.88
952.435	3443.88
952.664	3404.88
952.892	3483.88
953.121	3382.88
953.349	3421.88
953.578	3455.88
953.806	3376.88
954.035	3282.88
954.263	3364.88
954.491	3294.88
954.719	3331.88
954.948	3261.88
955.176	3220.88
955.404	3166.88
955.632	3241.88
955.86	3195.88
956.088	3234.88
956.316	3274.88
956.544	3237.88
956.772	3143.88
956.999	3127.88
957.227	3222.88
957.455	3081.88
957.683	3109.88
957.91	3082.88
958.138	3024.88
958.365	3032.88
958.593	3045.88
958.82	2992.88
959.048	3024.88
959.275	3029.88
959.502	2995.88
959.73	2969.88
959.957	2983.88
960.184	3040.88
960.411	2940.88
960.638	3023.88
960.865	2949.88
961.092	2964.88
961.319	2865.88
961.546	2949.88
961.773	2984.88
962	2949.88
962.227	2984.88
962.454	2924.88
962.68	2898.88
962.907	2935.88
963.134	2873.88
963.36	2884.88
963.587	2870.88
963.813	2816.88
964.04	2829.88
964.266	2751.88
964.493	2857.88
964.719	2800.88
964.945	2821.88
965.171	2691.88
965.398	2765.88
965.624	2757.88
965.85	2682.88
966.076	2708.88
966.302	2708.88
966.528	2688.88
966.754	2699.88
966.98	2709.88
967.206	2695.88
967.431	2647.88
967.657	2677.88
967.883	2663.88
968.109	2638.88
968.334	2596.88
968.56	2599.88
968.785	2570.88
969.011	2547.88
969.236	2613.88
969.462	2556.88
969.687	2543.88
969.912	2579.88
970.138	2612.88
970.363	2533.88
970.588	2581.88
970.813	2499.88
971.038	2502.88
971.263	2497.88
971.488	2523.88
971.713	2505.88
971.938	2511.88
972.163	2398.88
972.388	2458.88
972.613	2437.88
972.838	2437.88
973.062	2442.88
973.287	2412.88
973.512	2384.88
973.736	2347.88
973.961	2337.88
974.185	2375.88
974.41	2365.88
974.634	2246.88
974.858	2267.88
975.083	2328.88
975.307	2335.88
975.531	2274.88
975.755	2221.88
975.98	2232.88
976.204	2160.88
976.428	2179.88
976.652	2185.88
976.876	2146.88
977.1	2197.88
977.324	2103.88
977.547	2213.88
977.771	2232.88
977.995	2171.88
978.219	2085.88
978.442	2221.88
978.666	2153.88
978.89	2166.88
979.113	2134.88
979.337	2103.88
979.56	2093.88
979.783	2175.88
980.007	2074.88
980.23	2092.88
980.453	2062.88
980.677	2058.88
980.9	2084.88
981.123	1981.88
981.346	2070.88
981.569	2053.88
981.792	2060.88
982.015	2025.88
982.238	1982.88
982.461	2025.88
982.684	2002.88
982.907	1967.88
983.129	1946.88
983.352	1971.88
983.575	1950.88
983.797	1920.88
984.02	1935.88
984.242	1937.88
984.465	1923.88
984.687	1951.88
984.91	1973.88
985.132	1912.88
985.354	1935.88
985.577	1890.88
985.799	1913.88
986.021	1828.88
986.243	1818.88
986.465	1869.88
986.687	1880.88
986.909	1932.88
987.131	1857.88
987.353	1798.88
987.575	1853.88
987.797	1813.88
988.019	1740.88
988.241	1831.88
988.462	1790.88
988.684	1833.88
988.906	1853.88
989.127	1889.88
989.349	1743.88
989.57	1769.88
989.792	1823.88
990.013	1849.88
990.234	1805.88
990.456	1866.88
990.677	1844.88
990.898	1757.88
991.119	1751.88
991.341	1785.88
991.562	1721.88
991.783	1774.88
992.004	1686.88
992.225	1658.88
992.446	1727.88
992.667	1648.88
992.887	1712.88
993.108	1655.88
993.329	1757.88
993.55	1699.88
993.77	1604.88
993.991	1617.88
994.212	1670.88
994.432	1652.88
994.653	1650.88
994.873	1646.88
995.093	1536.88
995.314	1566.88
995.534	1681.88
995.754	1668.88
995.975	1690.88
996.195	1564.88
996.415	1610.88
996.635	1592.88
996.855	1612.88
997.075	1595.88
997.295	1564.88
997.515	1579.88
997.735	1592.88
997.955	1593.88
998.174	1553.88
998.394	1556.88
998.614	1578.88
998.834	1533.88
999.053	1591.88
999.273	1560.88
999.492	1626.88
999.712	1550.88
999.931	1534.88
1000.151	1563.88
1000.37	1543.88
1000.589	1587.88
1000.809	1517.88
1001.028	1608.88
1001.247	1561.88
1001.466	1458.88
1001.685	1603.88
1001.904	1539.88
1002.123	1510.88
1002.342	1554.88
1002.561	1472.88
1002.78	1540.88
1002.999	1553.88
1003.218	1528.88
1003.436	1507.88
1003.655	1531.88
1003.874	1428.88
1004.092	1469.88
1004.311	1507.88
1004.53	1482.88
1004.748	1555.88
1004.966	1485.88
1005.185	1534.88
1005.403	1529.88
1005.622	1490.88
1005.84	1593.88
1006.058	1452.88
1006.276	1499.88
1006.494	1976.88
1006.712	1470.88
1006.931	1540.88
1007.149	1460.88
1007.367	1462.88
1007.584	1493.88
1007.802	1494.88
1008.02	1469.88
1008.238	1539.88
1008.456	1539.88
1008.673	1418.88
1008.891	1503.88
1009.109	1453.88
1009.326	1544.88
1009.544	1595.88
1009.761	1516.88
1009.979	1557.88
1010.196	1577.88
1010.413	1662.88
1010.631	1680.88
1010.848	1708.88
1011.065	1739.88
1011.282	1660.88
1011.5	1608.88
1011.717	1720.88
1011.934	1669.88
1012.151	1709.88
1012.368	1669.88
1012.585	1604.88
1012.801	1671.88
1013.018	1600.88
1013.235	1628.88
1013.452	1631.88
1013.669	1612.88
1013.885	1609.88
1014.102	1664.88
1014.318	1603.88
1014.535	1586.88
1014.751	1569.88
1014.968	1608.88
1015.184	1626.88
1015.401	1533.88
1015.617	1569.88
1015.833	1529.88
1016.049	1553.88
1016.266	1484.88
1016.482	1531.88
1016.698	1456.88
1016.914	1494.88
1017.13	1453.88
1017.346	1457.88
1017.562	1500.88
1017.778	1461.88
1017.993	1461.88
1018.209	1471.88
1018.425	1459.88
1018.641	1410.88
1018.856	1381.88
1019.072	1431.88
1019.288	1435.88
1019.503	1415.88
1019.719	1354.88
1019.934	1356.88
1020.149	1445.88
1020.365	1388.88
1020.58	1334.88
1020.795	1366.88
1021.011	1305.88
1021.226	1301.88
1021.441	1345.88
1021.656	1242.88
1021.871	1184.88
1022.086	1182.88
1022.301	1183.88
1022.516	1168.88
1022.731	1198.88
1022.946	1153.88
1023.16	1121.88
1023.375	1098.88
1023.59	1093.88
1023.804	1059.88
1024.019	1112.88
1024.234	1015.88
1024.448	1048.88
1024.663	985.88
1024.877	999.88
1025.092	1007.88
1025.306	1028.88
1025.52	908.88
1025.734	1018.88
1025.949	929.88
1026.163	905.88
1026.377	852.88
1026.591	890.88
1026.805	852.88
1027.019	830.88
1027.233	776.88
1027.447	726.88
1027.661	823.88
1027.875	773.88
1028.088	789.88
1028.302	703.88
1028.516	710.88
1028.73	707.88
1028.943	683.88
1029.157	646.88
1029.37	610.88
1029.584	-0.12
1029.797	-2.12
1030.011	-2.12
1030.224	0.88
