Data from QEP037381__458__17-10-37-248.txt Node

Date: Fri Dec 16 17:10:37 EST 2022
User: dcclab
Spectrometer: QEP03738
Trigger mode: 4
Integration Time (sec): 1.000000E1
Scans to average: 1
Electric dark correction enabled: true
Nonlinearity correction enabled: false
Boxcar width: 0
XAxis mode: Wavelengths
Number of Pixels in Spectrum: 1044
>>>>>Begin Spectral Data<<<<<
784.041	11.12
784.3	-0.88
784.558	-3.88
784.817	-1.88
785.075	89258.12
785.334	15474.12
785.592	7366.12
785.851	5077.12
786.109	3815.12
786.368	3006.12
786.626	2442.12
786.884	2049.12
787.143	1691.12
787.401	1389.12
787.659	1264.12
787.917	1080.12
788.175	989.12
788.433	910.12
788.691	799.12
788.949	767.12
789.207	705.12
789.465	632.12
789.723	604.12
789.98	558.12
790.238	587.12
790.496	560.12
790.753	537.12
791.011	572.12
791.268	509.12
791.526	495.12
791.783	526.12
792.041	514.12
792.298	412.12
792.556	492.12
792.813	483.12
793.07	442.12
793.327	424.12
793.584	518.12
793.841	434.12
794.099	455.12
794.356	507.12
794.613	399.12
794.869	446.12
795.126	412.12
795.383	394.12
795.64	416.12
795.897	376.12
796.153	416.12
796.41	429.12
796.667	404.12
796.923	413.12
797.18	409.12
797.436	447.12
797.693	396.12
797.949	465.12
798.206	480.12
798.462	398.12
798.718	446.12
798.974	422.12
799.231	465.12
799.487	475.12
799.743	461.12
799.999	476.12
800.255	473.12
800.511	455.12
800.767	515.12
801.023	496.12
801.279	525.12
801.534	545.12
801.79	587.12
802.046	612.12
802.302	713.12
802.557	795.12
802.813	940.12
803.068	1146.12
803.324	1554.12
803.579	2071.12
803.835	2891.12
804.09	3975.12
804.345	5201.12
804.601	6644.12
804.856	8127.12
805.111	9363.12
805.366	10344.12
805.621	11072.12
805.876	11608.12
806.131	11958.12
806.386	12086.12
806.641	12347.12
806.896	12613.12
807.151	12859.12
807.406	13031.12
807.661	13327.12
807.915	13524.12
808.17	13699.12
808.425	13844.12
808.679	13974.12
808.934	14195.12
809.188	14250.12
809.443	14397.12
809.697	14658.12
809.951	14738.12
810.206	14727.12
810.46	14908.12
810.714	15079.12
810.968	15269.12
811.223	15439.12
811.477	15453.12
811.731	15601.12
811.985	15709.12
812.239	15769.12
812.493	15994.12
812.747	15913.12
813	15926.12
813.254	16013.12
813.508	16106.12
813.762	16111.12
814.015	16221.12
814.269	16432.12
814.522	16534.12
814.776	16706.12
815.03	16909.12
815.283	17209.12
815.536	17456.12
815.79	17703.12
816.043	17978.12
816.296	18199.12
816.55	18447.12
816.803	18538.12
817.056	18910.12
817.309	19078.12
817.562	19206.12
817.815	19473.12
818.068	19582.12
818.321	19737.12
818.574	20048.12
818.827	20272.12
819.079	20492.12
819.332	20961.12
819.585	21099.12
819.838	21330.12
820.09	21428.12
820.343	21565.12
820.595	21665.12
820.848	21868.12
821.1	21949.12
821.353	21926.12
821.605	21904.12
821.857	21891.12
822.11	21789.12
822.362	21761.12
822.614	21709.12
822.866	21791.12
823.118	21567.12
823.37	21774.12
823.622	21900.12
823.874	21971.12
824.126	21975.12
824.378	21885.12
824.63	22168.12
824.882	22079.12
825.134	22095.12
825.385	22196.12
825.637	21949.12
825.888	21749.12
826.14	21789.12
826.392	21831.12
826.643	21685.12
826.895	21567.12
827.146	21448.12
827.397	21411.12
827.649	21482.12
827.9	21360.12
828.151	21422.12
828.402	21409.12
828.653	21451.12
828.905	21581.12
829.156	21503.12
829.407	21535.12
829.658	21500.12
829.909	21627.12
830.159	21493.12
830.41	21554.12
830.661	21342.12
830.912	21222.12
831.162	21102.12
831.413	21124.12
831.664	21178.12
831.914	20966.12
832.165	21036.12
832.415	21096.12
832.666	21073.12
832.916	20959.12
833.167	20944.12
833.417	20919.12
833.667	20838.12
833.917	20715.12
834.168	20799.12
834.418	20722.12
834.668	20587.12
834.918	20488.12
835.168	20459.12
835.418	20351.12
835.668	20285.12
835.918	20286.12
836.167	20196.12
836.417	20085.12
836.667	20092.12
836.917	20048.12
837.166	20007.12
837.416	19990.12
837.666	19965.12
837.915	19925.12
838.165	19962.12
838.414	19805.12
838.663	19707.12
838.913	19724.12
839.162	19696.12
839.411	19646.12
839.661	19539.12
839.91	19607.12
840.159	19361.12
840.408	19571.12
840.657	19551.12
840.906	19455.12
841.155	19509.12
841.404	19374.12
841.653	19482.12
841.902	19416.12
842.15	19441.12
842.399	19535.12
842.648	19443.12
842.897	19342.12
843.145	19198.12
843.394	19068.12
843.642	18934.12
843.891	18997.12
844.139	18818.12
844.388	18687.12
844.636	18598.12
844.884	18629.12
845.133	18428.12
845.381	18488.12
845.629	18509.12
845.877	18469.12
846.125	18450.12
846.373	18412.12
846.621	18325.12
846.869	18251.12
847.117	18195.12
847.365	18060.12
847.613	18032.12
847.861	17888.12
848.108	17873.12
848.356	17839.12
848.604	17739.12
848.851	17827.12
849.099	17849.12
849.346	17890.12
849.594	17924.12
849.841	17969.12
850.089	17942.12
850.336	17984.12
850.583	17901.12
850.831	17758.12
851.078	17789.12
851.325	17626.12
851.572	17888.12
851.819	17660.12
852.066	17282.12
852.313	16985.12
852.56	16916.12
852.807	16766.12
853.054	16722.12
853.301	16733.12
853.548	16751.12
853.794	16860.12
854.041	16882.12
854.288	16999.12
854.534	17116.12
854.781	17008.12
855.028	16938.12
855.274	16951.12
855.52	16791.12
855.767	16777.12
856.013	16731.12
856.26	17035.12
856.506	16615.12
856.752	16589.12
856.998	16475.12
857.244	16597.12
857.49	16664.12
857.736	16738.12
857.982	16675.12
858.228	16623.12
858.474	16418.12
858.72	16368.12
858.966	16195.12
859.212	16094.12
859.458	15895.12
859.703	15793.12
859.949	15496.12
860.195	15533.12
860.44	15424.12
860.686	15301.12
860.931	15395.12
861.177	15152.12
861.422	15105.12
861.667	15103.12
861.913	15045.12
862.158	15071.12
862.403	15189.12
862.648	15191.12
862.893	15193.12
863.138	15161.12
863.384	15042.12
863.629	15030.12
863.873	15021.12
864.118	15069.12
864.363	14918.12
864.608	14884.12
864.853	14787.12
865.098	14696.12
865.342	14645.12
865.587	14570.12
865.832	14553.12
866.076	14503.12
866.321	14458.12
866.565	14433.12
866.81	14383.12
867.054	14336.12
867.298	14274.12
867.543	14218.12
867.787	14266.12
868.031	14140.12
868.275	14238.12
868.519	14077.12
868.764	14105.12
869.008	14026.12
869.252	14124.12
869.496	13922.12
869.739	13983.12
869.983	13980.12
870.227	13937.12
870.471	13962.12
870.715	13978.12
870.958	14039.12
871.202	13971.12
871.446	14052.12
871.689	13985.12
871.933	13979.12
872.176	14010.12
872.42	14049.12
872.663	13846.12
872.906	13902.12
873.15	13760.12
873.393	13752.12
873.636	13661.12
873.879	13683.12
874.122	13391.12
874.366	13283.12
874.609	13108.12
874.852	13048.12
875.095	13101.12
875.337	12894.12
875.58	12877.12
875.823	12838.12
876.066	12745.12
876.309	12785.12
876.551	12687.12
876.794	12567.12
877.037	12669.12
877.279	12542.12
877.522	12495.12
877.764	12546.12
878.007	12521.12
878.249	12527.12
878.491	12483.12
878.734	12444.12
878.976	12472.12
879.218	12273.12
879.46	12256.12
879.702	12139.12
879.945	12069.12
880.187	11880.12
880.429	11958.12
880.671	11838.12
880.912	11821.12
881.154	11848.12
881.396	11638.12
881.638	11653.12
881.88	11647.12
882.121	11516.12
882.363	11601.12
882.605	11533.12
882.846	11604.12
883.088	11543.12
883.329	11498.12
883.571	11468.12
883.812	11630.12
884.053	11699.12
884.295	11835.12
884.536	11913.12
884.777	11985.12
885.018	11897.12
885.259	11823.12
885.5	11687.12
885.742	11854.12
885.982	11713.12
886.223	11556.12
886.464	11494.12
886.705	11440.12
886.946	11338.12
887.187	11190.12
887.428	11042.12
887.668	10853.12
887.909	10781.12
888.15	10620.12
888.39	10678.12
888.631	10535.12
888.871	10408.12
889.111	10367.12
889.352	10313.12
889.592	10221.12
889.833	10065.12
890.073	10077.12
890.313	10042.12
890.553	9897.12
890.793	9903.12
891.033	9792.12
891.273	9818.12
891.513	9788.12
891.753	9750.12
891.993	9670.12
892.233	9803.12
892.473	9817.12
892.713	9756.12
892.952	9661.12
893.192	9680.12
893.432	9743.12
893.671	9721.12
893.911	9624.12
894.15	9635.12
894.39	9496.12
894.629	9433.12
894.869	9351.12
895.108	9387.12
895.347	9350.12
895.587	9343.12
895.826	9255.12
896.065	9214.12
896.304	9264.12
896.543	9232.12
896.782	9228.12
897.021	9195.12
897.26	9085.12
897.499	9175.12
897.738	9169.12
897.977	9074.12
898.216	8962.12
898.454	8918.12
898.693	8788.12
898.932	8876.12
899.17	8782.12
899.409	8750.12
899.647	8680.12
899.886	8671.12
900.124	8716.12
900.363	8642.12
900.601	8775.12
900.839	8745.12
901.078	8679.12
901.316	8798.12
901.554	8778.12
901.792	8804.12
902.03	8806.12
902.268	8780.12
902.506	8780.12
902.744	8758.12
902.982	8686.12
903.22	8547.12
903.458	8382.12
903.695	8367.12
903.933	8204.12
904.171	8010.12
904.409	7965.12
904.646	7856.12
904.884	7794.12
905.121	7653.12
905.359	7620.12
905.596	7511.12
905.833	7401.12
906.071	7414.12
906.308	7400.12
906.545	7342.12
906.783	7321.12
907.02	7327.12
907.257	7292.12
907.494	7220.12
907.731	7232.12
907.968	7223.12
908.205	7174.12
908.442	7067.12
908.679	7089.12
908.915	7003.12
909.152	7015.12
909.389	6877.12
909.626	6836.12
909.862	6812.12
910.099	6781.12
910.335	6728.12
910.572	6655.12
910.808	6653.12
911.045	6662.12
911.281	6568.12
911.518	6650.12
911.754	6508.12
911.99	6544.12
912.226	6479.12
912.463	6399.12
912.699	6383.12
912.935	6367.12
913.171	6302.12
913.407	6205.12
913.643	6245.12
913.879	6166.12
914.114	6036.12
914.35	5996.12
914.586	5964.12
914.822	5907.12
915.057	5947.12
915.293	5759.12
915.529	5817.12
915.764	5804.12
916	5822.12
916.235	5734.12
916.471	5789.12
916.706	5735.12
916.941	5708.12
917.177	5716.12
917.412	5675.12
917.647	5789.12
917.882	5643.12
918.117	5758.12
918.352	5685.12
918.588	5666.12
918.823	5588.12
919.057	5568.12
919.292	5345.12
919.527	5487.12
919.762	5359.12
919.997	5394.12
920.232	5224.12
920.466	5209.12
920.701	5105.12
920.935	5164.12
921.17	5066.12
921.405	5075.12
921.639	5116.12
921.873	5007.12
922.108	5082.12
922.342	5009.12
922.576	4951.12
922.811	4943.12
923.045	4984.12
923.279	4978.12
923.513	4864.12
923.747	4861.12
923.981	4829.12
924.215	4811.12
924.449	4778.12
924.683	4715.12
924.917	4754.12
925.151	4687.12
925.385	4769.12
925.618	4698.12
925.852	4702.12
926.086	4614.12
926.319	4635.12
926.553	4624.12
926.786	4626.12
927.02	4641.12
927.253	4596.12
927.486	4635.12
927.72	4556.12
927.953	4662.12
928.186	4508.12
928.42	4543.12
928.653	4486.12
928.886	4460.12
929.119	4518.12
929.352	4424.12
929.585	4456.12
929.818	4388.12
930.051	4361.12
930.284	4356.12
930.516	4249.12
930.749	4226.12
930.982	4248.12
931.215	4245.12
931.447	4151.12
931.68	4157.12
931.912	4157.12
932.145	4167.12
932.377	4207.12
932.61	4295.12
932.842	4151.12
933.074	4127.12
933.307	4109.12
933.539	4165.12
933.771	4193.12
934.003	4090.12
934.236	4171.12
934.468	4190.12
934.7	4069.12
934.932	4123.12
935.164	4055.12
935.395	4016.12
935.627	4038.12
935.859	4069.12
936.091	4015.12
936.323	4036.12
936.554	4004.12
936.786	3974.12
937.017	3887.12
937.249	3993.12
937.481	3868.12
937.712	3946.12
937.943	3898.12
938.175	3855.12
938.406	3859.12
938.637	3970.12
938.869	3791.12
939.1	3870.12
939.331	3818.12
939.562	3915.12
939.793	3848.12
940.024	3853.12
940.255	3842.12
940.486	3802.12
940.717	3743.12
940.948	3742.12
941.179	3682.12
941.409	3708.12
941.64	3643.12
941.871	3697.12
942.102	3695.12
942.332	3699.12
942.563	3691.12
942.793	3655.12
943.024	3613.12
943.254	3649.12
943.484	3741.12
943.715	3752.12
943.945	3679.12
944.175	3610.12
944.405	3586.12
944.636	3571.12
944.866	3645.12
945.096	3607.12
945.326	3525.12
945.556	3612.12
945.786	3603.12
946.016	3556.12
946.245	3524.12
946.475	3453.12
946.705	3480.12
946.935	3476.12
947.164	3468.12
947.394	3392.12
947.624	3406.12
947.853	3429.12
948.083	3396.12
948.312	3372.12
948.542	3315.12
948.771	3290.12
949	3261.12
949.23	3283.12
949.459	3309.12
949.688	3385.12
949.917	3339.12
950.146	3297.12
950.375	3371.12
950.604	3257.12
950.833	3356.12
951.062	3333.12
951.291	3288.12
951.52	3210.12
951.749	3221.12
951.978	3225.12
952.206	3192.12
952.435	3159.12
952.664	3215.12
952.892	3260.12
953.121	3159.12
953.349	3208.12
953.578	3177.12
953.806	3145.12
954.035	3074.12
954.263	3095.12
954.491	3047.12
954.719	3103.12
954.948	3025.12
955.176	3039.12
955.404	2967.12
955.632	3049.12
955.86	3051.12
956.088	3009.12
956.316	3022.12
956.544	3041.12
956.772	2953.12
956.999	2928.12
957.227	2992.12
957.455	2868.12
957.683	2932.12
957.91	2863.12
958.138	2873.12
958.365	2830.12
958.593	2838.12
958.82	2800.12
959.048	2870.12
959.275	2822.12
959.502	2802.12
959.73	2788.12
959.957	2792.12
960.184	2832.12
960.411	2777.12
960.638	2838.12
960.865	2751.12
961.092	2831.12
961.319	2669.12
961.546	2789.12
961.773	2801.12
962	2701.12
962.227	2795.12
962.454	2722.12
962.68	2734.12
962.907	2733.12
963.134	2707.12
963.36	2700.12
963.587	2697.12
963.813	2614.12
964.04	2653.12
964.266	2602.12
964.493	2715.12
964.719	2618.12
964.945	2638.12
965.171	2533.12
965.398	2547.12
965.624	2608.12
965.85	2491.12
966.076	2526.12
966.302	2576.12
966.528	2483.12
966.754	2518.12
966.98	2500.12
967.206	2494.12
967.431	2423.12
967.657	2505.12
967.883	2471.12
968.109	2508.12
968.334	2451.12
968.56	2410.12
968.785	2433.12
969.011	2409.12
969.236	2461.12
969.462	2354.12
969.687	2405.12
969.912	2441.12
970.138	2469.12
970.363	2365.12
970.588	2362.12
970.813	2356.12
971.038	2327.12
971.263	2373.12
971.488	2354.12
971.713	2383.12
971.938	2347.12
972.163	2242.12
972.388	2260.12
972.613	2243.12
972.838	2263.12
973.062	2288.12
973.287	2270.12
973.512	2216.12
973.736	2220.12
973.961	2203.12
974.185	2182.12
974.41	2213.12
974.634	2151.12
974.858	2166.12
975.083	2183.12
975.307	2218.12
975.531	2114.12
975.755	2076.12
975.98	2081.12
976.204	2065.12
976.428	2035.12
976.652	2048.12
976.876	2012.12
977.1	2042.12
977.324	1992.12
977.547	2081.12
977.771	2060.12
977.995	2021.12
978.219	1917.12
978.442	2073.12
978.666	2005.12
978.89	1996.12
979.113	2018.12
979.337	1962.12
979.56	1979.12
979.783	2029.12
980.007	1934.12
980.23	1966.12
980.453	1935.12
980.677	1948.12
980.9	1935.12
981.123	1884.12
981.346	1940.12
981.569	1903.12
981.792	1936.12
982.015	1909.12
982.238	1867.12
982.461	1879.12
982.684	1861.12
982.907	1846.12
983.129	1832.12
983.352	1856.12
983.575	1827.12
983.797	1853.12
984.02	1809.12
984.242	1799.12
984.465	1797.12
984.687	1826.12
984.91	1863.12
985.132	1809.12
985.354	1821.12
985.577	1815.12
985.799	1762.12
986.021	1721.12
986.243	1689.12
986.465	1747.12
986.687	1814.12
986.909	1812.12
987.131	1747.12
987.353	1718.12
987.575	1741.12
987.797	1734.12
988.019	1656.12
988.241	1707.12
988.462	1671.12
988.684	1741.12
988.906	1740.12
989.127	1788.12
989.349	1681.12
989.57	1671.12
989.792	1721.12
990.013	1747.12
990.234	1746.12
990.456	1753.12
990.677	1722.12
990.898	1682.12
991.119	1678.12
991.341	1693.12
991.562	1641.12
991.783	1678.12
992.004	1586.12
992.225	1571.12
992.446	1631.12
992.667	1531.12
992.887	1615.12
993.108	1547.12
993.329	1639.12
993.55	1586.12
993.77	1505.12
993.991	1539.12
994.212	1595.12
994.432	1541.12
994.653	1570.12
994.873	1554.12
995.093	1458.12
995.314	1504.12
995.534	1548.12
995.754	1599.12
995.975	1586.12
996.195	1478.12
996.415	1530.12
996.635	1502.12
996.855	1576.12
997.075	1512.12
997.295	1475.12
997.515	1483.12
997.735	1540.12
997.955	1513.12
998.174	1489.12
998.394	1448.12
998.614	1530.12
998.834	1470.12
999.053	1540.12
999.273	1525.12
999.492	1559.12
999.712	1458.12
999.931	1436.12
1000.151	1471.12
1000.37	1486.12
1000.589	1540.12
1000.809	1455.12
1001.028	1556.12
1001.247	1487.12
1001.466	1383.12
1001.685	1535.12
1001.904	1486.12
1002.123	1472.12
1002.342	1476.12
1002.561	1398.12
1002.78	1427.12
1002.999	1500.12
1003.218	1434.12
1003.436	1397.12
1003.655	1477.12
1003.874	1404.12
1004.092	1434.12
1004.311	1495.12
1004.53	1443.12
1004.748	1484.12
1004.966	1423.12
1005.185	1464.12
1005.403	1454.12
1005.622	1423.12
1005.84	1537.12
1006.058	1406.12
1006.276	1459.12
1006.494	1922.12
1006.712	1431.12
1006.931	1471.12
1007.149	1391.12
1007.367	1401.12
1007.584	1428.12
1007.802	1453.12
1008.02	1412.12
1008.238	1494.12
1008.456	1488.12
1008.673	1338.12
1008.891	1471.12
1009.109	1418.12
1009.326	1477.12
1009.544	1556.12
1009.761	1426.12
1009.979	1544.12
1010.196	1549.12
1010.413	1627.12
1010.631	1662.12
1010.848	1684.12
1011.065	1699.12
1011.282	1599.12
1011.5	1569.12
1011.717	1698.12
1011.934	1616.12
1012.151	1679.12
1012.368	1637.12
1012.585	1607.12
1012.801	1642.12
1013.018	1621.12
1013.235	1561.12
1013.452	1605.12
1013.669	1584.12
1013.885	1556.12
1014.102	1604.12
1014.318	1581.12
1014.535	1555.12
1014.751	1572.12
1014.968	1558.12
1015.184	1605.12
1015.401	1523.12
1015.617	1571.12
1015.833	1500.12
1016.049	1516.12
1016.266	1486.12
1016.482	1479.12
1016.698	1423.12
1016.914	1487.12
1017.13	1424.12
1017.346	1441.12
1017.562	1505.12
1017.778	1429.12
1017.993	1381.12
1018.209	1463.12
1018.425	1417.12
1018.641	1389.12
1018.856	1368.12
1019.072	1383.12
1019.288	1444.12
1019.503	1406.12
1019.719	1343.12
1019.934	1359.12
1020.149	1453.12
1020.365	1369.12
1020.58	1320.12
1020.795	1350.12
1021.011	1296.12
1021.226	1269.12
1021.441	1313.12
1021.656	1188.12
1021.871	1168.12
1022.086	1152.12
1022.301	1178.12
1022.516	1148.12
1022.731	1179.12
1022.946	1094.12
1023.16	1099.12
1023.375	1073.12
1023.59	1082.12
1023.804	1028.12
1024.019	1124.12
1024.234	1000.12
1024.448	1034.12
1024.663	951.12
1024.877	962.12
1025.092	979.12
1025.306	995.12
1025.52	889.12
1025.734	978.12
1025.949	913.12
1026.163	882.12
1026.377	813.12
1026.591	882.12
1026.805	792.12
1027.019	808.12
1027.233	755.12
1027.447	716.12
1027.661	817.12
1027.875	748.12
1028.088	762.12
1028.302	689.12
1028.516	686.12
1028.73	695.12
1028.943	669.12
1029.157	624.12
1029.37	591.12
1029.584	-0.88
1029.797	0.12
1030.011	-2.88
1030.224	-0.88
