Data from QEP037381__463__17-11-27-251.txt Node

Date: Fri Dec 16 17:11:27 EST 2022
User: dcclab
Spectrometer: QEP03738
Trigger mode: 4
Integration Time (sec): 1.000000E1
Scans to average: 1
Electric dark correction enabled: true
Nonlinearity correction enabled: false
Boxcar width: 0
XAxis mode: Wavelengths
Number of Pixels in Spectrum: 1044
>>>>>Begin Spectral Data<<<<<
784.041	12.12
784.3	-3.88
784.558	-1.88
784.817	-2.88
785.075	92279.12
785.334	15745.12
785.592	7312.12
785.851	5056.12
786.109	3793.12
786.368	2998.12
786.626	2426.12
786.884	1985.12
787.143	1686.12
787.401	1410.12
787.659	1275.12
787.917	1067.12
788.175	1005.12
788.433	897.12
788.691	800.12
788.949	751.12
789.207	719.12
789.465	618.12
789.723	622.12
789.98	552.12
790.238	589.12
790.496	561.12
790.753	523.12
791.011	584.12
791.268	512.12
791.526	495.12
791.783	500.12
792.041	510.12
792.298	419.12
792.556	490.12
792.813	471.12
793.07	441.12
793.327	430.12
793.584	510.12
793.841	436.12
794.099	458.12
794.356	511.12
794.613	412.12
794.869	459.12
795.126	413.12
795.383	395.12
795.64	423.12
795.897	381.12
796.153	440.12
796.41	407.12
796.667	394.12
796.923	414.12
797.18	411.12
797.436	439.12
797.693	409.12
797.949	442.12
798.206	470.12
798.462	386.12
798.718	466.12
798.974	429.12
799.231	479.12
799.487	452.12
799.743	462.12
799.999	476.12
800.255	483.12
800.511	460.12
800.767	519.12
801.023	486.12
801.279	534.12
801.534	545.12
801.79	580.12
802.046	617.12
802.302	715.12
802.557	781.12
802.813	970.12
803.068	1166.12
803.324	1586.12
803.579	2138.12
803.835	2934.12
804.09	4070.12
804.345	5216.12
804.601	6704.12
804.856	8138.12
805.111	9462.12
805.366	10394.12
805.621	11157.12
805.876	11710.12
806.131	12069.12
806.386	12274.12
806.641	12488.12
806.896	12696.12
807.151	12973.12
807.406	13135.12
807.661	13448.12
807.915	13671.12
808.17	13895.12
808.425	14043.12
808.679	14136.12
808.934	14311.12
809.188	14471.12
809.443	14675.12
809.697	14834.12
809.951	14952.12
810.206	15044.12
810.46	15270.12
810.714	15312.12
810.968	15442.12
811.223	15531.12
811.477	15710.12
811.731	15861.12
811.985	15832.12
812.239	15907.12
812.493	16041.12
812.747	16155.12
813	16080.12
813.254	16323.12
813.508	16337.12
813.762	16427.12
814.015	16475.12
814.269	16707.12
814.522	16783.12
814.776	16935.12
815.03	17218.12
815.283	17395.12
815.536	17830.12
815.79	18018.12
816.043	18184.12
816.296	18443.12
816.55	18699.12
816.803	18937.12
817.056	19192.12
817.309	19316.12
817.562	19480.12
817.815	19737.12
818.068	19945.12
818.321	20113.12
818.574	20354.12
818.827	20575.12
819.079	20910.12
819.332	21277.12
819.585	21494.12
819.838	21708.12
820.09	21892.12
820.343	22012.12
820.595	22104.12
820.848	22380.12
821.1	22378.12
821.353	22441.12
821.605	22340.12
821.857	22455.12
822.11	22154.12
822.362	22200.12
822.614	22212.12
822.866	22207.12
823.118	22184.12
823.37	22300.12
823.622	22267.12
823.874	22321.12
824.126	22454.12
824.378	22303.12
824.63	22479.12
824.882	22619.12
825.134	22550.12
825.385	22555.12
825.637	22486.12
825.888	22374.12
826.14	22229.12
826.392	22251.12
826.643	22092.12
826.895	22041.12
827.146	21992.12
827.397	21860.12
827.649	21858.12
827.9	21925.12
828.151	21850.12
828.402	21839.12
828.653	21995.12
828.905	22079.12
829.156	22114.12
829.407	21995.12
829.658	22074.12
829.909	22082.12
830.159	22117.12
830.41	21966.12
830.661	21820.12
830.912	21755.12
831.162	21597.12
831.413	21522.12
831.664	21487.12
831.914	21508.12
832.165	21573.12
832.415	21606.12
832.666	21577.12
832.916	21433.12
833.167	21489.12
833.417	21468.12
833.667	21422.12
833.917	21236.12
834.168	21313.12
834.418	21285.12
834.668	21138.12
834.918	21034.12
835.168	20952.12
835.418	20894.12
835.668	20844.12
835.918	20881.12
836.167	20772.12
836.417	20735.12
836.667	20668.12
836.917	20643.12
837.166	20585.12
837.416	20520.12
837.666	20559.12
837.915	20486.12
838.165	20497.12
838.414	20393.12
838.663	20273.12
838.913	20350.12
839.162	20302.12
839.411	20202.12
839.661	20071.12
839.91	19966.12
840.159	20038.12
840.408	20044.12
840.657	20015.12
840.906	20010.12
841.155	20109.12
841.404	20017.12
841.653	20048.12
841.902	19955.12
842.15	20137.12
842.399	20064.12
842.648	19981.12
842.897	19927.12
843.145	19751.12
843.394	19604.12
843.642	19613.12
843.891	19472.12
844.139	19492.12
844.388	19308.12
844.636	19108.12
844.884	19242.12
845.133	19079.12
845.381	19119.12
845.629	19176.12
845.877	18997.12
846.125	19078.12
846.373	19059.12
846.621	18957.12
846.869	18857.12
847.117	18799.12
847.365	18628.12
847.613	18521.12
847.861	18489.12
848.108	18587.12
848.356	18349.12
848.604	18278.12
848.851	18368.12
849.099	18430.12
849.346	18508.12
849.594	18586.12
849.841	18659.12
850.089	18591.12
850.336	18591.12
850.583	18547.12
850.831	18509.12
851.078	18437.12
851.325	18370.12
851.572	18537.12
851.819	18293.12
852.066	17921.12
852.313	17626.12
852.56	17523.12
852.807	17415.12
853.054	17352.12
853.301	17336.12
853.548	17440.12
853.794	17583.12
854.041	17553.12
854.288	17548.12
854.534	17775.12
854.781	17602.12
855.028	17615.12
855.274	17628.12
855.52	17380.12
855.767	17255.12
856.013	17368.12
856.26	17663.12
856.506	17232.12
856.752	17122.12
856.998	17199.12
857.244	17209.12
857.49	17400.12
857.736	17421.12
857.982	17305.12
858.228	17241.12
858.474	17103.12
858.72	16979.12
858.966	16839.12
859.212	16731.12
859.458	16474.12
859.703	16360.12
859.949	16166.12
860.195	16177.12
860.44	15981.12
860.686	15931.12
860.931	15868.12
861.177	15760.12
861.422	15724.12
861.667	15716.12
861.913	15662.12
862.158	15711.12
862.403	15774.12
862.648	15815.12
862.893	15885.12
863.138	15758.12
863.384	15722.12
863.629	15677.12
863.873	15688.12
864.118	15688.12
864.363	15600.12
864.608	15519.12
864.853	15460.12
865.098	15384.12
865.342	15320.12
865.587	15236.12
865.832	15243.12
866.076	15109.12
866.321	15144.12
866.565	15070.12
866.81	14949.12
867.054	14926.12
867.298	14928.12
867.543	14869.12
867.787	14791.12
868.031	14925.12
868.275	14851.12
868.519	14799.12
868.764	14781.12
869.008	14654.12
869.252	14730.12
869.496	14621.12
869.739	14633.12
869.983	14537.12
870.227	14570.12
870.471	14579.12
870.715	14583.12
870.958	14659.12
871.202	14634.12
871.446	14629.12
871.689	14621.12
871.933	14638.12
872.176	14533.12
872.42	14552.12
872.663	14551.12
872.906	14485.12
873.15	14393.12
873.393	14414.12
873.636	14408.12
873.879	14274.12
874.122	14024.12
874.366	13921.12
874.609	13831.12
874.852	13596.12
875.095	13644.12
875.337	13515.12
875.58	13487.12
875.823	13392.12
876.066	13440.12
876.309	13445.12
876.551	13250.12
876.794	13188.12
877.037	13221.12
877.279	13100.12
877.522	13171.12
877.764	13128.12
878.007	13058.12
878.249	13111.12
878.491	13017.12
878.734	12995.12
878.976	12973.12
879.218	12821.12
879.46	12837.12
879.702	12729.12
879.945	12650.12
880.187	12511.12
880.429	12496.12
880.671	12417.12
880.912	12336.12
881.154	12344.12
881.396	12163.12
881.638	12283.12
881.88	12214.12
882.121	12193.12
882.363	12222.12
882.605	12262.12
882.846	12243.12
883.088	12131.12
883.329	12013.12
883.571	12068.12
883.812	12157.12
884.053	12310.12
884.295	12444.12
884.536	12539.12
884.777	12497.12
885.018	12449.12
885.259	12362.12
885.5	12344.12
885.742	12495.12
885.982	12230.12
886.223	12121.12
886.464	12111.12
886.705	11968.12
886.946	11855.12
887.187	11674.12
887.428	11620.12
887.668	11486.12
887.909	11253.12
888.15	11203.12
888.39	11122.12
888.631	11132.12
888.871	11008.12
889.111	10933.12
889.352	10814.12
889.592	10720.12
889.833	10664.12
890.073	10583.12
890.313	10616.12
890.553	10371.12
890.793	10412.12
891.033	10308.12
891.273	10339.12
891.513	10257.12
891.753	10236.12
891.993	10279.12
892.233	10247.12
892.473	10426.12
892.713	10276.12
892.952	10289.12
893.192	10330.12
893.432	10275.12
893.671	10245.12
893.911	10208.12
894.15	10064.12
894.39	10045.12
894.629	9953.12
894.869	9923.12
895.108	9870.12
895.347	9824.12
895.587	9844.12
895.826	9776.12
896.065	9719.12
896.304	9832.12
896.543	9807.12
896.782	9624.12
897.021	9659.12
897.26	9659.12
897.499	9733.12
897.738	9662.12
897.977	9598.12
898.216	9503.12
898.454	9396.12
898.693	9251.12
898.932	9329.12
899.17	9231.12
899.409	9239.12
899.647	9215.12
899.886	9159.12
900.124	9246.12
900.363	9159.12
900.601	9297.12
900.839	9185.12
901.078	9290.12
901.316	9319.12
901.554	9254.12
901.792	9343.12
902.03	9236.12
902.268	9354.12
902.506	9284.12
902.744	9235.12
902.982	9194.12
903.22	9035.12
903.458	8919.12
903.695	8825.12
903.933	8706.12
904.171	8585.12
904.409	8385.12
904.646	8322.12
904.884	8216.12
905.121	8205.12
905.359	8052.12
905.596	7964.12
905.833	7829.12
906.071	7806.12
906.308	7877.12
906.545	7831.12
906.783	7750.12
907.02	7854.12
907.257	7701.12
907.494	7764.12
907.731	7668.12
907.968	7716.12
908.205	7611.12
908.442	7512.12
908.679	7521.12
908.915	7459.12
909.152	7394.12
909.389	7320.12
909.626	7256.12
909.862	7168.12
910.099	7148.12
910.335	7205.12
910.572	7037.12
910.808	7125.12
911.045	7073.12
911.281	7009.12
911.518	7014.12
911.754	6919.12
911.99	6995.12
912.226	6889.12
912.463	6803.12
912.699	6730.12
912.935	6718.12
913.171	6671.12
913.407	6617.12
913.643	6607.12
913.879	6524.12
914.114	6434.12
914.35	6372.12
914.586	6371.12
914.822	6269.12
915.057	6348.12
915.293	6201.12
915.529	6159.12
915.764	6244.12
916	6171.12
916.235	6094.12
916.471	6172.12
916.706	6073.12
916.941	6085.12
917.177	6066.12
917.412	6081.12
917.647	6127.12
917.882	6001.12
918.117	6062.12
918.352	6047.12
918.588	6083.12
918.823	5982.12
919.057	5884.12
919.292	5751.12
919.527	5856.12
919.762	5682.12
919.997	5691.12
920.232	5565.12
920.466	5593.12
920.701	5446.12
920.935	5465.12
921.17	5424.12
921.405	5326.12
921.639	5433.12
921.873	5388.12
922.108	5331.12
922.342	5370.12
922.576	5305.12
922.811	5249.12
923.045	5258.12
923.279	5290.12
923.513	5170.12
923.747	5208.12
923.981	5148.12
924.215	5029.12
924.449	5095.12
924.683	5044.12
924.917	5050.12
925.151	4996.12
925.385	5028.12
925.618	4971.12
925.852	4975.12
926.086	4865.12
926.319	4950.12
926.553	4934.12
926.786	4968.12
927.02	4879.12
927.253	4904.12
927.486	4960.12
927.72	4845.12
927.953	4875.12
928.186	4844.12
928.42	4836.12
928.653	4798.12
928.886	4774.12
929.119	4825.12
929.352	4720.12
929.585	4733.12
929.818	4696.12
930.051	4688.12
930.284	4656.12
930.516	4497.12
930.749	4517.12
930.982	4592.12
931.215	4567.12
931.447	4474.12
931.68	4421.12
931.912	4441.12
932.145	4462.12
932.377	4449.12
932.61	4556.12
932.842	4347.12
933.074	4429.12
933.307	4380.12
933.539	4431.12
933.771	4475.12
934.003	4344.12
934.236	4463.12
934.468	4429.12
934.7	4409.12
934.932	4428.12
935.164	4360.12
935.395	4285.12
935.627	4337.12
935.859	4330.12
936.091	4255.12
936.323	4241.12
936.554	4346.12
936.786	4260.12
937.017	4184.12
937.249	4183.12
937.481	4126.12
937.712	4235.12
937.943	4208.12
938.175	4161.12
938.406	4152.12
938.637	4209.12
938.869	4104.12
939.1	4125.12
939.331	4117.12
939.562	4088.12
939.793	4094.12
940.024	4088.12
940.255	4098.12
940.486	4024.12
940.717	4023.12
940.948	4009.12
941.179	3899.12
941.409	4015.12
941.64	3971.12
941.871	3971.12
942.102	3956.12
942.332	3945.12
942.563	4006.12
942.793	3901.12
943.024	3880.12
943.254	3900.12
943.484	3956.12
943.715	3990.12
943.945	3929.12
944.175	3844.12
944.405	3848.12
944.636	3846.12
944.866	3917.12
945.096	3879.12
945.326	3834.12
945.556	3877.12
945.786	3879.12
946.016	3787.12
946.245	3770.12
946.475	3726.12
946.705	3699.12
946.935	3727.12
947.164	3705.12
947.394	3641.12
947.624	3656.12
947.853	3663.12
948.083	3659.12
948.312	3582.12
948.542	3556.12
948.771	3539.12
949	3546.12
949.23	3543.12
949.459	3520.12
949.688	3578.12
949.917	3565.12
950.146	3553.12
950.375	3600.12
950.604	3511.12
950.833	3564.12
951.062	3543.12
951.291	3493.12
951.52	3475.12
951.749	3487.12
951.978	3416.12
952.206	3397.12
952.435	3414.12
952.664	3484.12
952.892	3429.12
953.121	3437.12
953.349	3450.12
953.578	3391.12
953.806	3361.12
954.035	3313.12
954.263	3335.12
954.491	3300.12
954.719	3348.12
954.948	3279.12
955.176	3232.12
955.404	3204.12
955.632	3230.12
955.86	3215.12
956.088	3219.12
956.316	3275.12
956.544	3211.12
956.772	3129.12
956.999	3132.12
957.227	3177.12
957.455	3099.12
957.683	3127.12
957.91	3080.12
958.138	3019.12
958.365	3037.12
958.593	3039.12
958.82	2992.12
959.048	3053.12
959.275	3006.12
959.502	2975.12
959.73	2952.12
959.957	3005.12
960.184	2978.12
960.411	2933.12
960.638	2999.12
960.865	2959.12
961.092	3008.12
961.319	2901.12
961.546	2977.12
961.773	2960.12
962	2923.12
962.227	2962.12
962.454	2934.12
962.68	2949.12
962.907	2943.12
963.134	2837.12
963.36	2855.12
963.587	2908.12
963.813	2792.12
964.04	2866.12
964.266	2782.12
964.493	2863.12
964.719	2801.12
964.945	2779.12
965.171	2673.12
965.398	2774.12
965.624	2766.12
965.85	2714.12
966.076	2683.12
966.302	2719.12
966.528	2658.12
966.754	2691.12
966.98	2690.12
967.206	2629.12
967.431	2628.12
967.657	2704.12
967.883	2679.12
968.109	2588.12
968.334	2582.12
968.56	2575.12
968.785	2594.12
969.011	2503.12
969.236	2606.12
969.462	2570.12
969.687	2580.12
969.912	2570.12
970.138	2600.12
970.363	2513.12
970.588	2544.12
970.813	2519.12
971.038	2478.12
971.263	2516.12
971.488	2514.12
971.713	2527.12
971.938	2520.12
972.163	2431.12
972.388	2401.12
972.613	2447.12
972.838	2456.12
973.062	2438.12
973.287	2408.12
973.512	2317.12
973.736	2409.12
973.961	2370.12
974.185	2331.12
974.41	2382.12
974.634	2292.12
974.858	2309.12
975.083	2300.12
975.307	2324.12
975.531	2266.12
975.755	2212.12
975.98	2271.12
976.204	2163.12
976.428	2158.12
976.652	2181.12
976.876	2159.12
977.1	2202.12
977.324	2139.12
977.547	2220.12
977.771	2185.12
977.995	2136.12
978.219	2113.12
978.442	2223.12
978.666	2124.12
978.89	2161.12
979.113	2144.12
979.337	2119.12
979.56	2069.12
979.783	2176.12
980.007	2026.12
980.23	2079.12
980.453	2079.12
980.677	2072.12
980.9	2069.12
981.123	2000.12
981.346	2070.12
981.569	2073.12
981.792	2073.12
982.015	2017.12
982.238	1997.12
982.461	2014.12
982.684	1953.12
982.907	1959.12
983.129	1943.12
983.352	1989.12
983.575	2002.12
983.797	1972.12
984.02	1938.12
984.242	1905.12
984.465	1884.12
984.687	1969.12
984.91	1944.12
985.132	1936.12
985.354	1939.12
985.577	1914.12
985.799	1898.12
986.021	1821.12
986.243	1849.12
986.465	1861.12
986.687	1932.12
986.909	1935.12
987.131	1850.12
987.353	1820.12
987.575	1866.12
987.797	1799.12
988.019	1757.12
988.241	1842.12
988.462	1768.12
988.684	1848.12
988.906	1883.12
989.127	1885.12
989.349	1742.12
989.57	1803.12
989.792	1839.12
990.013	1833.12
990.234	1820.12
990.456	1836.12
990.677	1829.12
990.898	1747.12
991.119	1780.12
991.341	1798.12
991.562	1740.12
991.783	1775.12
992.004	1706.12
992.225	1687.12
992.446	1749.12
992.667	1635.12
992.887	1712.12
993.108	1622.12
993.329	1751.12
993.55	1686.12
993.77	1639.12
993.991	1640.12
994.212	1682.12
994.432	1648.12
994.653	1668.12
994.873	1684.12
995.093	1526.12
995.314	1595.12
995.534	1641.12
995.754	1669.12
995.975	1698.12
996.195	1552.12
996.415	1606.12
996.635	1596.12
996.855	1632.12
997.075	1546.12
997.295	1598.12
997.515	1577.12
997.735	1602.12
997.955	1589.12
998.174	1565.12
998.394	1557.12
998.614	1612.12
998.834	1546.12
999.053	1586.12
999.273	1568.12
999.492	1633.12
999.712	1586.12
999.931	1515.12
1000.151	1570.12
1000.37	1532.12
1000.589	1597.12
1000.809	1562.12
1001.028	1635.12
1001.247	1573.12
1001.466	1460.12
1001.685	1598.12
1001.904	1545.12
1002.123	1517.12
1002.342	1530.12
1002.561	1506.12
1002.78	1518.12
1002.999	1557.12
1003.218	1526.12
1003.436	1492.12
1003.655	1515.12
1003.874	1469.12
1004.092	1489.12
1004.311	1535.12
1004.53	1488.12
1004.748	1565.12
1004.966	1469.12
1005.185	1552.12
1005.403	1544.12
1005.622	1496.12
1005.84	1565.12
1006.058	1449.12
1006.276	1490.12
1006.494	1952.12
1006.712	1503.12
1006.931	1530.12
1007.149	1456.12
1007.367	1480.12
1007.584	1487.12
1007.802	1525.12
1008.02	1492.12
1008.238	1555.12
1008.456	1553.12
1008.673	1421.12
1008.891	1536.12
1009.109	1502.12
1009.326	1530.12
1009.544	1622.12
1009.761	1507.12
1009.979	1610.12
1010.196	1585.12
1010.413	1708.12
1010.631	1700.12
1010.848	1783.12
1011.065	1767.12
1011.282	1690.12
1011.5	1630.12
1011.717	1745.12
1011.934	1700.12
1012.151	1725.12
1012.368	1698.12
1012.585	1669.12
1012.801	1697.12
1013.018	1678.12
1013.235	1622.12
1013.452	1646.12
1013.669	1665.12
1013.885	1651.12
1014.102	1691.12
1014.318	1631.12
1014.535	1608.12
1014.751	1597.12
1014.968	1636.12
1015.184	1665.12
1015.401	1579.12
1015.617	1588.12
1015.833	1554.12
1016.049	1573.12
1016.266	1532.12
1016.482	1547.12
1016.698	1493.12
1016.914	1535.12
1017.13	1489.12
1017.346	1481.12
1017.562	1556.12
1017.778	1463.12
1017.993	1433.12
1018.209	1519.12
1018.425	1482.12
1018.641	1452.12
1018.856	1419.12
1019.072	1428.12
1019.288	1506.12
1019.503	1459.12
1019.719	1367.12
1019.934	1402.12
1020.149	1474.12
1020.365	1383.12
1020.58	1355.12
1020.795	1419.12
1021.011	1346.12
1021.226	1292.12
1021.441	1329.12
1021.656	1261.12
1021.871	1208.12
1022.086	1206.12
1022.301	1190.12
1022.516	1193.12
1022.731	1242.12
1022.946	1156.12
1023.16	1152.12
1023.375	1143.12
1023.59	1106.12
1023.804	1038.12
1024.019	1162.12
1024.234	1024.12
1024.448	1074.12
1024.663	979.12
1024.877	1021.12
1025.092	1017.12
1025.306	1023.12
1025.52	919.12
1025.734	1009.12
1025.949	935.12
1026.163	933.12
1026.377	874.12
1026.591	895.12
1026.805	841.12
1027.019	822.12
1027.233	803.12
1027.447	748.12
1027.661	831.12
1027.875	785.12
1028.088	797.12
1028.302	727.12
1028.516	707.12
1028.73	713.12
1028.943	702.12
1029.157	657.12
1029.37	608.12
1029.584	-0.88
1029.797	-0.88
1030.011	-1.88
1030.224	0.12
