Data from QEP037381__470__17-12-37-251.txt Node

Date: Fri Dec 16 17:12:37 EST 2022
User: dcclab
Spectrometer: QEP03738
Trigger mode: 4
Integration Time (sec): 1.000000E1
Scans to average: 1
Electric dark correction enabled: true
Nonlinearity correction enabled: false
Boxcar width: 0
XAxis mode: Wavelengths
Number of Pixels in Spectrum: 1044
>>>>>Begin Spectral Data<<<<<
784.041	14.38
784.3	2.38
784.558	-2.62
784.817	-5.62
785.075	92132.38
785.334	15653.38
785.592	7301.38
785.851	5016.38
786.109	3737.38
786.368	2959.38
786.626	2386.38
786.884	2018.38
787.143	1673.38
787.401	1390.38
787.659	1274.38
787.917	1094.38
788.175	1009.38
788.433	893.38
788.691	809.38
788.949	763.38
789.207	725.38
789.465	641.38
789.723	621.38
789.98	562.38
790.238	607.38
790.496	572.38
790.753	541.38
791.011	580.38
791.268	535.38
791.526	509.38
791.783	522.38
792.041	529.38
792.298	420.38
792.556	507.38
792.813	491.38
793.07	448.38
793.327	449.38
793.584	513.38
793.841	448.38
794.099	473.38
794.356	511.38
794.613	437.38
794.869	478.38
795.126	432.38
795.383	421.38
795.64	439.38
795.897	394.38
796.153	453.38
796.41	447.38
796.667	421.38
796.923	433.38
797.18	447.38
797.436	452.38
797.693	427.38
797.949	475.38
798.206	503.38
798.462	421.38
798.718	479.38
798.974	463.38
799.231	502.38
799.487	492.38
799.743	513.38
799.999	527.38
800.255	524.38
800.511	522.38
800.767	566.38
801.023	557.38
801.279	600.38
801.534	638.38
801.79	692.38
802.046	723.38
802.302	876.38
802.557	975.38
802.813	1207.38
803.068	1498.38
803.324	2051.38
803.579	2865.38
803.835	4014.38
804.09	5605.38
804.345	7530.38
804.601	9742.38
804.856	11999.38
805.111	14030.38
805.366	15679.38
805.621	16943.38
805.876	17720.38
806.131	18270.38
806.386	18544.38
806.641	18985.38
806.896	19335.38
807.151	19726.38
807.406	19958.38
807.661	20476.38
807.915	20846.38
808.17	21257.38
808.425	21333.38
808.679	21555.38
808.934	21894.38
809.188	22013.38
809.443	22365.38
809.697	22603.38
809.951	22736.38
810.206	23028.38
810.46	23265.38
810.714	23428.38
810.968	23778.38
811.223	23836.38
811.477	24134.38
811.731	24272.38
811.985	24340.38
812.239	24502.38
812.493	24560.38
812.747	24797.38
813	24763.38
813.254	24932.38
813.508	25067.38
813.762	25246.38
814.015	25230.38
814.269	25551.38
814.522	25844.38
814.776	25924.38
815.03	26460.38
815.283	26793.38
815.536	27428.38
815.79	27734.38
816.043	28153.38
816.296	28514.38
816.55	28959.38
816.803	29300.38
817.056	29832.38
817.309	29970.38
817.562	30185.38
817.815	30573.38
818.068	30858.38
818.321	31263.38
818.574	31537.38
818.827	32046.38
819.079	32222.38
819.332	32892.38
819.585	33318.38
819.838	33815.38
820.09	33962.38
820.343	34296.38
820.595	34497.38
820.848	34724.38
821.1	34690.38
821.353	34751.38
821.605	34713.38
821.857	34798.38
822.11	34405.38
822.362	34486.38
822.614	34388.38
822.866	34405.38
823.118	34196.38
823.37	34582.38
823.622	34581.38
823.874	34705.38
824.126	34716.38
824.378	34833.38
824.63	34781.38
824.882	34949.38
825.134	34938.38
825.385	34800.38
825.637	34663.38
825.888	34630.38
826.14	34604.38
826.392	34446.38
826.643	34304.38
826.895	34273.38
827.146	34146.38
827.397	33811.38
827.649	34044.38
827.9	34062.38
828.151	34059.38
828.402	34048.38
828.653	34273.38
828.905	34305.38
829.156	34179.38
829.407	34158.38
829.658	34202.38
829.909	34131.38
830.159	33918.38
830.41	33859.38
830.661	33730.38
830.912	33487.38
831.162	33375.38
831.413	33358.38
831.664	33425.38
831.914	33370.38
832.165	33388.38
832.415	33223.38
832.666	33311.38
832.916	33343.38
833.167	33132.38
833.417	33255.38
833.667	33046.38
833.917	32927.38
834.168	32883.38
834.418	32885.38
834.668	32610.38
834.918	32313.38
835.168	32368.38
835.418	32219.38
835.668	32021.38
835.918	32111.38
836.167	31962.38
836.417	31860.38
836.667	31902.38
836.917	31768.38
837.166	31756.38
837.416	31739.38
837.666	31684.38
837.915	31489.38
838.165	31482.38
838.414	31337.38
838.663	31243.38
838.913	31256.38
839.162	31020.38
839.411	31017.38
839.661	30782.38
839.91	30907.38
840.159	30676.38
840.408	30798.38
840.657	30645.38
840.906	30636.38
841.155	30675.38
841.404	30569.38
841.653	30640.38
841.902	30657.38
842.15	30569.38
842.399	30701.38
842.648	30430.38
842.897	30537.38
843.145	30382.38
843.394	30082.38
843.642	29943.38
843.891	29897.38
844.139	29799.38
844.388	29516.38
844.636	29423.38
844.884	29357.38
845.133	29392.38
845.381	29258.38
845.629	29272.38
845.877	29242.38
846.125	29171.38
846.373	29101.38
846.621	28898.38
846.869	28759.38
847.117	28676.38
847.365	28573.38
847.613	28483.38
847.861	28325.38
848.108	28282.38
848.356	28142.38
848.604	28099.38
848.851	27922.38
849.099	28153.38
849.346	28033.38
849.594	28248.38
849.841	28325.38
850.089	28418.38
850.336	28304.38
850.583	28319.38
850.831	28233.38
851.078	28059.38
851.325	27893.38
851.572	28141.38
851.819	27705.38
852.066	27244.38
852.313	26846.38
852.56	26636.38
852.807	26469.38
853.054	26393.38
853.301	26343.38
853.548	26420.38
853.794	26523.38
854.041	26384.38
854.288	26639.38
854.534	26770.38
854.781	26677.38
855.028	26565.38
855.274	26431.38
855.52	26402.38
855.767	26272.38
856.013	26177.38
856.26	26379.38
856.506	25933.38
856.752	25862.38
856.998	25927.38
857.244	25859.38
857.49	26043.38
857.736	26196.38
857.982	25979.38
858.228	25987.38
858.474	25748.38
858.72	25713.38
858.966	25530.38
859.212	25211.38
859.458	25026.38
859.703	24757.38
859.949	24537.38
860.195	24399.38
860.44	24203.38
860.686	24035.38
860.931	23968.38
861.177	23836.38
861.422	23744.38
861.667	23631.38
861.913	23770.38
862.158	23708.38
862.403	23760.38
862.648	23813.38
862.893	23901.38
863.138	23768.38
863.384	23714.38
863.629	23684.38
863.873	23663.38
864.118	23597.38
864.363	23589.38
864.608	23462.38
864.853	23317.38
865.098	23075.38
865.342	23101.38
865.587	22924.38
865.832	22917.38
866.076	22828.38
866.321	22703.38
866.565	22668.38
866.81	22665.38
867.054	22497.38
867.298	22360.38
867.543	22335.38
867.787	22324.38
868.031	22311.38
868.275	22198.38
868.519	21999.38
868.764	22087.38
869.008	21873.38
869.252	21984.38
869.496	21841.38
869.739	21735.38
869.983	21714.38
870.227	21718.38
870.471	21679.38
870.715	21742.38
870.958	21756.38
871.202	21721.38
871.446	21816.38
871.689	21770.38
871.933	21803.38
872.176	21697.38
872.42	21704.38
872.663	21589.38
872.906	21416.38
873.15	21311.38
873.393	21226.38
873.636	21199.38
873.879	20995.38
874.122	20883.38
874.366	20506.38
874.609	20481.38
874.852	20267.38
875.095	20153.38
875.337	20156.38
875.58	19980.38
875.823	19933.38
876.066	19844.38
876.309	19786.38
876.551	19551.38
876.794	19420.38
877.037	19527.38
877.279	19414.38
877.522	19466.38
877.764	19500.38
878.007	19401.38
878.249	19382.38
878.491	19233.38
878.734	19323.38
878.976	19372.38
879.218	19154.38
879.46	18980.38
879.702	18946.38
879.945	18812.38
880.187	18674.38
880.429	18517.38
880.671	18431.38
880.912	18374.38
881.154	18258.38
881.396	18062.38
881.638	18172.38
881.88	18088.38
882.121	18072.38
882.363	18113.38
882.605	18125.38
882.846	17886.38
883.088	17930.38
883.329	17771.38
883.571	17770.38
883.812	17878.38
884.053	17915.38
884.295	18014.38
884.536	18187.38
884.777	18112.38
885.018	17951.38
885.259	17988.38
885.5	17900.38
885.742	18080.38
885.982	17798.38
886.223	17665.38
886.464	17700.38
886.705	17417.38
886.946	17375.38
887.187	17131.38
887.428	17150.38
887.668	16829.38
887.909	16680.38
888.15	16490.38
888.39	16445.38
888.631	16326.38
888.871	16150.38
889.111	16062.38
889.352	15979.38
889.592	15845.38
889.833	15735.38
890.073	15554.38
890.313	15587.38
890.553	15276.38
890.793	15307.38
891.033	15327.38
891.273	15135.38
891.513	15109.38
891.753	15026.38
891.993	15041.38
892.233	15007.38
892.473	15115.38
892.713	15101.38
892.952	15075.38
893.192	15182.38
893.432	15033.38
893.671	15110.38
893.911	14974.38
894.15	14835.38
894.39	14717.38
894.629	14649.38
894.869	14588.38
895.108	14446.38
895.347	14354.38
895.587	14341.38
895.826	14255.38
896.065	14286.38
896.304	14358.38
896.543	14254.38
896.782	14120.38
897.021	14147.38
897.26	14088.38
897.499	14109.38
897.738	14038.38
897.977	13898.38
898.216	13709.38
898.454	13695.38
898.693	13550.38
898.932	13579.38
899.17	13396.38
899.409	13281.38
899.647	13371.38
899.886	13290.38
900.124	13343.38
900.363	13217.38
900.601	13300.38
900.839	13387.38
901.078	13295.38
901.316	13344.38
901.554	13337.38
901.792	13427.38
902.03	13304.38
902.268	13320.38
902.506	13350.38
902.744	13235.38
902.982	13123.38
903.22	12995.38
903.458	12800.38
903.695	12737.38
903.933	12608.38
904.171	12261.38
904.409	12196.38
904.646	11993.38
904.884	11817.38
905.121	11792.38
905.359	11656.38
905.596	11474.38
905.833	11350.38
906.071	11323.38
906.308	11334.38
906.545	11364.38
906.783	11174.38
907.02	11266.38
907.257	11169.38
907.494	11190.38
907.731	11135.38
907.968	11113.38
908.205	11018.38
908.442	10965.38
908.679	10838.38
908.915	10863.38
909.152	10732.38
909.389	10574.38
909.626	10496.38
909.862	10387.38
910.099	10339.38
910.335	10328.38
910.572	10222.38
910.808	10241.38
911.045	10256.38
911.281	10162.38
911.518	10156.38
911.754	10061.38
911.99	9998.38
912.226	9946.38
912.463	9863.38
912.699	9810.38
912.935	9654.38
913.171	9643.38
913.407	9555.38
913.643	9547.38
913.879	9458.38
914.114	9312.38
914.35	9177.38
914.586	9147.38
914.822	9027.38
915.057	9081.38
915.293	8891.38
915.529	8774.38
915.764	8897.38
916	8847.38
916.235	8799.38
916.471	8826.38
916.706	8721.38
916.941	8735.38
917.177	8709.38
917.412	8711.38
917.647	8604.38
917.882	8642.38
918.117	8681.38
918.352	8580.38
918.588	8524.38
918.823	8552.38
919.057	8454.38
919.292	8227.38
919.527	8314.38
919.762	8139.38
919.997	8118.38
920.232	7914.38
920.466	7922.38
920.701	7791.38
920.935	7771.38
921.17	7749.38
921.405	7664.38
921.639	7720.38
921.873	7648.38
922.108	7626.38
922.342	7631.38
922.576	7471.38
922.811	7502.38
923.045	7576.38
923.279	7531.38
923.513	7367.38
923.747	7482.38
923.981	7331.38
924.215	7277.38
924.449	7209.38
924.683	7127.38
924.917	7115.38
925.151	7070.38
925.385	7090.38
925.618	7066.38
925.852	6978.38
926.086	6962.38
926.319	6967.38
926.553	6955.38
926.786	6933.38
927.02	6895.38
927.253	6965.38
927.486	6891.38
927.72	6863.38
927.953	6976.38
928.186	6885.38
928.42	6836.38
928.653	6809.38
928.886	6764.38
929.119	6778.38
929.352	6697.38
929.585	6655.38
929.818	6635.38
930.051	6596.38
930.284	6570.38
930.516	6410.38
930.749	6347.38
930.982	6416.38
931.215	6341.38
931.447	6325.38
931.68	6218.38
931.912	6275.38
932.145	6208.38
932.377	6198.38
932.61	6356.38
932.842	6197.38
933.074	6202.38
933.307	6216.38
933.539	6311.38
933.771	6165.38
934.003	6127.38
934.236	6166.38
934.468	6160.38
934.7	6116.38
934.932	6123.38
935.164	6070.38
935.395	6019.38
935.627	6062.38
935.859	6038.38
936.091	5969.38
936.323	6084.38
936.554	5991.38
936.786	5944.38
937.017	5859.38
937.249	5882.38
937.481	5773.38
937.712	5834.38
937.943	5814.38
938.175	5841.38
938.406	5802.38
938.637	5841.38
938.869	5722.38
939.1	5767.38
939.331	5744.38
939.562	5742.38
939.793	5772.38
940.024	5694.38
940.255	5728.38
940.486	5668.38
940.717	5620.38
940.948	5553.38
941.179	5493.38
941.409	5505.38
941.64	5466.38
941.871	5580.38
942.102	5470.38
942.332	5488.38
942.563	5503.38
942.793	5507.38
943.024	5475.38
943.254	5488.38
943.484	5467.38
943.715	5526.38
943.945	5455.38
944.175	5375.38
944.405	5349.38
944.636	5404.38
944.866	5379.38
945.096	5358.38
945.326	5273.38
945.556	5372.38
945.786	5364.38
946.016	5267.38
946.245	5187.38
946.475	5178.38
946.705	5189.38
946.935	5191.38
947.164	5115.38
947.394	5033.38
947.624	5081.38
947.853	5053.38
948.083	5032.38
948.312	5016.38
948.542	4895.38
948.771	4906.38
949	4927.38
949.23	4935.38
949.459	4913.38
949.688	4969.38
949.917	4878.38
950.146	4892.38
950.375	4940.38
950.604	4869.38
950.833	4965.38
951.062	4882.38
951.291	4808.38
951.52	4764.38
951.749	4805.38
951.978	4748.38
952.206	4767.38
952.435	4711.38
952.664	4798.38
952.892	4703.38
953.121	4722.38
953.349	4730.38
953.578	4636.38
953.806	4641.38
954.035	4520.38
954.263	4595.38
954.491	4555.38
954.719	4550.38
954.948	4478.38
955.176	4495.38
955.404	4407.38
955.632	4458.38
955.86	4409.38
956.088	4429.38
956.316	4397.38
956.544	4400.38
956.772	4353.38
956.999	4316.38
957.227	4413.38
957.455	4239.38
957.683	4279.38
957.91	4202.38
958.138	4162.38
958.365	4195.38
958.593	4173.38
958.82	4101.38
959.048	4168.38
959.275	4096.38
959.502	4077.38
959.73	4042.38
959.957	4101.38
960.184	4184.38
960.411	4025.38
960.638	4138.38
960.865	4083.38
961.092	4040.38
961.319	3971.38
961.546	4077.38
961.773	4025.38
962	3994.38
962.227	4008.38
962.454	4003.38
962.68	3977.38
962.907	3976.38
963.134	3848.38
963.36	3921.38
963.587	3924.38
963.813	3795.38
964.04	3818.38
964.266	3764.38
964.493	3836.38
964.719	3828.38
964.945	3788.38
965.171	3687.38
965.398	3754.38
965.624	3711.38
965.85	3634.38
966.076	3639.38
966.302	3633.38
966.528	3595.38
966.754	3596.38
966.98	3614.38
967.206	3626.38
967.431	3559.38
967.657	3603.38
967.883	3610.38
968.109	3549.38
968.334	3445.38
968.56	3463.38
968.785	3474.38
969.011	3470.38
969.236	3490.38
969.462	3417.38
969.687	3495.38
969.912	3449.38
970.138	3488.38
970.363	3354.38
970.588	3426.38
970.813	3408.38
971.038	3377.38
971.263	3385.38
971.488	3375.38
971.713	3375.38
971.938	3343.38
972.163	3265.38
972.388	3240.38
972.613	3262.38
972.838	3264.38
973.062	3215.38
973.287	3224.38
973.512	3137.38
973.736	3206.38
973.961	3186.38
974.185	3132.38
974.41	3184.38
974.634	3062.38
974.858	3057.38
975.083	3101.38
975.307	3121.38
975.531	3022.38
975.755	2963.38
975.98	2963.38
976.204	2895.38
976.428	2893.38
976.652	2915.38
976.876	2922.38
977.1	2967.38
977.324	2878.38
977.547	2943.38
977.771	2876.38
977.995	2860.38
978.219	2806.38
978.442	2911.38
978.666	2863.38
978.89	2849.38
979.113	2874.38
979.337	2821.38
979.56	2797.38
979.783	2851.38
980.007	2730.38
980.23	2773.38
980.453	2724.38
980.677	2743.38
980.9	2761.38
981.123	2651.38
981.346	2723.38
981.569	2691.38
981.792	2722.38
982.015	2671.38
982.238	2614.38
982.461	2644.38
982.684	2625.38
982.907	2553.38
983.129	2529.38
983.352	2614.38
983.575	2539.38
983.797	2550.38
984.02	2519.38
984.242	2503.38
984.465	2505.38
984.687	2521.38
984.91	2572.38
985.132	2518.38
985.354	2514.38
985.577	2476.38
985.799	2441.38
986.021	2402.38
986.243	2400.38
986.465	2392.38
986.687	2447.38
986.909	2506.38
987.131	2447.38
987.353	2391.38
987.575	2418.38
987.797	2355.38
988.019	2326.38
988.241	2358.38
988.462	2333.38
988.684	2384.38
988.906	2397.38
989.127	2423.38
989.349	2281.38
989.57	2325.38
989.792	2381.38
990.013	2384.38
990.234	2363.38
990.456	2352.38
990.677	2342.38
990.898	2263.38
991.119	2280.38
991.341	2320.38
991.562	2235.38
991.783	2264.38
992.004	2201.38
992.225	2185.38
992.446	2208.38
992.667	2128.38
992.887	2205.38
993.108	2100.38
993.329	2246.38
993.55	2178.38
993.77	2100.38
993.991	2080.38
994.212	2142.38
994.432	2078.38
994.653	2105.38
994.873	2096.38
995.093	2003.38
995.314	2033.38
995.534	2113.38
995.754	2081.38
995.975	2090.38
996.195	1987.38
996.415	2041.38
996.635	2016.38
996.855	2025.38
997.075	2030.38
997.295	2010.38
997.515	1986.38
997.735	2024.38
997.955	1992.38
998.174	2002.38
998.394	1943.38
998.614	2011.38
998.834	1941.38
999.053	2036.38
999.273	2006.38
999.492	2007.38
999.712	1953.38
999.931	1917.38
1000.151	1950.38
1000.37	1939.38
1000.589	1980.38
1000.809	1917.38
1001.028	2019.38
1001.247	1953.38
1001.466	1850.38
1001.685	1974.38
1001.904	1900.38
1002.123	1898.38
1002.342	1897.38
1002.561	1848.38
1002.78	1831.38
1002.999	1895.38
1003.218	1858.38
1003.436	1826.38
1003.655	1871.38
1003.874	1781.38
1004.092	1820.38
1004.311	1859.38
1004.53	1839.38
1004.748	1869.38
1004.966	1816.38
1005.185	1853.38
1005.403	1838.38
1005.622	1833.38
1005.84	1910.38
1006.058	1784.38
1006.276	1809.38
1006.494	2276.38
1006.712	1774.38
1006.931	1853.38
1007.149	1771.38
1007.367	1736.38
1007.584	1800.38
1007.802	1811.38
1008.02	1754.38
1008.238	1857.38
1008.456	1854.38
1008.673	1732.38
1008.891	1824.38
1009.109	1784.38
1009.326	1814.38
1009.544	1888.38
1009.761	1780.38
1009.979	1880.38
1010.196	1890.38
1010.413	1999.38
1010.631	2008.38
1010.848	2033.38
1011.065	2048.38
1011.282	1991.38
1011.5	1906.38
1011.717	2012.38
1011.934	1981.38
1012.151	1997.38
1012.368	1983.38
1012.585	1917.38
1012.801	1977.38
1013.018	1947.38
1013.235	1923.38
1013.452	1913.38
1013.669	1923.38
1013.885	1926.38
1014.102	1956.38
1014.318	1908.38
1014.535	1854.38
1014.751	1898.38
1014.968	1879.38
1015.184	1924.38
1015.401	1821.38
1015.617	1858.38
1015.833	1794.38
1016.049	1809.38
1016.266	1764.38
1016.482	1776.38
1016.698	1729.38
1016.914	1753.38
1017.13	1727.38
1017.346	1708.38
1017.562	1750.38
1017.778	1670.38
1017.993	1669.38
1018.209	1719.38
1018.425	1711.38
1018.641	1687.38
1018.856	1651.38
1019.072	1685.38
1019.288	1739.38
1019.503	1668.38
1019.719	1561.38
1019.934	1607.38
1020.149	1689.38
1020.365	1613.38
1020.58	1569.38
1020.795	1611.38
1021.011	1525.38
1021.226	1520.38
1021.441	1569.38
1021.656	1472.38
1021.871	1399.38
1022.086	1400.38
1022.301	1386.38
1022.516	1381.38
1022.731	1414.38
1022.946	1339.38
1023.16	1317.38
1023.375	1295.38
1023.59	1260.38
1023.804	1225.38
1024.019	1340.38
1024.234	1207.38
1024.448	1233.38
1024.663	1193.38
1024.877	1173.38
1025.092	1182.38
1025.306	1176.38
1025.52	1066.38
1025.734	1161.38
1025.949	1083.38
1026.163	1039.38
1026.377	990.38
1026.591	1033.38
1026.805	956.38
1027.019	954.38
1027.233	931.38
1027.447	865.38
1027.661	949.38
1027.875	912.38
1028.088	900.38
1028.302	826.38
1028.516	805.38
1028.73	809.38
1028.943	793.38
1029.157	748.38
1029.37	713.38
1029.584	-1.62
1029.797	-0.62
1030.011	-3.62
1030.224	-2.62
