Data from QEP037381__455__17-10-07-249.txt Node

Date: Fri Dec 16 17:10:07 EST 2022
User: dcclab
Spectrometer: QEP03738
Trigger mode: 4
Integration Time (sec): 1.000000E1
Scans to average: 1
Electric dark correction enabled: true
Nonlinearity correction enabled: false
Boxcar width: 0
XAxis mode: Wavelengths
Number of Pixels in Spectrum: 1044
>>>>>Begin Spectral Data<<<<<
784.041	14.75
784.3	-1.25
784.558	-3.25
784.817	-4.25
785.075	90794.75
785.334	15391.75
785.592	7214.75
785.851	4980.75
786.109	3791.75
786.368	2959.75
786.626	2394.75
786.884	2022.75
787.143	1677.75
787.401	1367.75
787.659	1259.75
787.917	1095.75
788.175	995.75
788.433	893.75
788.691	788.75
788.949	759.75
789.207	694.75
789.465	602.75
789.723	597.75
789.98	555.75
790.238	589.75
790.496	545.75
790.753	536.75
791.011	567.75
791.268	516.75
791.526	503.75
791.783	516.75
792.041	503.75
792.298	415.75
792.556	502.75
792.813	484.75
793.07	445.75
793.327	419.75
793.584	521.75
793.841	438.75
794.099	451.75
794.356	520.75
794.613	423.75
794.869	464.75
795.126	407.75
795.383	392.75
795.64	430.75
795.897	371.75
796.153	430.75
796.41	417.75
796.667	412.75
796.923	417.75
797.18	410.75
797.436	438.75
797.693	406.75
797.949	457.75
798.206	478.75
798.462	400.75
798.718	453.75
798.974	430.75
799.231	462.75
799.487	462.75
799.743	467.75
799.999	483.75
800.255	482.75
800.511	473.75
800.767	525.75
801.023	506.75
801.279	532.75
801.534	555.75
801.79	599.75
802.046	633.75
802.302	748.75
802.557	823.75
802.813	1035.75
803.068	1202.75
803.324	1678.75
803.579	2294.75
803.835	3096.75
804.09	4271.75
804.345	5597.75
804.601	7134.75
804.856	8756.75
805.111	10168.75
805.366	11146.75
805.621	11867.75
805.876	12482.75
806.131	12833.75
806.386	13043.75
806.641	13301.75
806.896	13495.75
807.151	13804.75
807.406	13965.75
807.661	14308.75
807.915	14521.75
808.17	14786.75
808.425	14953.75
808.679	15114.75
808.934	15325.75
809.188	15370.75
809.443	15632.75
809.697	15890.75
809.951	15899.75
810.206	16134.75
810.46	16299.75
810.714	16435.75
810.968	16582.75
811.223	16585.75
811.477	16829.75
811.731	16924.75
811.985	17062.75
812.239	17010.75
812.493	17268.75
812.747	17260.75
813	17274.75
813.254	17362.75
813.508	17605.75
813.762	17643.75
814.015	17653.75
814.269	17744.75
814.522	17976.75
814.776	18195.75
815.03	18472.75
815.283	18663.75
815.536	19021.75
815.79	19342.75
816.043	19521.75
816.296	19836.75
816.55	20160.75
816.803	20305.75
817.056	20740.75
817.309	20792.75
817.562	20966.75
817.815	21276.75
818.068	21337.75
818.321	21557.75
818.574	21819.75
818.827	22222.75
819.079	22454.75
819.332	22855.75
819.585	23105.75
819.838	23435.75
820.09	23460.75
820.343	23833.75
820.595	23810.75
820.848	24063.75
821.1	24057.75
821.353	24131.75
821.605	24148.75
821.857	24150.75
822.11	24005.75
822.362	24125.75
822.614	23895.75
822.866	23928.75
823.118	23881.75
823.37	23901.75
823.622	23989.75
823.874	24076.75
824.126	24176.75
824.378	24259.75
824.63	24210.75
824.882	24318.75
825.134	24225.75
825.385	24260.75
825.637	24191.75
825.888	24192.75
826.14	24040.75
826.392	23964.75
826.643	23794.75
826.895	23873.75
827.146	23756.75
827.397	23704.75
827.649	23583.75
827.9	23533.75
828.151	23649.75
828.402	23665.75
828.653	23797.75
828.905	23750.75
829.156	23833.75
829.407	23667.75
829.658	23701.75
829.909	23761.75
830.159	23748.75
830.41	23620.75
830.661	23472.75
830.912	23195.75
831.162	23145.75
831.413	23191.75
831.664	23287.75
831.914	23202.75
832.165	23167.75
832.415	23212.75
832.666	23175.75
832.916	23067.75
833.167	23151.75
833.417	23091.75
833.667	23035.75
833.917	22861.75
834.168	22844.75
834.418	22839.75
834.668	22675.75
834.918	22537.75
835.168	22506.75
835.418	22364.75
835.668	22325.75
835.918	22267.75
836.167	22232.75
836.417	22158.75
836.667	22177.75
836.917	22112.75
837.166	22146.75
837.416	22098.75
837.666	21996.75
837.915	21898.75
838.165	21860.75
838.414	21812.75
838.663	21690.75
838.913	21703.75
839.162	21665.75
839.411	21719.75
839.661	21526.75
839.91	21552.75
840.159	21468.75
840.408	21369.75
840.657	21378.75
840.906	21413.75
841.155	21434.75
841.404	21401.75
841.653	21376.75
841.902	21396.75
842.15	21399.75
842.399	21470.75
842.648	21396.75
842.897	21203.75
843.145	21222.75
843.394	20878.75
843.642	21016.75
843.891	20722.75
844.139	20553.75
844.388	20533.75
844.636	20358.75
844.884	20425.75
845.133	20419.75
845.381	20391.75
845.629	20375.75
845.877	20341.75
846.125	20308.75
846.373	20312.75
846.621	20245.75
846.869	20139.75
847.117	19994.75
847.365	19897.75
847.613	19786.75
847.861	19771.75
848.108	19728.75
848.356	19715.75
848.604	19554.75
848.851	19634.75
849.099	19569.75
849.346	19635.75
849.594	19804.75
849.841	19848.75
850.089	19843.75
850.336	19764.75
850.583	19689.75
850.831	19629.75
851.078	19591.75
851.325	19533.75
851.572	19620.75
851.819	19468.75
852.066	19007.75
852.313	18773.75
852.56	18616.75
852.807	18453.75
853.054	18428.75
853.301	18460.75
853.548	18487.75
853.794	18674.75
854.041	18581.75
854.288	18610.75
854.534	18770.75
854.781	18801.75
855.028	18693.75
855.274	18693.75
855.52	18510.75
855.767	18311.75
856.013	18365.75
856.26	18689.75
856.506	18181.75
856.752	18146.75
856.998	18087.75
857.244	18209.75
857.49	18263.75
857.736	18236.75
857.982	18339.75
858.228	18142.75
858.474	18106.75
858.72	17914.75
858.966	17844.75
859.212	17668.75
859.458	17457.75
859.703	17325.75
859.949	17065.75
860.195	17136.75
860.44	16904.75
860.686	16710.75
860.931	16918.75
861.177	16695.75
861.422	16753.75
861.667	16590.75
861.913	16560.75
862.158	16648.75
862.403	16692.75
862.648	16746.75
862.893	16766.75
863.138	16768.75
863.384	16657.75
863.629	16723.75
863.873	16710.75
864.118	16624.75
864.363	16454.75
864.608	16396.75
864.853	16381.75
865.098	16342.75
865.342	16179.75
865.587	16097.75
865.832	16051.75
866.076	16057.75
866.321	16007.75
866.565	15917.75
866.81	15933.75
867.054	15918.75
867.298	15769.75
867.543	15649.75
867.787	15704.75
868.031	15607.75
868.275	15595.75
868.519	15516.75
868.764	15486.75
869.008	15507.75
869.252	15522.75
869.496	15410.75
869.739	15331.75
869.983	15397.75
870.227	15304.75
870.471	15253.75
870.715	15362.75
870.958	15392.75
871.202	15410.75
871.446	15478.75
871.689	15462.75
871.933	15414.75
872.176	15356.75
872.42	15335.75
872.663	15334.75
872.906	15284.75
873.15	15089.75
873.393	14979.75
873.636	15026.75
873.879	14902.75
874.122	14780.75
874.366	14537.75
874.609	14454.75
874.852	14409.75
875.095	14292.75
875.337	14139.75
875.58	14084.75
875.823	14171.75
876.066	14075.75
876.309	14110.75
876.551	13898.75
876.794	13916.75
877.037	13910.75
877.279	13707.75
877.522	13826.75
877.764	13761.75
878.007	13794.75
878.249	13749.75
878.491	13719.75
878.734	13773.75
878.976	13665.75
879.218	13551.75
879.46	13523.75
879.702	13451.75
879.945	13258.75
880.187	13193.75
880.429	13107.75
880.671	13021.75
880.912	13021.75
881.154	12924.75
881.396	12848.75
881.638	12850.75
881.88	12889.75
882.121	12788.75
882.363	12822.75
882.605	12844.75
882.846	12730.75
883.088	12732.75
883.329	12676.75
883.571	12585.75
883.812	12671.75
884.053	12854.75
884.295	12902.75
884.536	13167.75
884.777	13019.75
885.018	12925.75
885.259	12888.75
885.5	12831.75
885.742	13013.75
885.982	12753.75
886.223	12630.75
886.464	12593.75
886.705	12455.75
886.946	12379.75
887.187	12236.75
887.428	12151.75
887.668	11952.75
887.909	11820.75
888.15	11791.75
888.39	11628.75
888.631	11622.75
888.871	11533.75
889.111	11443.75
889.352	11407.75
889.592	11246.75
889.833	11156.75
890.073	11162.75
890.313	11085.75
890.553	10963.75
890.793	10923.75
891.033	10845.75
891.273	10843.75
891.513	10783.75
891.753	10826.75
891.993	10800.75
892.233	10807.75
892.473	10847.75
892.713	10836.75
892.952	10698.75
893.192	10838.75
893.432	10774.75
893.671	10776.75
893.911	10658.75
894.15	10584.75
894.39	10532.75
894.629	10476.75
894.869	10418.75
895.108	10335.75
895.347	10272.75
895.587	10348.75
895.826	10177.75
896.065	10217.75
896.304	10214.75
896.543	10221.75
896.782	10065.75
897.021	10111.75
897.26	10110.75
897.499	10119.75
897.738	10147.75
897.977	10042.75
898.216	9913.75
898.454	9786.75
898.693	9635.75
898.932	9787.75
899.17	9676.75
899.409	9640.75
899.647	9585.75
899.886	9584.75
900.124	9575.75
900.363	9538.75
900.601	9624.75
900.839	9630.75
901.078	9570.75
901.316	9649.75
901.554	9667.75
901.792	9736.75
902.03	9652.75
902.268	9665.75
902.506	9620.75
902.744	9566.75
902.982	9561.75
903.22	9399.75
903.458	9290.75
903.695	9199.75
903.933	9066.75
904.171	8909.75
904.409	8809.75
904.646	8667.75
904.884	8535.75
905.121	8504.75
905.359	8425.75
905.596	8325.75
905.833	8215.75
906.071	8156.75
906.308	8191.75
906.545	8089.75
906.783	8014.75
907.02	8119.75
907.257	8021.75
907.494	8101.75
907.731	8012.75
907.968	7995.75
908.205	7912.75
908.442	7848.75
908.679	7786.75
908.915	7744.75
909.152	7734.75
909.389	7647.75
909.626	7615.75
909.862	7516.75
910.099	7450.75
910.335	7514.75
910.572	7428.75
910.808	7348.75
911.045	7394.75
911.281	7332.75
911.518	7371.75
911.754	7285.75
911.99	7231.75
912.226	7168.75
912.463	7127.75
912.699	7099.75
912.935	7022.75
913.171	6964.75
913.407	6818.75
913.643	6862.75
913.879	6799.75
914.114	6773.75
914.35	6639.75
914.586	6616.75
914.822	6526.75
915.057	6607.75
915.293	6414.75
915.529	6408.75
915.764	6487.75
916	6393.75
916.235	6388.75
916.471	6397.75
916.706	6337.75
916.941	6333.75
917.177	6319.75
917.412	6383.75
917.647	6327.75
917.882	6249.75
918.117	6326.75
918.352	6265.75
918.588	6241.75
918.823	6121.75
919.057	6136.75
919.292	5938.75
919.527	6122.75
919.762	5935.75
919.997	5958.75
920.232	5803.75
920.466	5838.75
920.701	5635.75
920.935	5671.75
921.17	5623.75
921.405	5576.75
921.639	5636.75
921.873	5555.75
922.108	5556.75
922.342	5580.75
922.576	5503.75
922.811	5504.75
923.045	5496.75
923.279	5531.75
923.513	5383.75
923.747	5422.75
923.981	5399.75
924.215	5333.75
924.449	5299.75
924.683	5203.75
924.917	5246.75
925.151	5169.75
925.385	5262.75
925.618	5203.75
925.852	5200.75
926.086	5037.75
926.319	5150.75
926.553	5123.75
926.786	5065.75
927.02	5131.75
927.253	5146.75
927.486	5111.75
927.72	5046.75
927.953	5100.75
928.186	5079.75
928.42	5051.75
928.653	4983.75
928.886	4933.75
929.119	4957.75
929.352	4907.75
929.585	4912.75
929.818	4825.75
930.051	4825.75
930.284	4847.75
930.516	4717.75
930.749	4674.75
930.982	4694.75
931.215	4699.75
931.447	4561.75
931.68	4591.75
931.912	4612.75
932.145	4575.75
932.377	4599.75
932.61	4746.75
932.842	4534.75
933.074	4590.75
933.307	4576.75
933.539	4654.75
933.771	4558.75
934.003	4535.75
934.236	4617.75
934.468	4603.75
934.7	4526.75
934.932	4597.75
935.164	4459.75
935.395	4449.75
935.627	4501.75
935.859	4472.75
936.091	4393.75
936.323	4416.75
936.554	4431.75
936.786	4411.75
937.017	4335.75
937.249	4356.75
937.481	4276.75
937.712	4365.75
937.943	4284.75
938.175	4279.75
938.406	4292.75
938.637	4382.75
938.869	4233.75
939.1	4266.75
939.331	4244.75
939.562	4262.75
939.793	4295.75
940.024	4264.75
940.255	4251.75
940.486	4158.75
940.717	4184.75
940.948	4147.75
941.179	4047.75
941.409	4083.75
941.64	4035.75
941.871	4071.75
942.102	4056.75
942.332	4043.75
942.563	4106.75
942.793	4073.75
943.024	4040.75
943.254	4087.75
943.484	4101.75
943.715	4063.75
943.945	4125.75
944.175	3991.75
944.405	3975.75
944.636	3980.75
944.866	4057.75
945.096	4017.75
945.326	3922.75
945.556	4014.75
945.786	4006.75
946.016	3900.75
946.245	3847.75
946.475	3864.75
946.705	3800.75
946.935	3850.75
947.164	3827.75
947.394	3773.75
947.624	3767.75
947.853	3769.75
948.083	3777.75
948.312	3731.75
948.542	3651.75
948.771	3654.75
949	3667.75
949.23	3631.75
949.459	3645.75
949.688	3714.75
949.917	3650.75
950.146	3622.75
950.375	3736.75
950.604	3571.75
950.833	3632.75
951.062	3691.75
951.291	3656.75
951.52	3593.75
951.749	3582.75
951.978	3499.75
952.206	3543.75
952.435	3537.75
952.664	3584.75
952.892	3555.75
953.121	3556.75
953.349	3548.75
953.578	3495.75
953.806	3463.75
954.035	3409.75
954.263	3458.75
954.491	3390.75
954.719	3404.75
954.948	3383.75
955.176	3360.75
955.404	3305.75
955.632	3360.75
955.86	3336.75
956.088	3309.75
956.316	3353.75
956.544	3355.75
956.772	3254.75
956.999	3225.75
957.227	3254.75
957.455	3186.75
957.683	3188.75
957.91	3169.75
958.138	3143.75
958.365	3172.75
958.593	3103.75
958.82	3075.75
959.048	3134.75
959.275	3107.75
959.502	3077.75
959.73	3063.75
959.957	3077.75
960.184	3102.75
960.411	3036.75
960.638	3113.75
960.865	3042.75
961.092	3064.75
961.319	2989.75
961.546	3052.75
961.773	3044.75
962	3012.75
962.227	3069.75
962.454	3055.75
962.68	2973.75
962.907	3013.75
963.134	2933.75
963.36	2983.75
963.587	2963.75
963.813	2877.75
964.04	2926.75
964.266	2872.75
964.493	2910.75
964.719	2895.75
964.945	2884.75
965.171	2824.75
965.398	2825.75
965.624	2824.75
965.85	2759.75
966.076	2766.75
966.302	2772.75
966.528	2744.75
966.754	2815.75
966.98	2763.75
967.206	2734.75
967.431	2680.75
967.657	2756.75
967.883	2742.75
968.109	2695.75
968.334	2648.75
968.56	2677.75
968.785	2690.75
969.011	2603.75
969.236	2679.75
969.462	2595.75
969.687	2643.75
969.912	2667.75
970.138	2660.75
970.363	2571.75
970.588	2600.75
970.813	2582.75
971.038	2566.75
971.263	2611.75
971.488	2589.75
971.713	2601.75
971.938	2596.75
972.163	2489.75
972.388	2500.75
972.613	2489.75
972.838	2491.75
973.062	2485.75
973.287	2499.75
973.512	2430.75
973.736	2439.75
973.961	2434.75
974.185	2407.75
974.41	2415.75
974.634	2335.75
974.858	2339.75
975.083	2366.75
975.307	2379.75
975.531	2339.75
975.755	2293.75
975.98	2283.75
976.204	2225.75
976.428	2201.75
976.652	2232.75
976.876	2212.75
977.1	2267.75
977.324	2180.75
977.547	2242.75
977.771	2238.75
977.995	2253.75
978.219	2146.75
978.442	2260.75
978.666	2170.75
978.89	2206.75
979.113	2190.75
979.337	2167.75
979.56	2136.75
979.783	2231.75
980.007	2129.75
980.23	2162.75
980.453	2127.75
980.677	2142.75
980.9	2133.75
981.123	2020.75
981.346	2129.75
981.569	2102.75
981.792	2140.75
982.015	2076.75
982.238	2058.75
982.461	2034.75
982.684	2017.75
982.907	2002.75
983.129	1974.75
983.352	2065.75
983.575	1998.75
983.797	2016.75
984.02	1958.75
984.242	1955.75
984.465	1969.75
984.687	2005.75
984.91	1996.75
985.132	1987.75
985.354	1968.75
985.577	1958.75
985.799	1917.75
986.021	1853.75
986.243	1916.75
986.465	1885.75
986.687	1921.75
986.909	1971.75
987.131	1895.75
987.353	1856.75
987.575	1893.75
987.797	1855.75
988.019	1817.75
988.241	1863.75
988.462	1813.75
988.684	1874.75
988.906	1868.75
989.127	1929.75
989.349	1809.75
989.57	1826.75
989.792	1869.75
990.013	1901.75
990.234	1880.75
990.456	1909.75
990.677	1891.75
990.898	1797.75
991.119	1791.75
991.341	1816.75
991.562	1766.75
991.783	1804.75
992.004	1715.75
992.225	1696.75
992.446	1768.75
992.667	1691.75
992.887	1757.75
993.108	1665.75
993.329	1785.75
993.55	1759.75
993.77	1666.75
993.991	1668.75
994.212	1702.75
994.432	1662.75
994.653	1705.75
994.873	1663.75
995.093	1573.75
995.314	1626.75
995.534	1683.75
995.754	1685.75
995.975	1697.75
996.195	1571.75
996.415	1655.75
996.635	1635.75
996.855	1642.75
997.075	1654.75
997.295	1634.75
997.515	1591.75
997.735	1650.75
997.955	1605.75
998.174	1598.75
998.394	1555.75
998.614	1637.75
998.834	1573.75
999.053	1626.75
999.273	1605.75
999.492	1635.75
999.712	1626.75
999.931	1522.75
1000.151	1593.75
1000.37	1586.75
1000.589	1631.75
1000.809	1546.75
1001.028	1665.75
1001.247	1609.75
1001.466	1490.75
1001.685	1634.75
1001.904	1561.75
1002.123	1539.75
1002.342	1566.75
1002.561	1476.75
1002.78	1540.75
1002.999	1584.75
1003.218	1552.75
1003.436	1501.75
1003.655	1568.75
1003.874	1517.75
1004.092	1509.75
1004.311	1561.75
1004.53	1522.75
1004.748	1585.75
1004.966	1515.75
1005.185	1563.75
1005.403	1542.75
1005.622	1509.75
1005.84	1606.75
1006.058	1497.75
1006.276	1509.75
1006.494	1971.75
1006.712	1519.75
1006.931	1553.75
1007.149	1457.75
1007.367	1479.75
1007.584	1502.75
1007.802	1544.75
1008.02	1467.75
1008.238	1600.75
1008.456	1555.75
1008.673	1423.75
1008.891	1532.75
1009.109	1481.75
1009.326	1515.75
1009.544	1620.75
1009.761	1480.75
1009.979	1578.75
1010.196	1596.75
1010.413	1641.75
1010.631	1692.75
1010.848	1734.75
1011.065	1718.75
1011.282	1656.75
1011.5	1618.75
1011.717	1735.75
1011.934	1672.75
1012.151	1704.75
1012.368	1678.75
1012.585	1598.75
1012.801	1661.75
1013.018	1652.75
1013.235	1597.75
1013.452	1609.75
1013.669	1646.75
1013.885	1603.75
1014.102	1622.75
1014.318	1603.75
1014.535	1579.75
1014.751	1586.75
1014.968	1628.75
1015.184	1630.75
1015.401	1554.75
1015.617	1550.75
1015.833	1527.75
1016.049	1501.75
1016.266	1503.75
1016.482	1500.75
1016.698	1445.75
1016.914	1522.75
1017.13	1467.75
1017.346	1437.75
1017.562	1513.75
1017.778	1453.75
1017.993	1410.75
1018.209	1472.75
1018.425	1464.75
1018.641	1390.75
1018.856	1381.75
1019.072	1419.75
1019.288	1474.75
1019.503	1424.75
1019.719	1346.75
1019.934	1362.75
1020.149	1446.75
1020.365	1350.75
1020.58	1333.75
1020.795	1361.75
1021.011	1322.75
1021.226	1280.75
1021.441	1322.75
1021.656	1239.75
1021.871	1204.75
1022.086	1193.75
1022.301	1197.75
1022.516	1169.75
1022.731	1226.75
1022.946	1133.75
1023.16	1142.75
1023.375	1100.75
1023.59	1085.75
1023.804	1042.75
1024.019	1151.75
1024.234	1011.75
1024.448	1051.75
1024.663	1005.75
1024.877	1000.75
1025.092	993.75
1025.306	1033.75
1025.52	912.75
1025.734	1018.75
1025.949	932.75
1026.163	906.75
1026.377	849.75
1026.591	896.75
1026.805	828.75
1027.019	812.75
1027.233	798.75
1027.447	726.75
1027.661	824.75
1027.875	779.75
1028.088	789.75
1028.302	717.75
1028.516	685.75
1028.73	717.75
1028.943	692.75
1029.157	651.75
1029.37	608.75
1029.584	-0.25
1029.797	-1.25
1030.011	-4.25
1030.224	-0.25
