Data from QEP037381__452__17-09-37-248.txt Node

Date: Fri Dec 16 17:09:37 EST 2022
User: dcclab
Spectrometer: QEP03738
Trigger mode: 4
Integration Time (sec): 1.000000E1
Scans to average: 1
Electric dark correction enabled: true
Nonlinearity correction enabled: false
Boxcar width: 0
XAxis mode: Wavelengths
Number of Pixels in Spectrum: 1044
>>>>>Begin Spectral Data<<<<<
784.041	10.75
784.3	2.75
784.558	-4.25
784.817	-9.25
785.075	92734.75
785.334	16300.75
785.592	7738.75
785.851	5339.75
786.109	4009.75
786.368	3181.75
786.626	2533.75
786.884	2121.75
787.143	1773.75
787.401	1462.75
787.659	1317.75
787.917	1136.75
788.175	1046.75
788.433	921.75
788.691	838.75
788.949	780.75
789.207	744.75
789.465	649.75
789.723	638.75
789.98	582.75
790.238	619.75
790.496	575.75
790.753	575.75
791.011	604.75
791.268	527.75
791.526	525.75
791.783	538.75
792.041	521.75
792.298	436.75
792.556	504.75
792.813	491.75
793.07	460.75
793.327	450.75
793.584	518.75
793.841	457.75
794.099	474.75
794.356	543.75
794.613	436.75
794.869	488.75
795.126	445.75
795.383	439.75
795.64	448.75
795.897	401.75
796.153	449.75
796.41	438.75
796.667	421.75
796.923	425.75
797.18	433.75
797.436	471.75
797.693	424.75
797.949	478.75
798.206	507.75
798.462	434.75
798.718	499.75
798.974	454.75
799.231	507.75
799.487	483.75
799.743	505.75
799.999	542.75
800.255	547.75
800.511	503.75
800.767	566.75
801.023	549.75
801.279	593.75
801.534	640.75
801.79	715.75
802.046	735.75
802.302	875.75
802.557	1005.75
802.813	1243.75
803.068	1535.75
803.324	2174.75
803.579	3005.75
803.835	4147.75
804.09	5771.75
804.345	7630.75
804.601	9746.75
804.856	11867.75
805.111	13824.75
805.366	15269.75
805.621	16472.75
805.876	17166.75
806.131	17691.75
806.386	17958.75
806.641	18366.75
806.896	18683.75
807.151	19022.75
807.406	19487.75
807.661	19721.75
807.915	20131.75
808.17	20374.75
808.425	20677.75
808.679	20754.75
808.934	21127.75
809.188	21313.75
809.443	21526.75
809.697	21827.75
809.951	22033.75
810.206	22177.75
810.46	22388.75
810.714	22582.75
810.968	22746.75
811.223	22956.75
811.477	23273.75
811.731	23400.75
811.985	23560.75
812.239	23678.75
812.493	23740.75
812.747	23930.75
813	23907.75
813.254	24057.75
813.508	24188.75
813.762	24199.75
814.015	24493.75
814.269	24575.75
814.522	24792.75
814.776	25131.75
815.03	25526.75
815.283	25818.75
815.536	26295.75
815.79	26737.75
816.043	27066.75
816.296	27371.75
816.55	27821.75
816.803	28088.75
817.056	28514.75
817.309	28705.75
817.562	29019.75
817.815	29417.75
818.068	29617.75
818.321	29991.75
818.574	30289.75
818.827	30749.75
819.079	31131.75
819.332	31695.75
819.585	31980.75
819.838	32422.75
820.09	32865.75
820.343	32967.75
820.595	33032.75
820.848	33367.75
821.1	33462.75
821.353	33392.75
821.605	33418.75
821.857	33297.75
822.11	33290.75
822.362	33209.75
822.614	33106.75
822.866	33206.75
823.118	33076.75
823.37	33361.75
823.622	33235.75
823.874	33367.75
824.126	33456.75
824.378	33569.75
824.63	33589.75
824.882	33680.75
825.134	33603.75
825.385	33732.75
825.637	33667.75
825.888	33506.75
826.14	33437.75
826.392	33416.75
826.643	33001.75
826.895	33003.75
827.146	32861.75
827.397	32847.75
827.649	32913.75
827.9	32820.75
828.151	32813.75
828.402	32938.75
828.653	32996.75
828.905	32951.75
829.156	33125.75
829.407	32951.75
829.658	33063.75
829.909	33128.75
830.159	32908.75
830.41	32752.75
830.661	32631.75
830.912	32517.75
831.162	32363.75
831.413	32321.75
831.664	32345.75
831.914	32333.75
832.165	32239.75
832.415	32224.75
832.666	32281.75
832.916	32287.75
833.167	32208.75
833.417	32167.75
833.667	32002.75
833.917	31862.75
834.168	31843.75
834.418	31865.75
834.668	31579.75
834.918	31483.75
835.168	31293.75
835.418	31176.75
835.668	31226.75
835.918	31151.75
836.167	31058.75
836.417	30854.75
836.667	30906.75
836.917	30735.75
837.166	30806.75
837.416	30735.75
837.666	30842.75
837.915	30635.75
838.165	30547.75
838.414	30391.75
838.663	30359.75
838.913	30339.75
839.162	30213.75
839.411	30251.75
839.661	30143.75
839.91	30008.75
840.159	29897.75
840.408	29888.75
840.657	29804.75
840.906	29979.75
841.155	29922.75
841.404	29867.75
841.653	29925.75
841.902	29942.75
842.15	29827.75
842.399	30037.75
842.648	29888.75
842.897	29666.75
843.145	29433.75
843.394	29320.75
843.642	29246.75
843.891	29125.75
844.139	28944.75
844.388	28740.75
844.636	28585.75
844.884	28668.75
845.133	28435.75
845.381	28466.75
845.629	28578.75
845.877	28408.75
846.125	28437.75
846.373	28362.75
846.621	28198.75
846.869	28154.75
847.117	27995.75
847.365	27775.75
847.613	27785.75
847.861	27550.75
848.108	27587.75
848.356	27375.75
848.604	27347.75
848.851	27343.75
849.099	27457.75
849.346	27538.75
849.594	27609.75
849.841	27746.75
850.089	27764.75
850.336	27689.75
850.583	27651.75
850.831	27636.75
851.078	27387.75
851.325	27376.75
851.572	27358.75
851.819	27134.75
852.066	26693.75
852.313	26317.75
852.56	26086.75
852.807	25991.75
853.054	25833.75
853.301	25871.75
853.548	25967.75
853.794	25971.75
854.041	26032.75
854.288	26110.75
854.534	26227.75
854.781	26271.75
855.028	26119.75
855.274	26088.75
855.52	25795.75
855.767	25742.75
856.013	25808.75
856.26	26096.75
856.506	25489.75
856.752	25545.75
856.998	25523.75
857.244	25515.75
857.49	25634.75
857.736	25734.75
857.982	25724.75
858.228	25688.75
858.474	25517.75
858.72	25159.75
858.966	25041.75
859.212	24854.75
859.458	24625.75
859.703	24378.75
859.949	23925.75
860.195	23802.75
860.44	23746.75
860.686	23556.75
860.931	23588.75
861.177	23496.75
861.422	23327.75
861.667	23396.75
861.913	23303.75
862.158	23508.75
862.403	23376.75
862.648	23484.75
862.893	23435.75
863.138	23420.75
863.384	23272.75
863.629	23332.75
863.873	23337.75
864.118	23306.75
864.363	23023.75
864.608	23095.75
864.853	22908.75
865.098	22785.75
865.342	22719.75
865.587	22695.75
865.832	22632.75
866.076	22585.75
866.321	22353.75
866.565	22484.75
866.81	22220.75
867.054	22163.75
867.298	22052.75
867.543	22137.75
867.787	21948.75
868.031	21893.75
868.275	21898.75
868.519	21809.75
868.764	21779.75
869.008	21772.75
869.252	21583.75
869.496	21595.75
869.739	21467.75
869.983	21463.75
870.227	21434.75
870.471	21386.75
870.715	21474.75
870.958	21413.75
871.202	21641.75
871.446	21475.75
871.689	21484.75
871.933	21449.75
872.176	21553.75
872.42	21469.75
872.663	21318.75
872.906	21346.75
873.15	21192.75
873.393	21149.75
873.636	21117.75
873.879	20779.75
874.122	20666.75
874.366	20405.75
874.609	20280.75
874.852	20045.75
875.095	20056.75
875.337	19870.75
875.58	19859.75
875.823	19840.75
876.066	19765.75
876.309	19668.75
876.551	19513.75
876.794	19420.75
877.037	19397.75
877.279	19317.75
877.522	19346.75
877.764	19401.75
878.007	19366.75
878.249	19323.75
878.491	19163.75
878.734	19179.75
878.976	19126.75
879.218	19000.75
879.46	18925.75
879.702	18753.75
879.945	18623.75
880.187	18448.75
880.429	18381.75
880.671	18356.75
880.912	18203.75
881.154	18087.75
881.396	17987.75
881.638	18049.75
881.88	18005.75
882.121	17990.75
882.363	17971.75
882.605	18046.75
882.846	17817.75
883.088	17859.75
883.329	17765.75
883.571	17778.75
883.812	17757.75
884.053	17939.75
884.295	18147.75
884.536	18188.75
884.777	18175.75
885.018	18031.75
885.259	17891.75
885.5	17791.75
885.742	18086.75
885.982	17746.75
886.223	17658.75
886.464	17561.75
886.705	17408.75
886.946	17356.75
887.187	17079.75
887.428	17027.75
887.668	16847.75
887.909	16604.75
888.15	16420.75
888.39	16472.75
888.631	16313.75
888.871	16199.75
889.111	16068.75
889.352	15980.75
889.592	15781.75
889.833	15681.75
890.073	15603.75
890.313	15682.75
890.553	15332.75
890.793	15220.75
891.033	15219.75
891.273	15172.75
891.513	15061.75
891.753	15069.75
891.993	15043.75
892.233	15143.75
892.473	15261.75
892.713	15097.75
892.952	15032.75
893.192	15148.75
893.432	15062.75
893.671	14969.75
893.911	14936.75
894.15	14893.75
894.39	14816.75
894.629	14601.75
894.869	14694.75
895.108	14414.75
895.347	14430.75
895.587	14438.75
895.826	14335.75
896.065	14329.75
896.304	14262.75
896.543	14303.75
896.782	14106.75
897.021	14118.75
897.26	14075.75
897.499	14109.75
897.738	14082.75
897.977	13865.75
898.216	13836.75
898.454	13739.75
898.693	13499.75
898.932	13528.75
899.17	13434.75
899.409	13443.75
899.647	13408.75
899.886	13301.75
900.124	13311.75
900.363	13365.75
900.601	13360.75
900.839	13414.75
901.078	13371.75
901.316	13375.75
901.554	13422.75
901.792	13378.75
902.03	13345.75
902.268	13399.75
902.506	13372.75
902.744	13282.75
902.982	13151.75
903.22	12989.75
903.458	12911.75
903.695	12774.75
903.933	12614.75
904.171	12368.75
904.409	12238.75
904.646	12195.75
904.884	11901.75
905.121	11836.75
905.359	11699.75
905.596	11630.75
905.833	11384.75
906.071	11392.75
906.308	11422.75
906.545	11354.75
906.783	11207.75
907.02	11249.75
907.257	11226.75
907.494	11232.75
907.731	11251.75
907.968	11190.75
908.205	11100.75
908.442	11040.75
908.679	10974.75
908.915	10872.75
909.152	10811.75
909.389	10618.75
909.626	10542.75
909.862	10449.75
910.099	10457.75
910.335	10383.75
910.572	10275.75
910.808	10332.75
911.045	10282.75
911.281	10262.75
911.518	10220.75
911.754	10189.75
911.99	10131.75
912.226	10023.75
912.463	9971.75
912.699	9860.75
912.935	9773.75
913.171	9763.75
913.407	9579.75
913.643	9548.75
913.879	9481.75
914.114	9394.75
914.35	9368.75
914.586	9255.75
914.822	9098.75
915.057	9145.75
915.293	8975.75
915.529	8877.75
915.764	8975.75
916	8896.75
916.235	8876.75
916.471	8885.75
916.706	8792.75
916.941	8834.75
917.177	8815.75
917.412	8798.75
917.647	8809.75
917.882	8670.75
918.117	8717.75
918.352	8741.75
918.588	8781.75
918.823	8635.75
919.057	8580.75
919.292	8320.75
919.527	8396.75
919.762	8241.75
919.997	8226.75
920.232	8106.75
920.466	8043.75
920.701	7887.75
920.935	7897.75
921.17	7795.75
921.405	7798.75
921.639	7797.75
921.873	7752.75
922.108	7720.75
922.342	7648.75
922.576	7628.75
922.811	7634.75
923.045	7650.75
923.279	7626.75
923.513	7430.75
923.747	7541.75
923.981	7435.75
924.215	7334.75
924.449	7384.75
924.683	7237.75
924.917	7178.75
925.151	7119.75
925.385	7185.75
925.618	7157.75
925.852	7104.75
926.086	7054.75
926.319	7080.75
926.553	7120.75
926.786	7079.75
927.02	7025.75
927.253	7066.75
927.486	7098.75
927.72	6970.75
927.953	7019.75
928.186	7006.75
928.42	6940.75
928.653	6888.75
928.886	6875.75
929.119	6835.75
929.352	6808.75
929.585	6755.75
929.818	6653.75
930.051	6663.75
930.284	6638.75
930.516	6525.75
930.749	6459.75
930.982	6499.75
931.215	6392.75
931.447	6383.75
931.68	6337.75
931.912	6357.75
932.145	6359.75
932.377	6331.75
932.61	6435.75
932.842	6275.75
933.074	6300.75
933.307	6265.75
933.539	6430.75
933.771	6336.75
934.003	6292.75
934.236	6331.75
934.468	6287.75
934.7	6231.75
934.932	6232.75
935.164	6190.75
935.395	6160.75
935.627	6146.75
935.859	6123.75
936.091	6093.75
936.323	6102.75
936.554	6142.75
936.786	6027.75
937.017	5982.75
937.249	5971.75
937.481	5930.75
937.712	5949.75
937.943	5954.75
938.175	5880.75
938.406	5913.75
938.637	5922.75
938.869	5848.75
939.1	5858.75
939.331	5767.75
939.562	5778.75
939.793	5822.75
940.024	5772.75
940.255	5787.75
940.486	5739.75
940.717	5715.75
940.948	5645.75
941.179	5583.75
941.409	5620.75
941.64	5563.75
941.871	5614.75
942.102	5554.75
942.332	5567.75
942.563	5674.75
942.793	5567.75
943.024	5515.75
943.254	5524.75
943.484	5587.75
943.715	5560.75
943.945	5560.75
944.175	5476.75
944.405	5459.75
944.636	5448.75
944.866	5518.75
945.096	5562.75
945.326	5431.75
945.556	5475.75
945.786	5432.75
946.016	5335.75
946.245	5356.75
946.475	5262.75
946.705	5225.75
946.935	5198.75
947.164	5193.75
947.394	5133.75
947.624	5105.75
947.853	5153.75
948.083	5115.75
948.312	5072.75
948.542	5014.75
948.771	5014.75
949	4991.75
949.23	4968.75
949.459	5001.75
949.688	5079.75
949.917	4965.75
950.146	4976.75
950.375	5017.75
950.604	4917.75
950.833	5042.75
951.062	4982.75
951.291	4937.75
951.52	4921.75
951.749	4908.75
951.978	4822.75
952.206	4814.75
952.435	4817.75
952.664	4815.75
952.892	4811.75
953.121	4788.75
953.349	4761.75
953.578	4752.75
953.806	4714.75
954.035	4687.75
954.263	4704.75
954.491	4613.75
954.719	4631.75
954.948	4555.75
955.176	4548.75
955.404	4510.75
955.632	4586.75
955.86	4520.75
956.088	4481.75
956.316	4512.75
956.544	4519.75
956.772	4414.75
956.999	4409.75
957.227	4454.75
957.455	4296.75
957.683	4330.75
957.91	4301.75
958.138	4246.75
958.365	4220.75
958.593	4213.75
958.82	4156.75
959.048	4215.75
959.275	4174.75
959.502	4161.75
959.73	4145.75
959.957	4172.75
960.184	4214.75
960.411	4072.75
960.638	4159.75
960.865	4133.75
961.092	4126.75
961.319	4037.75
961.546	4118.75
961.773	4139.75
962	4063.75
962.227	4094.75
962.454	4005.75
962.68	4008.75
962.907	4008.75
963.134	3977.75
963.36	3941.75
963.587	3988.75
963.813	3876.75
964.04	3940.75
964.266	3819.75
964.493	3900.75
964.719	3891.75
964.945	3858.75
965.171	3755.75
965.398	3759.75
965.624	3773.75
965.85	3705.75
966.076	3704.75
966.302	3712.75
966.528	3652.75
966.754	3727.75
966.98	3692.75
967.206	3658.75
967.431	3598.75
967.657	3684.75
967.883	3653.75
968.109	3614.75
968.334	3591.75
968.56	3557.75
968.785	3568.75
969.011	3478.75
969.236	3569.75
969.462	3531.75
969.687	3507.75
969.912	3501.75
970.138	3544.75
970.363	3439.75
970.588	3496.75
970.813	3471.75
971.038	3409.75
971.263	3440.75
971.488	3420.75
971.713	3445.75
971.938	3443.75
972.163	3289.75
972.388	3323.75
972.613	3283.75
972.838	3329.75
973.062	3276.75
973.287	3251.75
973.512	3239.75
973.736	3256.75
973.961	3232.75
974.185	3225.75
974.41	3222.75
974.634	3156.75
974.858	3136.75
975.083	3157.75
975.307	3161.75
975.531	3097.75
975.755	2993.75
975.98	3032.75
976.204	2988.75
976.428	2972.75
976.652	2977.75
976.876	2922.75
977.1	2954.75
977.324	2918.75
977.547	2953.75
977.771	2938.75
977.995	2925.75
978.219	2857.75
978.442	2930.75
978.666	2925.75
978.89	2895.75
979.113	2889.75
979.337	2886.75
979.56	2847.75
979.783	2915.75
980.007	2817.75
980.23	2821.75
980.453	2779.75
980.677	2813.75
980.9	2793.75
981.123	2714.75
981.346	2802.75
981.569	2786.75
981.792	2744.75
982.015	2747.75
982.238	2687.75
982.461	2709.75
982.684	2629.75
982.907	2583.75
983.129	2631.75
983.352	2669.75
983.575	2597.75
983.797	2614.75
984.02	2588.75
984.242	2583.75
984.465	2574.75
984.687	2586.75
984.91	2608.75
985.132	2576.75
985.354	2569.75
985.577	2505.75
985.799	2488.75
986.021	2431.75
986.243	2454.75
986.465	2475.75
986.687	2518.75
986.909	2500.75
987.131	2481.75
987.353	2420.75
987.575	2424.75
987.797	2406.75
988.019	2354.75
988.241	2399.75
988.462	2369.75
988.684	2394.75
988.906	2428.75
989.127	2426.75
989.349	2342.75
989.57	2370.75
989.792	2430.75
990.013	2398.75
990.234	2416.75
990.456	2436.75
990.677	2395.75
990.898	2303.75
991.119	2354.75
991.341	2311.75
991.562	2251.75
991.783	2307.75
992.004	2226.75
992.225	2212.75
992.446	2262.75
992.667	2176.75
992.887	2241.75
993.108	2152.75
993.329	2269.75
993.55	2193.75
993.77	2132.75
993.991	2144.75
994.212	2161.75
994.432	2144.75
994.653	2150.75
994.873	2128.75
995.093	2030.75
995.314	2051.75
995.534	2122.75
995.754	2138.75
995.975	2139.75
996.195	2016.75
996.415	2097.75
996.635	2046.75
996.855	2049.75
997.075	2034.75
997.295	2028.75
997.515	2032.75
997.735	2083.75
997.955	2028.75
998.174	2003.75
998.394	2007.75
998.614	2050.75
998.834	1989.75
999.053	2056.75
999.273	1988.75
999.492	2039.75
999.712	1992.75
999.931	1957.75
1000.151	2016.75
1000.37	1958.75
1000.589	2010.75
1000.809	1931.75
1001.028	2048.75
1001.247	1936.75
1001.466	1877.75
1001.685	1977.75
1001.904	1953.75
1002.123	1918.75
1002.342	1929.75
1002.561	1866.75
1002.78	1895.75
1002.999	1936.75
1003.218	1881.75
1003.436	1878.75
1003.655	1890.75
1003.874	1833.75
1004.092	1890.75
1004.311	1886.75
1004.53	1873.75
1004.748	1911.75
1004.966	1845.75
1005.185	1871.75
1005.403	1858.75
1005.622	1850.75
1005.84	1925.75
1006.058	1781.75
1006.276	1851.75
1006.494	2308.75
1006.712	1814.75
1006.931	1860.75
1007.149	1808.75
1007.367	1796.75
1007.584	1830.75
1007.802	1872.75
1008.02	1799.75
1008.238	1875.75
1008.456	1878.75
1008.673	1748.75
1008.891	1835.75
1009.109	1800.75
1009.326	1851.75
1009.544	1937.75
1009.761	1822.75
1009.979	1911.75
1010.196	1904.75
1010.413	1987.75
1010.631	2054.75
1010.848	2076.75
1011.065	2111.75
1011.282	2016.75
1011.5	1949.75
1011.717	2055.75
1011.934	2013.75
1012.151	2061.75
1012.368	2043.75
1012.585	1944.75
1012.801	2003.75
1013.018	1993.75
1013.235	1962.75
1013.452	1960.75
1013.669	1976.75
1013.885	1935.75
1014.102	2000.75
1014.318	1952.75
1014.535	1903.75
1014.751	1946.75
1014.968	1946.75
1015.184	1954.75
1015.401	1879.75
1015.617	1908.75
1015.833	1848.75
1016.049	1844.75
1016.266	1790.75
1016.482	1794.75
1016.698	1780.75
1016.914	1831.75
1017.13	1749.75
1017.346	1771.75
1017.562	1811.75
1017.778	1739.75
1017.993	1685.75
1018.209	1748.75
1018.425	1717.75
1018.641	1705.75
1018.856	1670.75
1019.072	1719.75
1019.288	1760.75
1019.503	1740.75
1019.719	1650.75
1019.934	1633.75
1020.149	1726.75
1020.365	1634.75
1020.58	1573.75
1020.795	1635.75
1021.011	1599.75
1021.226	1528.75
1021.441	1568.75
1021.656	1463.75
1021.871	1420.75
1022.086	1438.75
1022.301	1410.75
1022.516	1380.75
1022.731	1432.75
1022.946	1348.75
1023.16	1313.75
1023.375	1293.75
1023.59	1272.75
1023.804	1259.75
1024.019	1340.75
1024.234	1204.75
1024.448	1266.75
1024.663	1152.75
1024.877	1180.75
1025.092	1185.75
1025.306	1198.75
1025.52	1106.75
1025.734	1179.75
1025.949	1092.75
1026.163	1053.75
1026.377	996.75
1026.591	1044.75
1026.805	978.75
1027.019	945.75
1027.233	924.75
1027.447	905.75
1027.661	980.75
1027.875	909.75
1028.088	937.75
1028.302	839.75
1028.516	827.75
1028.73	807.75
1028.943	830.75
1029.157	742.75
1029.37	710.75
1029.584	-1.25
1029.797	0.75
1030.011	-1.25
1030.224	1.75
