Data from QEP037381__450__17-09-17-248.txt Node

Date: Fri Dec 16 17:09:17 EST 2022
User: dcclab
Spectrometer: QEP03738
Trigger mode: 4
Integration Time (sec): 1.000000E1
Scans to average: 1
Electric dark correction enabled: true
Nonlinearity correction enabled: false
Boxcar width: 0
XAxis mode: Wavelengths
Number of Pixels in Spectrum: 1044
>>>>>Begin Spectral Data<<<<<
784.041	11.88
784.3	-0.12
784.558	0.88
784.817	-4.12
785.075	94652.88
785.334	16242.88
785.592	7555.88
785.851	5220.88
786.109	3960.88
786.368	3086.88
786.626	2491.88
786.884	2068.88
787.143	1757.88
787.401	1439.88
787.659	1289.88
787.917	1127.88
788.175	1039.88
788.433	928.88
788.691	821.88
788.949	766.88
789.207	735.88
789.465	639.88
789.723	619.88
789.98	571.88
790.238	605.88
790.496	564.88
790.753	539.88
791.011	577.88
791.268	522.88
791.526	499.88
791.783	532.88
792.041	509.88
792.298	439.88
792.556	487.88
792.813	476.88
793.07	437.88
793.327	436.88
793.584	511.88
793.841	437.88
794.099	466.88
794.356	529.88
794.613	411.88
794.869	465.88
795.126	412.88
795.383	402.88
795.64	426.88
795.897	379.88
796.153	435.88
796.41	420.88
796.667	416.88
796.923	414.88
797.18	423.88
797.436	454.88
797.693	413.88
797.949	474.88
798.206	478.88
798.462	402.88
798.718	461.88
798.974	438.88
799.231	485.88
799.487	463.88
799.743	471.88
799.999	494.88
800.255	487.88
800.511	479.88
800.767	531.88
801.023	519.88
801.279	554.88
801.534	566.88
801.79	621.88
802.046	650.88
802.302	791.88
802.557	861.88
802.813	1054.88
803.068	1298.88
803.324	1791.88
803.579	2390.88
803.835	3291.88
804.09	4583.88
804.345	6009.88
804.601	7673.88
804.856	9289.88
805.111	10791.88
805.366	11898.88
805.621	12727.88
805.876	13247.88
806.131	13590.88
806.386	13995.88
806.641	14181.88
806.896	14345.88
807.151	14655.88
807.406	14900.88
807.661	15223.88
807.915	15451.88
808.17	15765.88
808.425	15910.88
808.679	16004.88
808.934	16230.88
809.188	16361.88
809.443	16599.88
809.697	16831.88
809.951	16932.88
810.206	16999.88
810.46	17257.88
810.714	17265.88
810.968	17559.88
811.223	17569.88
811.477	17874.88
811.731	17947.88
811.985	18041.88
812.239	18101.88
812.493	18173.88
812.747	18308.88
813	18260.88
813.254	18421.88
813.508	18548.88
813.762	18530.88
814.015	18629.88
814.269	18846.88
814.522	18994.88
814.776	19238.88
815.03	19413.88
815.283	19705.88
815.536	20108.88
815.79	20357.88
816.043	20647.88
816.296	20951.88
816.55	21144.88
816.803	21426.88
817.056	21735.88
817.309	21868.88
817.562	22072.88
817.815	22377.88
818.068	22552.88
818.321	22673.88
818.574	22997.88
818.827	23215.88
819.079	23642.88
819.332	24047.88
819.585	24214.88
819.838	24575.88
820.09	24704.88
820.343	24946.88
820.595	25094.88
820.848	25197.88
821.1	25314.88
821.353	25388.88
821.605	25277.88
821.857	25315.88
822.11	25213.88
822.362	25087.88
822.614	24969.88
822.866	25079.88
823.118	24931.88
823.37	25169.88
823.622	25240.88
823.874	25288.88
824.126	25397.88
824.378	25361.88
824.63	25511.88
824.882	25623.88
825.134	25534.88
825.385	25583.88
825.637	25437.88
825.888	25289.88
826.14	25323.88
826.392	25117.88
826.643	25070.88
826.895	24944.88
827.146	24867.88
827.397	24879.88
827.649	24871.88
827.9	24618.88
828.151	24814.88
828.402	24776.88
828.653	24940.88
828.905	24940.88
829.156	25113.88
829.407	24893.88
829.658	24872.88
829.909	24936.88
830.159	24861.88
830.41	24768.88
830.661	24625.88
830.912	24476.88
831.162	24374.88
831.413	24453.88
831.664	24390.88
831.914	24305.88
832.165	24242.88
832.415	24307.88
832.666	24361.88
832.916	24251.88
833.167	24219.88
833.417	24371.88
833.667	24203.88
833.917	24160.88
834.168	24213.88
834.418	24021.88
834.668	23848.88
834.918	23736.88
835.168	23687.88
835.418	23560.88
835.668	23551.88
835.918	23540.88
836.167	23338.88
836.417	23301.88
836.667	23267.88
836.917	23339.88
837.166	23289.88
837.416	23353.88
837.666	23259.88
837.915	23116.88
838.165	23028.88
838.414	22991.88
838.663	22920.88
838.913	22940.88
839.162	22836.88
839.411	22858.88
839.661	22674.88
839.91	22696.88
840.159	22516.88
840.408	22604.88
840.657	22561.88
840.906	22596.88
841.155	22469.88
841.404	22609.88
841.653	22493.88
841.902	22470.88
842.15	22541.88
842.399	22499.88
842.648	22398.88
842.897	22341.88
843.145	22183.88
843.394	22188.88
843.642	22087.88
843.891	22016.88
844.139	21756.88
844.388	21670.88
844.636	21632.88
844.884	21568.88
845.133	21486.88
845.381	21544.88
845.629	21423.88
845.877	21447.88
846.125	21512.88
846.373	21361.88
846.621	21406.88
846.869	21288.88
847.117	21092.88
847.365	21065.88
847.613	20957.88
847.861	20841.88
848.108	20865.88
848.356	20753.88
848.604	20612.88
848.851	20762.88
849.099	20724.88
849.346	20791.88
849.594	20887.88
849.841	20993.88
850.089	20861.88
850.336	20862.88
850.583	20844.88
850.831	20800.88
851.078	20738.88
851.325	20750.88
851.572	20826.88
851.819	20478.88
852.066	20117.88
852.313	19838.88
852.56	19639.88
852.807	19602.88
853.054	19571.88
853.301	19482.88
853.548	19478.88
853.794	19694.88
854.041	19588.88
854.288	19673.88
854.534	19882.88
854.781	19808.88
855.028	19760.88
855.274	19733.88
855.52	19589.88
855.767	19479.88
856.013	19332.88
856.26	19633.88
856.506	19205.88
856.752	19249.88
856.998	19316.88
857.244	19256.88
857.49	19372.88
857.736	19412.88
857.982	19358.88
858.228	19278.88
858.474	19163.88
858.72	19030.88
858.966	18959.88
859.212	18694.88
859.458	18528.88
859.703	18336.88
859.949	18232.88
860.195	18069.88
860.44	17899.88
860.686	17877.88
860.931	17815.88
861.177	17688.88
861.422	17707.88
861.667	17594.88
861.913	17657.88
862.158	17568.88
862.403	17701.88
862.648	17738.88
862.893	17765.88
863.138	17650.88
863.384	17627.88
863.629	17777.88
863.873	17637.88
864.118	17558.88
864.363	17500.88
864.608	17341.88
864.853	17357.88
865.098	17392.88
865.342	17255.88
865.587	17067.88
865.832	17198.88
866.076	17026.88
866.321	16946.88
866.565	16880.88
866.81	16772.88
867.054	16730.88
867.298	16717.88
867.543	16703.88
867.787	16660.88
868.031	16638.88
868.275	16578.88
868.519	16543.88
868.764	16482.88
869.008	16457.88
869.252	16414.88
869.496	16278.88
869.739	16325.88
869.983	16223.88
870.227	16144.88
870.471	16175.88
870.715	16270.88
870.958	16307.88
871.202	16251.88
871.446	16358.88
871.689	16343.88
871.933	16308.88
872.176	16323.88
872.42	16272.88
872.663	16240.88
872.906	16177.88
873.15	16035.88
873.393	15942.88
873.636	16022.88
873.879	15751.88
874.122	15661.88
874.366	15427.88
874.609	15307.88
874.852	15194.88
875.095	15290.88
875.337	14967.88
875.58	14991.88
875.823	15018.88
876.066	14966.88
876.309	14950.88
876.551	14811.88
876.794	14801.88
877.037	14768.88
877.279	14670.88
877.522	14800.88
877.764	14684.88
878.007	14630.88
878.249	14585.88
878.491	14487.88
878.734	14595.88
878.976	14508.88
879.218	14410.88
879.46	14312.88
879.702	14275.88
879.945	14165.88
880.187	14036.88
880.429	13942.88
880.671	13942.88
880.912	13752.88
881.154	13813.88
881.396	13737.88
881.638	13792.88
881.88	13792.88
882.121	13662.88
882.363	13601.88
882.605	13675.88
882.846	13594.88
883.088	13521.88
883.329	13556.88
883.571	13493.88
883.812	13438.88
884.053	13598.88
884.295	13771.88
884.536	13910.88
884.777	13774.88
885.018	13759.88
885.259	13713.88
885.5	13669.88
885.742	13789.88
885.982	13569.88
886.223	13443.88
886.464	13378.88
886.705	13317.88
886.946	13229.88
887.187	13013.88
887.428	12907.88
887.668	12707.88
887.909	12636.88
888.15	12553.88
888.39	12462.88
888.631	12508.88
888.871	12265.88
889.111	12217.88
889.352	12145.88
889.592	11985.88
889.833	11892.88
890.073	11801.88
890.313	11862.88
890.553	11700.88
890.793	11615.88
891.033	11558.88
891.273	11529.88
891.513	11546.88
891.753	11484.88
891.993	11545.88
892.233	11428.88
892.473	11609.88
892.713	11492.88
892.952	11491.88
893.192	11607.88
893.432	11553.88
893.671	11544.88
893.911	11407.88
894.15	11354.88
894.39	11228.88
894.629	11228.88
894.869	11207.88
895.108	11098.88
895.347	10997.88
895.587	11059.88
895.826	10954.88
896.065	10888.88
896.304	10937.88
896.543	10922.88
896.782	10886.88
897.021	10803.88
897.26	10773.88
897.499	10883.88
897.738	10844.88
897.977	10707.88
898.216	10588.88
898.454	10553.88
898.693	10374.88
898.932	10400.88
899.17	10383.88
899.409	10250.88
899.647	10306.88
899.886	10261.88
900.124	10261.88
900.363	10252.88
900.601	10255.88
900.839	10218.88
901.078	10213.88
901.316	10343.88
901.554	10320.88
901.792	10365.88
902.03	10292.88
902.268	10283.88
902.506	10284.88
902.744	10152.88
902.982	10219.88
903.22	10030.88
903.458	9881.88
903.695	9782.88
903.933	9687.88
904.171	9472.88
904.409	9355.88
904.646	9266.88
904.884	9159.88
905.121	9070.88
905.359	8970.88
905.596	8833.88
905.833	8799.88
906.071	8720.88
906.308	8747.88
906.545	8768.88
906.783	8670.88
907.02	8572.88
907.257	8610.88
907.494	8627.88
907.731	8637.88
907.968	8626.88
908.205	8506.88
908.442	8412.88
908.679	8390.88
908.915	8280.88
909.152	8216.88
909.389	8097.88
909.626	8094.88
909.862	8044.88
910.099	7998.88
910.335	8054.88
910.572	7961.88
910.808	7934.88
911.045	7858.88
911.281	7877.88
911.518	7883.88
911.754	7724.88
911.99	7764.88
912.226	7699.88
912.463	7564.88
912.699	7555.88
912.935	7487.88
913.171	7425.88
913.407	7383.88
913.643	7384.88
913.879	7228.88
914.114	7209.88
914.35	7123.88
914.586	7087.88
914.822	7040.88
915.057	7032.88
915.293	6875.88
915.529	6870.88
915.764	6965.88
916	6889.88
916.235	6810.88
916.471	6900.88
916.706	6774.88
916.941	6784.88
917.177	6829.88
917.412	6726.88
917.647	6783.88
917.882	6712.88
918.117	6760.88
918.352	6701.88
918.588	6675.88
918.823	6599.88
919.057	6612.88
919.292	6433.88
919.527	6473.88
919.762	6394.88
919.997	6367.88
920.232	6142.88
920.466	6252.88
920.701	6078.88
920.935	6148.88
921.17	6035.88
921.405	5964.88
921.639	6022.88
921.873	6001.88
922.108	5944.88
922.342	6019.88
922.576	5906.88
922.811	5866.88
923.045	5894.88
923.279	5909.88
923.513	5744.88
923.747	5802.88
923.981	5748.88
924.215	5674.88
924.449	5673.88
924.683	5569.88
924.917	5580.88
925.151	5572.88
925.385	5610.88
925.618	5579.88
925.852	5484.88
926.086	5437.88
926.319	5490.88
926.553	5527.88
926.786	5472.88
927.02	5490.88
927.253	5541.88
927.486	5511.88
927.72	5450.88
927.953	5474.88
928.186	5432.88
928.42	5385.88
928.653	5325.88
928.886	5305.88
929.119	5316.88
929.352	5271.88
929.585	5238.88
929.818	5182.88
930.051	5176.88
930.284	5165.88
930.516	5046.88
930.749	5038.88
930.982	5048.88
931.215	5034.88
931.447	4967.88
931.68	4943.88
931.912	4881.88
932.145	4930.88
932.377	4970.88
932.61	5065.88
932.842	4858.88
933.074	4907.88
933.307	4904.88
933.539	4977.88
933.771	4915.88
934.003	4863.88
934.236	4933.88
934.468	4979.88
934.7	4851.88
934.932	4895.88
935.164	4825.88
935.395	4844.88
935.627	4797.88
935.859	4826.88
936.091	4742.88
936.323	4808.88
936.554	4765.88
936.786	4721.88
937.017	4655.88
937.249	4730.88
937.481	4626.88
937.712	4689.88
937.943	4626.88
938.175	4657.88
938.406	4643.88
938.637	4684.88
938.869	4543.88
939.1	4595.88
939.331	4567.88
939.562	4571.88
939.793	4547.88
940.024	4545.88
940.255	4576.88
940.486	4463.88
940.717	4485.88
940.948	4422.88
941.179	4354.88
941.409	4425.88
941.64	4379.88
941.871	4402.88
942.102	4359.88
942.332	4374.88
942.563	4415.88
942.793	4400.88
943.024	4366.88
943.254	4353.88
943.484	4404.88
943.715	4413.88
943.945	4375.88
944.175	4290.88
944.405	4280.88
944.636	4285.88
944.866	4348.88
945.096	4328.88
945.326	4225.88
945.556	4295.88
945.786	4293.88
946.016	4216.88
946.245	4154.88
946.475	4149.88
946.705	4105.88
946.935	4142.88
947.164	4105.88
947.394	4027.88
947.624	4036.88
947.853	4102.88
948.083	4017.88
948.312	4006.88
948.542	3942.88
948.771	3914.88
949	3918.88
949.23	3917.88
949.459	3953.88
949.688	4030.88
949.917	3925.88
950.146	3921.88
950.375	4002.88
950.604	3879.88
950.833	3951.88
951.062	3910.88
951.291	3861.88
951.52	3851.88
951.749	3875.88
951.978	3873.88
952.206	3845.88
952.435	3813.88
952.664	3875.88
952.892	3832.88
953.121	3763.88
953.349	3836.88
953.578	3793.88
953.806	3688.88
954.035	3677.88
954.263	3687.88
954.491	3662.88
954.719	3710.88
954.948	3615.88
955.176	3615.88
955.404	3546.88
955.632	3600.88
955.86	3576.88
956.088	3588.88
956.316	3520.88
956.544	3557.88
956.772	3500.88
956.999	3468.88
957.227	3562.88
957.455	3438.88
957.683	3458.88
957.91	3409.88
958.138	3365.88
958.365	3375.88
958.593	3364.88
958.82	3299.88
959.048	3357.88
959.275	3348.88
959.502	3335.88
959.73	3279.88
959.957	3316.88
960.184	3344.88
960.411	3267.88
960.638	3383.88
960.865	3273.88
961.092	3293.88
961.319	3242.88
961.546	3288.88
961.773	3262.88
962	3247.88
962.227	3264.88
962.454	3295.88
962.68	3241.88
962.907	3258.88
963.134	3157.88
963.36	3173.88
963.587	3157.88
963.813	3145.88
964.04	3136.88
964.266	3051.88
964.493	3136.88
964.719	3106.88
964.945	3072.88
965.171	2999.88
965.398	3040.88
965.624	3066.88
965.85	2983.88
966.076	2997.88
966.302	3001.88
966.528	2989.88
966.754	2995.88
966.98	2969.88
967.206	2917.88
967.431	2849.88
967.657	2956.88
967.883	2958.88
968.109	2917.88
968.334	2877.88
968.56	2853.88
968.785	2836.88
969.011	2833.88
969.236	2882.88
969.462	2831.88
969.687	2820.88
969.912	2897.88
970.138	2881.88
970.363	2773.88
970.588	2816.88
970.813	2783.88
971.038	2727.88
971.263	2761.88
971.488	2774.88
971.713	2815.88
971.938	2797.88
972.163	2646.88
972.388	2672.88
972.613	2679.88
972.838	2689.88
973.062	2632.88
973.287	2672.88
973.512	2613.88
973.736	2651.88
973.961	2567.88
974.185	2577.88
974.41	2616.88
974.634	2523.88
974.858	2510.88
975.083	2503.88
975.307	2554.88
975.531	2532.88
975.755	2457.88
975.98	2471.88
976.204	2389.88
976.428	2385.88
976.652	2382.88
976.876	2393.88
977.1	2376.88
977.324	2377.88
977.547	2414.88
977.771	2409.88
977.995	2390.88
978.219	2330.88
978.442	2421.88
978.666	2391.88
978.89	2378.88
979.113	2384.88
979.337	2330.88
979.56	2329.88
979.783	2395.88
980.007	2282.88
980.23	2329.88
980.453	2290.88
980.677	2294.88
980.9	2272.88
981.123	2183.88
981.346	2291.88
981.569	2271.88
981.792	2282.88
982.015	2230.88
982.238	2211.88
982.461	2231.88
982.684	2164.88
982.907	2162.88
983.129	2152.88
983.352	2175.88
983.575	2180.88
983.797	2139.88
984.02	2086.88
984.242	2114.88
984.465	2102.88
984.687	2115.88
984.91	2135.88
985.132	2102.88
985.354	2115.88
985.577	2130.88
985.799	2064.88
986.021	2009.88
986.243	2035.88
986.465	2050.88
986.687	2075.88
986.909	2107.88
987.131	2046.88
987.353	2000.88
987.575	2029.88
987.797	1977.88
988.019	1915.88
988.241	1976.88
988.462	1942.88
988.684	1985.88
988.906	2012.88
989.127	2041.88
989.349	1928.88
989.57	1945.88
989.792	1998.88
990.013	1997.88
990.234	1981.88
990.456	2007.88
990.677	1978.88
990.898	1934.88
991.119	1915.88
991.341	1961.88
991.562	1910.88
991.783	1918.88
992.004	1862.88
992.225	1838.88
992.446	1904.88
992.667	1804.88
992.887	1876.88
993.108	1760.88
993.329	1899.88
993.55	1807.88
993.77	1779.88
993.991	1799.88
994.212	1804.88
994.432	1817.88
994.653	1804.88
994.873	1800.88
995.093	1676.88
995.314	1714.88
995.534	1791.88
995.754	1754.88
995.975	1809.88
996.195	1683.88
996.415	1744.88
996.635	1749.88
996.855	1730.88
997.075	1703.88
997.295	1726.88
997.515	1681.88
997.735	1750.88
997.955	1718.88
998.174	1693.88
998.394	1664.88
998.614	1718.88
998.834	1675.88
999.053	1739.88
999.273	1700.88
999.492	1785.88
999.712	1700.88
999.931	1667.88
1000.151	1677.88
1000.37	1684.88
1000.589	1702.88
1000.809	1660.88
1001.028	1738.88
1001.247	1677.88
1001.466	1586.88
1001.685	1708.88
1001.904	1654.88
1002.123	1656.88
1002.342	1640.88
1002.561	1612.88
1002.78	1620.88
1002.999	1678.88
1003.218	1619.88
1003.436	1575.88
1003.655	1627.88
1003.874	1583.88
1004.092	1607.88
1004.311	1625.88
1004.53	1573.88
1004.748	1683.88
1004.966	1591.88
1005.185	1621.88
1005.403	1644.88
1005.622	1589.88
1005.84	1696.88
1006.058	1544.88
1006.276	1590.88
1006.494	2070.88
1006.712	1585.88
1006.931	1628.88
1007.149	1544.88
1007.367	1548.88
1007.584	1602.88
1007.802	1627.88
1008.02	1543.88
1008.238	1649.88
1008.456	1664.88
1008.673	1495.88
1008.891	1634.88
1009.109	1579.88
1009.326	1598.88
1009.544	1676.88
1009.761	1598.88
1009.979	1694.88
1010.196	1655.88
1010.413	1725.88
1010.631	1775.88
1010.848	1791.88
1011.065	1807.88
1011.282	1752.88
1011.5	1680.88
1011.717	1794.88
1011.934	1746.88
1012.151	1780.88
1012.368	1761.88
1012.585	1697.88
1012.801	1730.88
1013.018	1717.88
1013.235	1697.88
1013.452	1714.88
1013.669	1699.88
1013.885	1653.88
1014.102	1712.88
1014.318	1705.88
1014.535	1657.88
1014.751	1698.88
1014.968	1661.88
1015.184	1719.88
1015.401	1617.88
1015.617	1677.88
1015.833	1595.88
1016.049	1602.88
1016.266	1570.88
1016.482	1620.88
1016.698	1523.88
1016.914	1577.88
1017.13	1496.88
1017.346	1534.88
1017.562	1574.88
1017.778	1515.88
1017.993	1493.88
1018.209	1529.88
1018.425	1534.88
1018.641	1508.88
1018.856	1454.88
1019.072	1495.88
1019.288	1547.88
1019.503	1485.88
1019.719	1396.88
1019.934	1418.88
1020.149	1521.88
1020.365	1433.88
1020.58	1379.88
1020.795	1437.88
1021.011	1385.88
1021.226	1343.88
1021.441	1397.88
1021.656	1316.88
1021.871	1250.88
1022.086	1271.88
1022.301	1248.88
1022.516	1212.88
1022.731	1260.88
1022.946	1193.88
1023.16	1183.88
1023.375	1131.88
1023.59	1158.88
1023.804	1102.88
1024.019	1208.88
1024.234	1070.88
1024.448	1089.88
1024.663	1050.88
1024.877	1065.88
1025.092	1060.88
1025.306	1086.88
1025.52	959.88
1025.734	1040.88
1025.949	965.88
1026.163	942.88
1026.377	893.88
1026.591	914.88
1026.805	856.88
1027.019	852.88
1027.233	822.88
1027.447	761.88
1027.661	845.88
1027.875	813.88
1028.088	818.88
1028.302	764.88
1028.516	722.88
1028.73	740.88
1028.943	721.88
1029.157	682.88
1029.37	622.88
1029.584	-3.12
1029.797	-3.12
1030.011	0.88
1030.224	-3.12
