Data from QEP037381__467__17-12-07-250.txt Node

Date: Fri Dec 16 17:12:07 EST 2022
User: dcclab
Spectrometer: QEP03738
Trigger mode: 4
Integration Time (sec): 1.000000E1
Scans to average: 1
Electric dark correction enabled: true
Nonlinearity correction enabled: false
Boxcar width: 0
XAxis mode: Wavelengths
Number of Pixels in Spectrum: 1044
>>>>>Begin Spectral Data<<<<<
784.041	12.25
784.3	-0.75
784.558	-1.75
784.817	-4.75
785.075	89793.25
785.334	15311.25
785.592	7132.25
785.851	4925.25
786.109	3753.25
786.368	2944.25
786.626	2382.25
786.884	1994.25
787.143	1692.25
787.401	1376.25
787.659	1265.25
787.917	1076.25
788.175	1007.25
788.433	875.25
788.691	804.25
788.949	725.25
789.207	705.25
789.465	610.25
789.723	597.25
789.98	552.25
790.238	577.25
790.496	550.25
790.753	516.25
791.011	580.25
791.268	516.25
791.526	501.25
791.783	519.25
792.041	498.25
792.298	422.25
792.556	486.25
792.813	470.25
793.07	438.25
793.327	432.25
793.584	526.25
793.841	441.25
794.099	475.25
794.356	508.25
794.613	431.25
794.869	452.25
795.126	410.25
795.383	400.25
795.64	435.25
795.897	378.25
796.153	440.25
796.41	412.25
796.667	414.25
796.923	424.25
797.18	416.25
797.436	433.25
797.693	407.25
797.949	461.25
798.206	486.25
798.462	409.25
798.718	458.25
798.974	431.25
799.231	469.25
799.487	463.25
799.743	462.25
799.999	496.25
800.255	497.25
800.511	480.25
800.767	511.25
801.023	498.25
801.279	534.25
801.534	565.25
801.79	631.25
802.046	640.25
802.302	736.25
802.557	837.25
802.813	1033.25
803.068	1244.25
803.324	1708.25
803.579	2313.25
803.835	3193.25
804.09	4416.25
804.345	5771.25
804.601	7412.25
804.856	9055.25
805.111	10415.25
805.366	11570.25
805.621	12374.25
805.876	12872.25
806.131	13333.25
806.386	13544.25
806.641	13767.25
806.896	14009.25
807.151	14383.25
807.406	14507.25
807.661	14854.25
807.915	15105.25
808.17	15329.25
808.425	15563.25
808.679	15644.25
808.934	16030.25
809.188	16016.25
809.443	16232.25
809.697	16410.25
809.951	16538.25
810.206	16717.25
810.46	16951.25
810.714	17131.25
810.968	17193.25
811.223	17374.25
811.477	17510.25
811.731	17691.25
811.985	17726.25
812.239	17864.25
812.493	17948.25
812.747	17922.25
813	18072.25
813.254	18105.25
813.508	18290.25
813.762	18405.25
814.015	18471.25
814.269	18570.25
814.522	18765.25
814.776	19064.25
815.03	19170.25
815.283	19505.25
815.536	19826.25
815.79	20265.25
816.043	20416.25
816.296	20851.25
816.55	20955.25
816.803	21191.25
817.056	21539.25
817.309	21801.25
817.562	21981.25
817.815	22175.25
818.068	22309.25
818.321	22601.25
818.574	22842.25
818.827	23243.25
819.079	23526.25
819.332	23866.25
819.585	24191.25
819.838	24548.25
820.09	24703.25
820.343	24874.25
820.595	25023.25
820.848	25199.25
821.1	25257.25
821.353	25151.25
821.605	25287.25
821.857	25316.25
822.11	25008.25
822.362	25039.25
822.614	24985.25
822.866	25057.25
823.118	24967.25
823.37	25041.25
823.622	25124.25
823.874	25103.25
824.126	25346.25
824.378	25297.25
824.63	25496.25
824.882	25479.25
825.134	25451.25
825.385	25397.25
825.637	25383.25
825.888	25280.25
826.14	25108.25
826.392	24986.25
826.643	24995.25
826.895	24902.25
827.146	24820.25
827.397	24727.25
827.649	24774.25
827.9	24716.25
828.151	24791.25
828.402	24796.25
828.653	24741.25
828.905	24958.25
829.156	24866.25
829.407	24885.25
829.658	24890.25
829.909	24847.25
830.159	24849.25
830.41	24784.25
830.661	24624.25
830.912	24377.25
831.162	24290.25
831.413	24306.25
831.664	24333.25
831.914	24283.25
832.165	24304.25
832.415	24151.25
832.666	24314.25
832.916	24315.25
833.167	24219.25
833.417	24207.25
833.667	24046.25
833.917	23898.25
834.168	23900.25
834.418	23931.25
834.668	23833.25
834.918	23590.25
835.168	23548.25
835.418	23360.25
835.668	23521.25
835.918	23374.25
836.167	23291.25
836.417	23194.25
836.667	23206.25
836.917	23217.25
837.166	23161.25
837.416	23133.25
837.666	23113.25
837.915	23054.25
838.165	22961.25
838.414	22904.25
838.663	22789.25
838.913	22882.25
839.162	22776.25
839.411	22795.25
839.661	22613.25
839.91	22622.25
840.159	22469.25
840.408	22580.25
840.657	22532.25
840.906	22423.25
841.155	22491.25
841.404	22504.25
841.653	22361.25
841.902	22465.25
842.15	22549.25
842.399	22488.25
842.648	22486.25
842.897	22306.25
843.145	22130.25
843.394	22096.25
843.642	21961.25
843.891	21907.25
844.139	21714.25
844.388	21613.25
844.636	21439.25
844.884	21490.25
845.133	21530.25
845.381	21503.25
845.629	21507.25
845.877	21299.25
846.125	21410.25
846.373	21287.25
846.621	21221.25
846.869	21188.25
847.117	21014.25
847.365	20940.25
847.613	20880.25
847.861	20717.25
848.108	20794.25
848.356	20614.25
848.604	20609.25
848.851	20551.25
849.099	20599.25
849.346	20668.25
849.594	20828.25
849.841	20811.25
850.089	20944.25
850.336	20860.25
850.583	20812.25
850.831	20768.25
851.078	20585.25
851.325	20608.25
851.572	20609.25
851.819	20407.25
852.066	20065.25
852.313	19712.25
852.56	19556.25
852.807	19443.25
853.054	19349.25
853.301	19437.25
853.548	19405.25
853.794	19571.25
854.041	19562.25
854.288	19572.25
854.534	19832.25
854.781	19645.25
855.028	19645.25
855.274	19486.25
855.52	19527.25
855.767	19291.25
856.013	19282.25
856.26	19562.25
856.506	19200.25
856.752	19153.25
856.998	19013.25
857.244	19115.25
857.49	19211.25
857.736	19276.25
857.982	19237.25
858.228	19260.25
858.474	19137.25
858.72	18882.25
858.966	18713.25
859.212	18584.25
859.458	18388.25
859.703	18232.25
859.949	18063.25
860.195	17873.25
860.44	17830.25
860.686	17719.25
860.931	17787.25
861.177	17637.25
861.422	17530.25
861.667	17408.25
861.913	17393.25
862.158	17535.25
862.403	17436.25
862.648	17537.25
862.893	17725.25
863.138	17639.25
863.384	17544.25
863.629	17571.25
863.873	17409.25
864.118	17451.25
864.363	17307.25
864.608	17254.25
864.853	17253.25
865.098	17044.25
865.342	17039.25
865.587	16946.25
865.832	16987.25
866.076	16903.25
866.321	16776.25
866.565	16757.25
866.81	16693.25
867.054	16736.25
867.298	16617.25
867.543	16497.25
867.787	16408.25
868.031	16486.25
868.275	16307.25
868.519	16307.25
868.764	16290.25
869.008	16276.25
869.252	16250.25
869.496	16256.25
869.739	16275.25
869.983	16202.25
870.227	16141.25
870.471	16064.25
870.715	16185.25
870.958	16169.25
871.202	16143.25
871.446	16150.25
871.689	16219.25
871.933	16169.25
872.176	16213.25
872.42	16053.25
872.663	16129.25
872.906	16095.25
873.15	15869.25
873.393	15751.25
873.636	15753.25
873.879	15630.25
874.122	15536.25
874.366	15189.25
874.609	15291.25
874.852	15099.25
875.095	15121.25
875.337	15025.25
875.58	14854.25
875.823	14842.25
876.066	14846.25
876.309	14837.25
876.551	14591.25
876.794	14511.25
877.037	14575.25
877.279	14465.25
877.522	14604.25
877.764	14573.25
878.007	14509.25
878.249	14441.25
878.491	14419.25
878.734	14376.25
878.976	14342.25
879.218	14228.25
879.46	14299.25
879.702	14073.25
879.945	13936.25
880.187	13828.25
880.429	13751.25
880.671	13754.25
880.912	13764.25
881.154	13556.25
881.396	13545.25
881.638	13534.25
881.88	13650.25
882.121	13497.25
882.363	13481.25
882.605	13466.25
882.846	13463.25
883.088	13365.25
883.329	13311.25
883.571	13180.25
883.812	13388.25
884.053	13477.25
884.295	13633.25
884.536	13715.25
884.777	13633.25
885.018	13629.25
885.259	13593.25
885.5	13503.25
885.742	13709.25
885.982	13510.25
886.223	13305.25
886.464	13283.25
886.705	13210.25
886.946	13046.25
887.187	12835.25
887.428	12737.25
887.668	12557.25
887.909	12521.25
888.15	12285.25
888.39	12367.25
888.631	12255.25
888.871	12175.25
889.111	12023.25
889.352	11895.25
889.592	11849.25
889.833	11670.25
890.073	11687.25
890.313	11694.25
890.553	11387.25
890.793	11446.25
891.033	11367.25
891.273	11351.25
891.513	11388.25
891.753	11293.25
891.993	11249.25
892.233	11257.25
892.473	11386.25
892.713	11317.25
892.952	11232.25
893.192	11292.25
893.432	11279.25
893.671	11299.25
893.911	11159.25
894.15	11117.25
894.39	11031.25
894.629	10998.25
894.869	10933.25
895.108	10855.25
895.347	10755.25
895.587	10812.25
895.826	10749.25
896.065	10745.25
896.304	10774.25
896.543	10683.25
896.782	10539.25
897.021	10617.25
897.26	10567.25
897.499	10697.25
897.738	10608.25
897.977	10500.25
898.216	10461.25
898.454	10340.25
898.693	10252.25
898.932	10241.25
899.17	10205.25
899.409	10116.25
899.647	10142.25
899.886	10099.25
900.124	10045.25
900.363	10118.25
900.601	10082.25
900.839	10124.25
901.078	10166.25
901.316	10218.25
901.554	10140.25
901.792	10184.25
902.03	10109.25
902.268	10212.25
902.506	10235.25
902.744	10050.25
902.982	10066.25
903.22	9893.25
903.458	9809.25
903.695	9606.25
903.933	9515.25
904.171	9323.25
904.409	9177.25
904.646	9110.25
904.884	9002.25
905.121	8930.25
905.359	8754.25
905.596	8744.25
905.833	8589.25
906.071	8590.25
906.308	8602.25
906.545	8559.25
906.783	8474.25
907.02	8485.25
907.257	8379.25
907.494	8447.25
907.731	8434.25
907.968	8328.25
908.205	8285.25
908.442	8194.25
908.679	8193.25
908.915	8191.25
909.152	8075.25
909.389	7936.25
909.626	7952.25
909.862	7863.25
910.099	7839.25
910.335	7825.25
910.572	7716.25
910.808	7758.25
911.045	7704.25
911.281	7631.25
911.518	7695.25
911.754	7580.25
911.99	7590.25
912.226	7510.25
912.463	7420.25
912.699	7426.25
912.935	7328.25
913.171	7276.25
913.407	7227.25
913.643	7174.25
913.879	7167.25
914.114	7029.25
914.35	6940.25
914.586	6900.25
914.822	6842.25
915.057	6931.25
915.293	6726.25
915.529	6694.25
915.764	6777.25
916	6735.25
916.235	6692.25
916.471	6727.25
916.706	6568.25
916.941	6629.25
917.177	6598.25
917.412	6628.25
917.647	6605.25
917.882	6541.25
918.117	6583.25
918.352	6567.25
918.588	6616.25
918.823	6402.25
919.057	6439.25
919.292	6255.25
919.527	6356.25
919.762	6230.25
919.997	6191.25
920.232	6056.25
920.466	6120.25
920.701	5964.25
920.935	5950.25
921.17	5878.25
921.405	5856.25
921.639	5914.25
921.873	5839.25
922.108	5882.25
922.342	5817.25
922.576	5732.25
922.811	5762.25
923.045	5780.25
923.279	5749.25
923.513	5601.25
923.747	5718.25
923.981	5635.25
924.215	5544.25
924.449	5499.25
924.683	5492.25
924.917	5470.25
925.151	5428.25
925.385	5474.25
925.618	5391.25
925.852	5370.25
926.086	5322.25
926.319	5375.25
926.553	5328.25
926.786	5350.25
927.02	5313.25
927.253	5347.25
927.486	5326.25
927.72	5256.25
927.953	5332.25
928.186	5243.25
928.42	5265.25
928.653	5209.25
928.886	5176.25
929.119	5174.25
929.352	5160.25
929.585	5112.25
929.818	5073.25
930.051	5039.25
930.284	4946.25
930.516	4947.25
930.749	4825.25
930.982	4914.25
931.215	4929.25
931.447	4819.25
931.68	4811.25
931.912	4778.25
932.145	4815.25
932.377	4807.25
932.61	4925.25
932.842	4692.25
933.074	4834.25
933.307	4706.25
933.539	4873.25
933.771	4818.25
934.003	4758.25
934.236	4851.25
934.468	4823.25
934.7	4697.25
934.932	4744.25
935.164	4675.25
935.395	4688.25
935.627	4707.25
935.859	4689.25
936.091	4622.25
936.323	4646.25
936.554	4647.25
936.786	4555.25
937.017	4525.25
937.249	4580.25
937.481	4480.25
937.712	4568.25
937.943	4523.25
938.175	4502.25
938.406	4511.25
938.637	4566.25
938.869	4453.25
939.1	4455.25
939.331	4428.25
939.562	4428.25
939.793	4422.25
940.024	4448.25
940.255	4464.25
940.486	4397.25
940.717	4367.25
940.948	4360.25
941.179	4267.25
941.409	4280.25
941.64	4252.25
941.871	4219.25
942.102	4235.25
942.332	4263.25
942.563	4288.25
942.793	4244.25
943.024	4224.25
943.254	4278.25
943.484	4295.25
943.715	4258.25
943.945	4256.25
944.175	4142.25
944.405	4158.25
944.636	4149.25
944.866	4186.25
945.096	4227.25
945.326	4128.25
945.556	4162.25
945.786	4147.25
946.016	4120.25
946.245	4033.25
946.475	4071.25
946.705	3987.25
946.935	3985.25
947.164	4006.25
947.394	3928.25
947.624	3974.25
947.853	3911.25
948.083	3929.25
948.312	3870.25
948.542	3813.25
948.771	3798.25
949	3780.25
949.23	3813.25
949.459	3853.25
949.688	3899.25
949.917	3814.25
950.146	3796.25
950.375	3855.25
950.604	3740.25
950.833	3850.25
951.062	3848.25
951.291	3752.25
951.52	3718.25
951.749	3780.25
951.978	3679.25
952.206	3691.25
952.435	3699.25
952.664	3750.25
952.892	3750.25
953.121	3680.25
953.349	3640.25
953.578	3652.25
953.806	3658.25
954.035	3587.25
954.263	3601.25
954.491	3526.25
954.719	3587.25
954.948	3510.25
955.176	3503.25
955.404	3406.25
955.632	3476.25
955.86	3493.25
956.088	3482.25
956.316	3444.25
956.544	3490.25
956.772	3384.25
956.999	3356.25
957.227	3428.25
957.455	3339.25
957.683	3336.25
957.91	3269.25
958.138	3253.25
958.365	3242.25
958.593	3227.25
958.82	3202.25
959.048	3240.25
959.275	3237.25
959.502	3201.25
959.73	3186.25
959.957	3197.25
960.184	3225.25
960.411	3179.25
960.638	3266.25
960.865	3170.25
961.092	3187.25
961.319	3079.25
961.546	3215.25
961.773	3219.25
962	3178.25
962.227	3165.25
962.454	3093.25
962.68	3109.25
962.907	3153.25
963.134	3038.25
963.36	3085.25
963.587	3092.25
963.813	3002.25
964.04	3076.25
964.266	2959.25
964.493	3064.25
964.719	3018.25
964.945	2975.25
965.171	2852.25
965.398	2946.25
965.624	2954.25
965.85	2862.25
966.076	2897.25
966.302	2874.25
966.528	2882.25
966.754	2873.25
966.98	2874.25
967.206	2863.25
967.431	2776.25
967.657	2883.25
967.883	2857.25
968.109	2814.25
968.334	2741.25
968.56	2747.25
968.785	2777.25
969.011	2711.25
969.236	2795.25
969.462	2738.25
969.687	2737.25
969.912	2756.25
970.138	2798.25
970.363	2683.25
970.588	2720.25
970.813	2668.25
971.038	2653.25
971.263	2704.25
971.488	2667.25
971.713	2682.25
971.938	2704.25
972.163	2588.25
972.388	2605.25
972.613	2579.25
972.838	2610.25
973.062	2558.25
973.287	2533.25
973.512	2484.25
973.736	2522.25
973.961	2533.25
974.185	2490.25
974.41	2514.25
974.634	2419.25
974.858	2392.25
975.083	2510.25
975.307	2481.25
975.531	2405.25
975.755	2372.25
975.98	2373.25
976.204	2322.25
976.428	2335.25
976.652	2294.25
976.876	2304.25
977.1	2321.25
977.324	2286.25
977.547	2352.25
977.771	2343.25
977.995	2325.25
978.219	2233.25
978.442	2341.25
978.666	2305.25
978.89	2282.25
979.113	2270.25
979.337	2273.25
979.56	2209.25
979.783	2304.25
980.007	2183.25
980.23	2246.25
980.453	2173.25
980.677	2251.25
980.9	2191.25
981.123	2121.25
981.346	2240.25
981.569	2174.25
981.792	2182.25
982.015	2157.25
982.238	2122.25
982.461	2137.25
982.684	2088.25
982.907	2066.25
983.129	2063.25
983.352	2098.25
983.575	2103.25
983.797	2066.25
984.02	2012.25
984.242	2054.25
984.465	2028.25
984.687	2055.25
984.91	2035.25
985.132	2025.25
985.354	2033.25
985.577	2027.25
985.799	1993.25
986.021	1903.25
986.243	1940.25
986.465	1954.25
986.687	2039.25
986.909	2034.25
987.131	1971.25
987.353	1947.25
987.575	1978.25
987.797	1925.25
988.019	1863.25
988.241	1936.25
988.462	1873.25
988.684	1958.25
988.906	1950.25
989.127	1967.25
989.349	1838.25
989.57	1910.25
989.792	1943.25
990.013	1965.25
990.234	1932.25
990.456	1963.25
990.677	1926.25
990.898	1873.25
991.119	1885.25
991.341	1890.25
991.562	1820.25
991.783	1874.25
992.004	1809.25
992.225	1789.25
992.446	1830.25
992.667	1748.25
992.887	1819.25
993.108	1710.25
993.329	1820.25
993.55	1779.25
993.77	1711.25
993.991	1740.25
994.212	1737.25
994.432	1744.25
994.653	1740.25
994.873	1751.25
995.093	1627.25
995.314	1665.25
995.534	1722.25
995.754	1765.25
995.975	1770.25
996.195	1666.25
996.415	1696.25
996.635	1675.25
996.855	1698.25
997.075	1650.25
997.295	1659.25
997.515	1643.25
997.735	1681.25
997.955	1689.25
998.174	1654.25
998.394	1598.25
998.614	1673.25
998.834	1631.25
999.053	1669.25
999.273	1651.25
999.492	1705.25
999.712	1647.25
999.931	1607.25
1000.151	1653.25
1000.37	1612.25
1000.589	1653.25
1000.809	1611.25
1001.028	1714.25
1001.247	1649.25
1001.466	1518.25
1001.685	1679.25
1001.904	1612.25
1002.123	1592.25
1002.342	1598.25
1002.561	1565.25
1002.78	1563.25
1002.999	1650.25
1003.218	1574.25
1003.436	1561.25
1003.655	1607.25
1003.874	1558.25
1004.092	1548.25
1004.311	1601.25
1004.53	1539.25
1004.748	1598.25
1004.966	1553.25
1005.185	1597.25
1005.403	1591.25
1005.622	1548.25
1005.84	1635.25
1006.058	1538.25
1006.276	1566.25
1006.494	2021.25
1006.712	1531.25
1006.931	1611.25
1007.149	1544.25
1007.367	1511.25
1007.584	1558.25
1007.802	1576.25
1008.02	1527.25
1008.238	1619.25
1008.456	1593.25
1008.673	1471.25
1008.891	1578.25
1009.109	1522.25
1009.326	1579.25
1009.544	1693.25
1009.761	1571.25
1009.979	1651.25
1010.196	1652.25
1010.413	1717.25
1010.631	1774.25
1010.848	1792.25
1011.065	1819.25
1011.282	1748.25
1011.5	1685.25
1011.717	1786.25
1011.934	1741.25
1012.151	1782.25
1012.368	1744.25
1012.585	1658.25
1012.801	1763.25
1013.018	1716.25
1013.235	1690.25
1013.452	1689.25
1013.669	1732.25
1013.885	1703.25
1014.102	1756.25
1014.318	1694.25
1014.535	1648.25
1014.751	1690.25
1014.968	1667.25
1015.184	1702.25
1015.401	1640.25
1015.617	1669.25
1015.833	1604.25
1016.049	1618.25
1016.266	1581.25
1016.482	1600.25
1016.698	1536.25
1016.914	1580.25
1017.13	1532.25
1017.346	1535.25
1017.562	1574.25
1017.778	1522.25
1017.993	1495.25
1018.209	1549.25
1018.425	1545.25
1018.641	1500.25
1018.856	1476.25
1019.072	1502.25
1019.288	1576.25
1019.503	1484.25
1019.719	1411.25
1019.934	1440.25
1020.149	1508.25
1020.365	1466.25
1020.58	1390.25
1020.795	1453.25
1021.011	1401.25
1021.226	1370.25
1021.441	1389.25
1021.656	1288.25
1021.871	1240.25
1022.086	1253.25
1022.301	1253.25
1022.516	1232.25
1022.731	1281.25
1022.946	1187.25
1023.16	1175.25
1023.375	1153.25
1023.59	1149.25
1023.804	1112.25
1024.019	1192.25
1024.234	1072.25
1024.448	1104.25
1024.663	1033.25
1024.877	1038.25
1025.092	1059.25
1025.306	1055.25
1025.52	963.25
1025.734	1077.25
1025.949	977.25
1026.163	950.25
1026.377	884.25
1026.591	936.25
1026.805	860.25
1027.019	842.25
1027.233	819.25
1027.447	785.25
1027.661	878.25
1027.875	825.25
1028.088	821.25
1028.302	743.25
1028.516	755.25
1028.73	746.25
1028.943	716.25
1029.157	687.25
1029.37	622.25
1029.584	-0.75
1029.797	-0.75
1030.011	-0.75
1030.224	-2.75
