Data from QEP037381__466__17-11-57-250.txt Node

Date: Fri Dec 16 17:11:57 EST 2022
User: dcclab
Spectrometer: QEP03738
Trigger mode: 4
Integration Time (sec): 1.000000E1
Scans to average: 1
Electric dark correction enabled: true
Nonlinearity correction enabled: false
Boxcar width: 0
XAxis mode: Wavelengths
Number of Pixels in Spectrum: 1044
>>>>>Begin Spectral Data<<<<<
784.041	10.75
784.3	3.75
784.558	-5.25
784.817	-3.25
785.075	87075.75
785.334	15061.75
785.592	7165.75
785.851	4902.75
786.109	3717.75
786.368	2923.75
786.626	2392.75
786.884	1992.75
787.143	1656.75
787.401	1375.75
787.659	1256.75
787.917	1091.75
788.175	989.75
788.433	858.75
788.691	800.75
788.949	738.75
789.207	703.75
789.465	615.75
789.723	612.75
789.98	562.75
790.238	595.75
790.496	552.75
790.753	534.75
791.011	574.75
791.268	525.75
791.526	506.75
791.783	517.75
792.041	511.75
792.298	423.75
792.556	486.75
792.813	480.75
793.07	456.75
793.327	422.75
793.584	501.75
793.841	433.75
794.099	453.75
794.356	508.75
794.613	411.75
794.869	440.75
795.126	413.75
795.383	389.75
795.64	424.75
795.897	391.75
796.153	438.75
796.41	422.75
796.667	403.75
796.923	406.75
797.18	402.75
797.436	427.75
797.693	387.75
797.949	456.75
798.206	477.75
798.462	392.75
798.718	464.75
798.974	432.75
799.231	480.75
799.487	458.75
799.743	472.75
799.999	496.75
800.255	486.75
800.511	474.75
800.767	522.75
801.023	492.75
801.279	529.75
801.534	570.75
801.79	617.75
802.046	623.75
802.302	740.75
802.557	847.75
802.813	1027.75
803.068	1278.75
803.324	1728.75
803.579	2336.75
803.835	3187.75
804.09	4391.75
804.345	5808.75
804.601	7304.75
804.856	8972.75
805.111	10349.75
805.366	11446.75
805.621	12189.75
805.876	12771.75
806.131	13173.75
806.386	13454.75
806.641	13612.75
806.896	13992.75
807.151	14290.75
807.406	14412.75
807.661	14641.75
807.915	15035.75
808.17	15253.75
808.425	15381.75
808.679	15556.75
808.934	15839.75
809.188	15983.75
809.443	16175.75
809.697	16461.75
809.951	16434.75
810.206	16632.75
810.46	16772.75
810.714	16881.75
810.968	17132.75
811.223	17206.75
811.477	17493.75
811.731	17520.75
811.985	17681.75
812.239	17806.75
812.493	17886.75
812.747	18015.75
813	17988.75
813.254	18165.75
813.508	18246.75
813.762	18237.75
814.015	18302.75
814.269	18559.75
814.522	18705.75
814.776	19017.75
815.03	19141.75
815.283	19475.75
815.536	19817.75
815.79	20135.75
816.043	20368.75
816.296	20769.75
816.55	20965.75
816.803	21272.75
817.056	21595.75
817.309	21702.75
817.562	21808.75
817.815	22272.75
818.068	22363.75
818.321	22614.75
818.574	22910.75
818.827	23344.75
819.079	23543.75
819.332	23929.75
819.585	24214.75
819.838	24626.75
820.09	24668.75
820.343	25057.75
820.595	25102.75
820.848	25348.75
821.1	25384.75
821.353	25462.75
821.605	25340.75
821.857	25426.75
822.11	25184.75
822.362	25235.75
822.614	25138.75
822.866	25194.75
823.118	25108.75
823.37	25253.75
823.622	25273.75
823.874	25365.75
824.126	25461.75
824.378	25393.75
824.63	25697.75
824.882	25760.75
825.134	25466.75
825.385	25512.75
825.637	25474.75
825.888	25385.75
826.14	25234.75
826.392	25261.75
826.643	25146.75
826.895	25136.75
827.146	24948.75
827.397	24959.75
827.649	24944.75
827.9	24887.75
828.151	24929.75
828.402	24945.75
828.653	25055.75
828.905	25166.75
829.156	25121.75
829.407	25097.75
829.658	25071.75
829.909	24998.75
830.159	25117.75
830.41	24860.75
830.661	24939.75
830.912	24694.75
831.162	24477.75
831.413	24524.75
831.664	24596.75
831.914	24570.75
832.165	24536.75
832.415	24558.75
832.666	24647.75
832.916	24515.75
833.167	24509.75
833.417	24466.75
833.667	24483.75
833.917	24285.75
834.168	24418.75
834.418	24287.75
834.668	23995.75
834.918	23889.75
835.168	23837.75
835.418	23781.75
835.668	23728.75
835.918	23695.75
836.167	23605.75
836.417	23563.75
836.667	23635.75
836.917	23461.75
837.166	23387.75
837.416	23470.75
837.666	23394.75
837.915	23354.75
838.165	23280.75
838.414	23139.75
838.663	23048.75
838.913	23141.75
839.162	22959.75
839.411	22979.75
839.661	22933.75
839.91	22826.75
840.159	22752.75
840.408	22766.75
840.657	22673.75
840.906	22740.75
841.155	22779.75
841.404	22608.75
841.653	22757.75
841.902	22750.75
842.15	22736.75
842.399	22782.75
842.648	22656.75
842.897	22709.75
843.145	22499.75
843.394	22426.75
843.642	22289.75
843.891	22243.75
844.139	22055.75
844.388	21885.75
844.636	21779.75
844.884	21829.75
845.133	21744.75
845.381	21726.75
845.629	21706.75
845.877	21592.75
846.125	21607.75
846.373	21598.75
846.621	21544.75
846.869	21561.75
847.117	21452.75
847.365	21288.75
847.613	21062.75
847.861	21133.75
848.108	21078.75
848.356	20892.75
848.604	20799.75
848.851	20926.75
849.099	20925.75
849.346	21013.75
849.594	21098.75
849.841	21092.75
850.089	21132.75
850.336	21091.75
850.583	21165.75
850.831	21055.75
851.078	20986.75
851.325	20813.75
851.572	20965.75
851.819	20801.75
852.066	20410.75
852.313	20128.75
852.56	19842.75
852.807	19800.75
853.054	19770.75
853.301	19721.75
853.548	19736.75
853.794	19946.75
854.041	19936.75
854.288	19971.75
854.534	20169.75
854.781	20072.75
855.028	19887.75
855.274	19819.75
855.52	19805.75
855.767	19596.75
856.013	19636.75
856.26	19961.75
856.506	19451.75
856.752	19479.75
856.998	19391.75
857.244	19527.75
857.49	19536.75
857.736	19564.75
857.982	19513.75
858.228	19488.75
858.474	19401.75
858.72	19282.75
858.966	19107.75
859.212	18910.75
859.458	18718.75
859.703	18561.75
859.949	18347.75
860.195	18235.75
860.44	18178.75
860.686	18100.75
860.931	17986.75
861.177	17960.75
861.422	17944.75
861.667	17849.75
861.913	17872.75
862.158	17863.75
862.403	17852.75
862.648	17936.75
862.893	18024.75
863.138	17966.75
863.384	17849.75
863.629	17862.75
863.873	17875.75
864.118	17748.75
864.363	17603.75
864.608	17622.75
864.853	17653.75
865.098	17516.75
865.342	17422.75
865.587	17394.75
865.832	17234.75
866.076	17294.75
866.321	17135.75
866.565	17141.75
866.81	17032.75
867.054	16963.75
867.298	16909.75
867.543	16904.75
867.787	16844.75
868.031	16832.75
868.275	16713.75
868.519	16804.75
868.764	16660.75
869.008	16623.75
869.252	16602.75
869.496	16579.75
869.739	16438.75
869.983	16504.75
870.227	16447.75
870.471	16483.75
870.715	16540.75
870.958	16544.75
871.202	16577.75
871.446	16461.75
871.689	16663.75
871.933	16526.75
872.176	16508.75
872.42	16533.75
872.663	16364.75
872.906	16430.75
873.15	16221.75
873.393	16125.75
873.636	16038.75
873.879	15971.75
874.122	15848.75
874.366	15652.75
874.609	15549.75
874.852	15491.75
875.095	15416.75
875.337	15349.75
875.58	15171.75
875.823	15208.75
876.066	15106.75
876.309	15156.75
876.551	14972.75
876.794	15028.75
877.037	14965.75
877.279	14842.75
877.522	14893.75
877.764	14851.75
878.007	14877.75
878.249	14831.75
878.491	14788.75
878.734	14738.75
878.976	14791.75
879.218	14635.75
879.46	14554.75
879.702	14442.75
879.945	14320.75
880.187	14240.75
880.429	14151.75
880.671	14120.75
880.912	14010.75
881.154	14023.75
881.396	13896.75
881.638	13956.75
881.88	13860.75
882.121	13883.75
882.363	13828.75
882.605	13808.75
882.846	13825.75
883.088	13719.75
883.329	13649.75
883.571	13611.75
883.812	13634.75
884.053	13778.75
884.295	13952.75
884.536	14084.75
884.777	13954.75
885.018	13916.75
885.259	13893.75
885.5	13797.75
885.742	13992.75
885.982	13835.75
886.223	13651.75
886.464	13499.75
886.705	13416.75
886.946	13328.75
887.187	13134.75
887.428	13161.75
887.668	12971.75
887.909	12849.75
888.15	12614.75
888.39	12635.75
888.631	12639.75
888.871	12465.75
889.111	12403.75
889.352	12311.75
889.592	12152.75
889.833	12144.75
890.073	12064.75
890.313	11973.75
890.553	11842.75
890.793	11897.75
891.033	11718.75
891.273	11709.75
891.513	11666.75
891.753	11711.75
891.993	11627.75
892.233	11558.75
892.473	11697.75
892.713	11738.75
892.952	11688.75
893.192	11720.75
893.432	11666.75
893.671	11597.75
893.911	11517.75
894.15	11517.75
894.39	11429.75
894.629	11310.75
894.869	11334.75
895.108	11192.75
895.347	11089.75
895.587	11168.75
895.826	11138.75
896.065	11108.75
896.304	11116.75
896.543	11111.75
896.782	10992.75
897.021	11004.75
897.26	10901.75
897.499	11031.75
897.738	10926.75
897.977	10844.75
898.216	10736.75
898.454	10669.75
898.693	10612.75
898.932	10546.75
899.17	10501.75
899.409	10463.75
899.647	10441.75
899.886	10382.75
900.124	10383.75
900.363	10361.75
900.601	10358.75
900.839	10373.75
901.078	10441.75
901.316	10434.75
901.554	10528.75
901.792	10536.75
902.03	10474.75
902.268	10465.75
902.506	10485.75
902.744	10395.75
902.982	10377.75
903.22	10194.75
903.458	10025.75
903.695	9974.75
903.933	9834.75
904.171	9685.75
904.409	9574.75
904.646	9439.75
904.884	9239.75
905.121	9269.75
905.359	9074.75
905.596	9053.75
905.833	8970.75
906.071	8893.75
906.308	8911.75
906.545	8906.75
906.783	8780.75
907.02	8754.75
907.257	8721.75
907.494	8713.75
907.731	8693.75
907.968	8742.75
908.205	8626.75
908.442	8545.75
908.679	8549.75
908.915	8490.75
909.152	8404.75
909.389	8303.75
909.626	8132.75
909.862	8130.75
910.099	8151.75
910.335	8115.75
910.572	8058.75
910.808	8058.75
911.045	7936.75
911.281	7916.75
911.518	7935.75
911.754	7902.75
911.99	7898.75
912.226	7854.75
912.463	7692.75
912.699	7688.75
912.935	7632.75
913.171	7588.75
913.407	7454.75
913.643	7501.75
913.879	7423.75
914.114	7280.75
914.35	7241.75
914.586	7186.75
914.822	7090.75
915.057	7083.75
915.293	7000.75
915.529	6960.75
915.764	7045.75
916	7060.75
916.235	6906.75
916.471	6942.75
916.706	6868.75
916.941	6932.75
917.177	6847.75
917.412	6911.75
917.647	6868.75
917.882	6864.75
918.117	6894.75
918.352	6799.75
918.588	6883.75
918.823	6731.75
919.057	6694.75
919.292	6547.75
919.527	6591.75
919.762	6407.75
919.997	6427.75
920.232	6349.75
920.466	6381.75
920.701	6207.75
920.935	6169.75
921.17	6172.75
921.405	6162.75
921.639	6187.75
921.873	6051.75
922.108	6120.75
922.342	6089.75
922.576	6017.75
922.811	6002.75
923.045	5972.75
923.279	6013.75
923.513	5858.75
923.747	5898.75
923.981	5874.75
924.215	5805.75
924.449	5744.75
924.683	5676.75
924.917	5704.75
925.151	5688.75
925.385	5666.75
925.618	5687.75
925.852	5686.75
926.086	5531.75
926.319	5602.75
926.553	5562.75
926.786	5582.75
927.02	5518.75
927.253	5581.75
927.486	5544.75
927.72	5519.75
927.953	5546.75
928.186	5465.75
928.42	5541.75
928.653	5456.75
928.886	5427.75
929.119	5393.75
929.352	5440.75
929.585	5381.75
929.818	5301.75
930.051	5299.75
930.284	5231.75
930.516	5132.75
930.749	5081.75
930.982	5136.75
931.215	5083.75
931.447	5003.75
931.68	5019.75
931.912	4988.75
932.145	4991.75
932.377	5038.75
932.61	5099.75
932.842	4984.75
933.074	4999.75
933.307	4958.75
933.539	5059.75
933.771	5056.75
934.003	4962.75
934.236	5053.75
934.468	5041.75
934.7	4934.75
934.932	4977.75
935.164	4936.75
935.395	4892.75
935.627	4894.75
935.859	4842.75
936.091	4826.75
936.323	4853.75
936.554	4833.75
936.786	4813.75
937.017	4734.75
937.249	4747.75
937.481	4689.75
937.712	4773.75
937.943	4728.75
938.175	4661.75
938.406	4690.75
938.637	4778.75
938.869	4634.75
939.1	4677.75
939.331	4594.75
939.562	4640.75
939.793	4636.75
940.024	4621.75
940.255	4647.75
940.486	4537.75
940.717	4567.75
940.948	4520.75
941.179	4433.75
941.409	4452.75
941.64	4491.75
941.871	4450.75
942.102	4419.75
942.332	4420.75
942.563	4483.75
942.793	4450.75
943.024	4403.75
943.254	4409.75
943.484	4436.75
943.715	4440.75
943.945	4454.75
944.175	4339.75
944.405	4335.75
944.636	4380.75
944.866	4402.75
945.096	4382.75
945.326	4336.75
945.556	4368.75
945.786	4402.75
946.016	4273.75
946.245	4225.75
946.475	4175.75
946.705	4204.75
946.935	4160.75
947.164	4189.75
947.394	4135.75
947.624	4092.75
947.853	4175.75
948.083	4060.75
948.312	4040.75
948.542	4022.75
948.771	4004.75
949	4024.75
949.23	3987.75
949.459	4011.75
949.688	4037.75
949.917	4007.75
950.146	3998.75
950.375	4031.75
950.604	3907.75
950.833	4012.75
951.062	3966.75
951.291	3980.75
951.52	3929.75
951.749	3920.75
951.978	3853.75
952.206	3872.75
952.435	3894.75
952.664	3851.75
952.892	3898.75
953.121	3857.75
953.349	3887.75
953.578	3821.75
953.806	3810.75
954.035	3724.75
954.263	3767.75
954.491	3691.75
954.719	3737.75
954.948	3654.75
955.176	3697.75
955.404	3586.75
955.632	3655.75
955.86	3612.75
956.088	3598.75
956.316	3583.75
956.544	3634.75
956.772	3562.75
956.999	3541.75
957.227	3608.75
957.455	3512.75
957.683	3512.75
957.91	3428.75
958.138	3471.75
958.365	3432.75
958.593	3417.75
958.82	3373.75
959.048	3427.75
959.275	3353.75
959.502	3344.75
959.73	3373.75
959.957	3385.75
960.184	3364.75
960.411	3296.75
960.638	3372.75
960.865	3295.75
961.092	3362.75
961.319	3281.75
961.546	3328.75
961.773	3334.75
962	3326.75
962.227	3304.75
962.454	3285.75
962.68	3277.75
962.907	3278.75
963.134	3210.75
963.36	3219.75
963.587	3259.75
963.813	3167.75
964.04	3196.75
964.266	3077.75
964.493	3169.75
964.719	3172.75
964.945	3106.75
965.171	3059.75
965.398	3111.75
965.624	3082.75
965.85	3016.75
966.076	3025.75
966.302	3038.75
966.528	3025.75
966.754	3001.75
966.98	3004.75
967.206	3001.75
967.431	2978.75
967.657	3014.75
967.883	2956.75
968.109	2978.75
968.334	2920.75
968.56	2887.75
968.785	2902.75
969.011	2886.75
969.236	2929.75
969.462	2868.75
969.687	2865.75
969.912	2885.75
970.138	2911.75
970.363	2814.75
970.588	2838.75
970.813	2852.75
971.038	2806.75
971.263	2825.75
971.488	2800.75
971.713	2801.75
971.938	2792.75
972.163	2721.75
972.388	2743.75
972.613	2697.75
972.838	2695.75
973.062	2706.75
973.287	2657.75
973.512	2628.75
973.736	2684.75
973.961	2647.75
974.185	2614.75
974.41	2648.75
974.634	2551.75
974.858	2591.75
975.083	2601.75
975.307	2584.75
975.531	2563.75
975.755	2465.75
975.98	2469.75
976.204	2419.75
976.428	2450.75
976.652	2463.75
976.876	2437.75
977.1	2468.75
977.324	2421.75
977.547	2439.75
977.771	2438.75
977.995	2442.75
978.219	2333.75
978.442	2477.75
978.666	2403.75
978.89	2390.75
979.113	2381.75
979.337	2360.75
979.56	2362.75
979.783	2435.75
980.007	2325.75
980.23	2320.75
980.453	2269.75
980.677	2312.75
980.9	2315.75
981.123	2231.75
981.346	2299.75
981.569	2292.75
981.792	2324.75
982.015	2258.75
982.238	2254.75
982.461	2225.75
982.684	2196.75
982.907	2166.75
983.129	2153.75
983.352	2201.75
983.575	2199.75
983.797	2173.75
984.02	2125.75
984.242	2116.75
984.465	2121.75
984.687	2162.75
984.91	2199.75
985.132	2121.75
985.354	2132.75
985.577	2112.75
985.799	2102.75
986.021	2016.75
986.243	2056.75
986.465	2049.75
986.687	2100.75
986.909	2117.75
987.131	2042.75
987.353	2010.75
987.575	2061.75
987.797	1998.75
988.019	1971.75
988.241	1997.75
988.462	1957.75
988.684	2005.75
988.906	2034.75
989.127	2051.75
989.349	1923.75
989.57	1972.75
989.792	2012.75
990.013	2028.75
990.234	2035.75
990.456	2045.75
990.677	2008.75
990.898	1973.75
991.119	1970.75
991.341	1985.75
991.562	1907.75
991.783	1925.75
992.004	1868.75
992.225	1839.75
992.446	1917.75
992.667	1848.75
992.887	1882.75
993.108	1778.75
993.329	1901.75
993.55	1859.75
993.77	1800.75
993.991	1809.75
994.212	1826.75
994.432	1805.75
994.653	1803.75
994.873	1834.75
995.093	1693.75
995.314	1748.75
995.534	1768.75
995.754	1795.75
995.975	1822.75
996.195	1717.75
996.415	1775.75
996.635	1749.75
996.855	1758.75
997.075	1727.75
997.295	1701.75
997.515	1683.75
997.735	1781.75
997.955	1736.75
998.174	1707.75
998.394	1684.75
998.614	1737.75
998.834	1696.75
999.053	1745.75
999.273	1705.75
999.492	1760.75
999.712	1702.75
999.931	1647.75
1000.151	1718.75
1000.37	1672.75
1000.589	1727.75
1000.809	1677.75
1001.028	1770.75
1001.247	1699.75
1001.466	1601.75
1001.685	1753.75
1001.904	1668.75
1002.123	1629.75
1002.342	1663.75
1002.561	1610.75
1002.78	1624.75
1002.999	1681.75
1003.218	1608.75
1003.436	1597.75
1003.655	1638.75
1003.874	1593.75
1004.092	1626.75
1004.311	1661.75
1004.53	1600.75
1004.748	1663.75
1004.966	1597.75
1005.185	1654.75
1005.403	1629.75
1005.622	1612.75
1005.84	1661.75
1006.058	1565.75
1006.276	1597.75
1006.494	2087.75
1006.712	1589.75
1006.931	1676.75
1007.149	1555.75
1007.367	1557.75
1007.584	1607.75
1007.802	1606.75
1008.02	1560.75
1008.238	1638.75
1008.456	1673.75
1008.673	1507.75
1008.891	1623.75
1009.109	1570.75
1009.326	1600.75
1009.544	1714.75
1009.761	1594.75
1009.979	1680.75
1010.196	1679.75
1010.413	1722.75
1010.631	1760.75
1010.848	1829.75
1011.065	1779.75
1011.282	1758.75
1011.5	1688.75
1011.717	1814.75
1011.934	1724.75
1012.151	1760.75
1012.368	1743.75
1012.585	1691.75
1012.801	1729.75
1013.018	1714.75
1013.235	1658.75
1013.452	1705.75
1013.669	1703.75
1013.885	1685.75
1014.102	1701.75
1014.318	1698.75
1014.535	1651.75
1014.751	1687.75
1014.968	1665.75
1015.184	1735.75
1015.401	1609.75
1015.617	1658.75
1015.833	1575.75
1016.049	1611.75
1016.266	1577.75
1016.482	1586.75
1016.698	1535.75
1016.914	1577.75
1017.13	1518.75
1017.346	1503.75
1017.562	1580.75
1017.778	1522.75
1017.993	1497.75
1018.209	1531.75
1018.425	1541.75
1018.641	1498.75
1018.856	1471.75
1019.072	1488.75
1019.288	1576.75
1019.503	1496.75
1019.719	1420.75
1019.934	1410.75
1020.149	1513.75
1020.365	1450.75
1020.58	1412.75
1020.795	1437.75
1021.011	1380.75
1021.226	1381.75
1021.441	1410.75
1021.656	1321.75
1021.871	1247.75
1022.086	1240.75
1022.301	1256.75
1022.516	1232.75
1022.731	1288.75
1022.946	1214.75
1023.16	1202.75
1023.375	1175.75
1023.59	1135.75
1023.804	1131.75
1024.019	1218.75
1024.234	1089.75
1024.448	1099.75
1024.663	1048.75
1024.877	1061.75
1025.092	1084.75
1025.306	1077.75
1025.52	973.75
1025.734	1054.75
1025.949	990.75
1026.163	970.75
1026.377	903.75
1026.591	962.75
1026.805	864.75
1027.019	881.75
1027.233	846.75
1027.447	775.75
1027.661	876.75
1027.875	824.75
1028.088	823.75
1028.302	740.75
1028.516	750.75
1028.73	750.75
1028.943	738.75
1029.157	685.75
1029.37	645.75
1029.584	-2.25
1029.797	1.75
1030.011	-3.25
1030.224	-2.25
