Data from QEP037381__462__17-11-17-250.txt Node

Date: Fri Dec 16 17:11:17 EST 2022
User: dcclab
Spectrometer: QEP03738
Trigger mode: 4
Integration Time (sec): 1.000000E1
Scans to average: 1
Electric dark correction enabled: true
Nonlinearity correction enabled: false
Boxcar width: 0
XAxis mode: Wavelengths
Number of Pixels in Spectrum: 1044
>>>>>Begin Spectral Data<<<<<
784.041	13.25
784.3	-1.75
784.558	-1.75
784.817	-2.75
785.075	92679.25
785.334	15835.25
785.592	7376.25
785.851	5039.25
786.109	3851.25
786.368	2983.25
786.626	2443.25
786.884	2024.25
787.143	1732.25
787.401	1394.25
787.659	1270.25
787.917	1105.25
788.175	1019.25
788.433	916.25
788.691	819.25
788.949	743.25
789.207	714.25
789.465	637.25
789.723	601.25
789.98	570.25
790.238	603.25
790.496	576.25
790.753	547.25
791.011	589.25
791.268	538.25
791.526	531.25
791.783	542.25
792.041	522.25
792.298	429.25
792.556	495.25
792.813	475.25
793.07	460.25
793.327	445.25
793.584	534.25
793.841	441.25
794.099	467.25
794.356	529.25
794.613	428.25
794.869	458.25
795.126	430.25
795.383	429.25
795.64	429.25
795.897	404.25
796.153	448.25
796.41	432.25
796.667	418.25
796.923	427.25
797.18	438.25
797.436	443.25
797.693	419.25
797.949	480.25
798.206	496.25
798.462	414.25
798.718	491.25
798.974	446.25
799.231	495.25
799.487	489.25
799.743	492.25
799.999	532.25
800.255	512.25
800.511	519.25
800.767	559.25
801.023	541.25
801.279	583.25
801.534	629.25
801.79	674.25
802.046	730.25
802.302	873.25
802.557	991.25
802.813	1204.25
803.068	1497.25
803.324	2105.25
803.579	2876.25
803.835	4008.25
804.09	5564.25
804.345	7391.25
804.601	9407.25
804.856	11610.25
805.111	13406.25
805.366	14838.25
805.621	15926.25
805.876	16632.25
806.131	17094.25
806.386	17520.25
806.641	17846.25
806.896	18108.25
807.151	18516.25
807.406	18742.25
807.661	19170.25
807.915	19478.25
808.17	19758.25
808.425	20097.25
808.679	20200.25
808.934	20508.25
809.188	20695.25
809.443	20736.25
809.697	21154.25
809.951	21303.25
810.206	21592.25
810.46	21726.25
810.714	21922.25
810.968	22120.25
811.223	22378.25
811.477	22589.25
811.731	22879.25
811.985	22791.25
812.239	22964.25
812.493	23039.25
812.747	23144.25
813	23194.25
813.254	23354.25
813.508	23461.25
813.762	23523.25
814.015	23728.25
814.269	23894.25
814.522	24150.25
814.776	24413.25
815.03	24725.25
815.283	25181.25
815.536	25540.25
815.79	25896.25
816.043	26251.25
816.296	26640.25
816.55	27042.25
816.803	27275.25
817.056	27655.25
817.309	27939.25
817.562	28172.25
817.815	28474.25
818.068	28721.25
818.321	29025.25
818.574	29425.25
818.827	29861.25
819.079	30179.25
819.332	30843.25
819.585	31050.25
819.838	31569.25
820.09	31640.25
820.343	31975.25
820.595	32292.25
820.848	32378.25
821.1	32403.25
821.353	32437.25
821.605	32290.25
821.857	32360.25
822.11	32222.25
822.362	32161.25
822.614	32185.25
822.866	32119.25
823.118	32071.25
823.37	32118.25
823.622	32249.25
823.874	32330.25
824.126	32464.25
824.378	32538.25
824.63	32583.25
824.882	32623.25
825.134	32587.25
825.385	32608.25
825.637	32638.25
825.888	32287.25
826.14	32376.25
826.392	32283.25
826.643	32048.25
826.895	31979.25
827.146	31948.25
827.397	31874.25
827.649	31820.25
827.9	31653.25
828.151	31791.25
828.402	31723.25
828.653	31938.25
828.905	32023.25
829.156	32039.25
829.407	32019.25
829.658	32033.25
829.909	32087.25
830.159	31877.25
830.41	31796.25
830.661	31604.25
830.912	31399.25
831.162	31251.25
831.413	31301.25
831.664	31370.25
831.914	31248.25
832.165	31205.25
832.415	31231.25
832.666	31169.25
832.916	31107.25
833.167	31056.25
833.417	31011.25
833.667	31002.25
833.917	30901.25
834.168	30822.25
834.418	30773.25
834.668	30572.25
834.918	30357.25
835.168	30167.25
835.418	30250.25
835.668	30160.25
835.918	30019.25
836.167	30116.25
836.417	29948.25
836.667	29725.25
836.917	29964.25
837.166	29878.25
837.416	29745.25
837.666	29766.25
837.915	29656.25
838.165	29511.25
838.414	29485.25
838.663	29251.25
838.913	29303.25
839.162	29129.25
839.411	29336.25
839.661	28972.25
839.91	28898.25
840.159	28938.25
840.408	28991.25
840.657	28829.25
840.906	28879.25
841.155	28773.25
841.404	28843.25
841.653	28786.25
841.902	28942.25
842.15	28789.25
842.399	28935.25
842.648	28818.25
842.897	28681.25
843.145	28465.25
843.394	28485.25
843.642	28280.25
843.891	28212.25
844.139	27857.25
844.388	27794.25
844.636	27771.25
844.884	27776.25
845.133	27529.25
845.381	27501.25
845.629	27631.25
845.877	27539.25
846.125	27335.25
846.373	27282.25
846.621	27081.25
846.869	27164.25
847.117	26927.25
847.365	26791.25
847.613	26813.25
847.861	26634.25
848.108	26648.25
848.356	26581.25
848.604	26385.25
848.851	26464.25
849.099	26480.25
849.346	26522.25
849.594	26676.25
849.841	26720.25
850.089	26760.25
850.336	26675.25
850.583	26726.25
850.831	26536.25
851.078	26272.25
851.325	26308.25
851.572	26410.25
851.819	26197.25
852.066	25557.25
852.313	25284.25
852.56	25160.25
852.807	24949.25
853.054	24988.25
853.301	24838.25
853.548	24910.25
853.794	25068.25
854.041	25050.25
854.288	25187.25
854.534	25355.25
854.781	25231.25
855.028	25045.25
855.274	25167.25
855.52	24923.25
855.767	24798.25
856.013	24779.25
856.26	25008.25
856.506	24508.25
856.752	24579.25
856.998	24510.25
857.244	24507.25
857.49	24694.25
857.736	24717.25
857.982	24679.25
858.228	24519.25
858.474	24310.25
858.72	24259.25
858.966	23982.25
859.212	23801.25
859.458	23545.25
859.703	23407.25
859.949	23051.25
860.195	22935.25
860.44	22846.25
860.686	22688.25
860.931	22735.25
861.177	22484.25
861.422	22560.25
861.667	22407.25
861.913	22394.25
862.158	22491.25
862.403	22499.25
862.648	22567.25
862.893	22550.25
863.138	22593.25
863.384	22439.25
863.629	22447.25
863.873	22434.25
864.118	22306.25
864.363	22204.25
864.608	22133.25
864.853	21978.25
865.098	21917.25
865.342	21731.25
865.587	21627.25
865.832	21643.25
866.076	21532.25
866.321	21513.25
866.565	21478.25
866.81	21364.25
867.054	21322.25
867.298	21267.25
867.543	21100.25
867.787	21089.25
868.031	21134.25
868.275	21037.25
868.519	20955.25
868.764	20961.25
869.008	20813.25
869.252	20917.25
869.496	20688.25
869.739	20640.25
869.983	20634.25
870.227	20610.25
870.471	20545.25
870.715	20657.25
870.958	20696.25
871.202	20654.25
871.446	20715.25
871.689	20712.25
871.933	20789.25
872.176	20712.25
872.42	20516.25
872.663	20578.25
872.906	20463.25
873.15	20382.25
873.393	20147.25
873.636	20244.25
873.879	19951.25
874.122	19803.25
874.366	19564.25
874.609	19441.25
874.852	19189.25
875.095	19181.25
875.337	19118.25
875.58	19044.25
875.823	18931.25
876.066	18939.25
876.309	18895.25
876.551	18703.25
876.794	18621.25
877.037	18603.25
877.279	18407.25
877.522	18526.25
877.764	18579.25
878.007	18500.25
878.249	18434.25
878.491	18436.25
878.734	18434.25
878.976	18398.25
879.218	18226.25
879.46	18150.25
879.702	17956.25
879.945	17886.25
880.187	17700.25
880.429	17506.25
880.671	17512.25
880.912	17473.25
881.154	17397.25
881.396	17186.25
881.638	17303.25
881.88	17267.25
882.121	17269.25
882.363	17161.25
882.605	17110.25
882.846	17111.25
883.088	17090.25
883.329	16913.25
883.571	16892.25
883.812	16901.25
884.053	17201.25
884.295	17160.25
884.536	17479.25
884.777	17250.25
885.018	17140.25
885.259	17098.25
885.5	17043.25
885.742	17322.25
885.982	17009.25
886.223	16904.25
886.464	16773.25
886.705	16745.25
886.946	16535.25
887.187	16371.25
887.428	16156.25
887.668	16111.25
887.909	15827.25
888.15	15766.25
888.39	15745.25
888.631	15621.25
888.871	15410.25
889.111	15292.25
889.352	15175.25
889.592	15049.25
889.833	14982.25
890.073	14828.25
890.313	14787.25
890.553	14586.25
890.793	14558.25
891.033	14542.25
891.273	14406.25
891.513	14372.25
891.753	14366.25
891.993	14365.25
892.233	14432.25
892.473	14404.25
892.713	14359.25
892.952	14368.25
893.192	14410.25
893.432	14311.25
893.671	14336.25
893.911	14244.25
894.15	14154.25
894.39	14030.25
894.629	13885.25
894.869	13910.25
895.108	13850.25
895.347	13680.25
895.587	13702.25
895.826	13652.25
896.065	13645.25
896.304	13627.25
896.543	13657.25
896.782	13512.25
897.021	13509.25
897.26	13507.25
897.499	13463.25
897.738	13373.25
897.977	13260.25
898.216	13145.25
898.454	13052.25
898.693	12881.25
898.932	12983.25
899.17	12845.25
899.409	12816.25
899.647	12701.25
899.886	12673.25
900.124	12750.25
900.363	12700.25
900.601	12781.25
900.839	12739.25
901.078	12787.25
901.316	12710.25
901.554	12821.25
901.792	12874.25
902.03	12805.25
902.268	12805.25
902.506	12771.25
902.744	12663.25
902.982	12616.25
903.22	12389.25
903.458	12266.25
903.695	12179.25
903.933	12030.25
904.171	11717.25
904.409	11686.25
904.646	11512.25
904.884	11365.25
905.121	11328.25
905.359	11165.25
905.596	11000.25
905.833	10960.25
906.071	10883.25
906.308	10894.25
906.545	10833.25
906.783	10705.25
907.02	10747.25
907.257	10721.25
907.494	10701.25
907.731	10638.25
907.968	10582.25
908.205	10574.25
908.442	10464.25
908.679	10420.25
908.915	10344.25
909.152	10309.25
909.389	10073.25
909.626	10059.25
909.862	9966.25
910.099	9927.25
910.335	9985.25
910.572	9779.25
910.808	9850.25
911.045	9770.25
911.281	9731.25
911.518	9770.25
911.754	9635.25
911.99	9629.25
912.226	9507.25
912.463	9414.25
912.699	9352.25
912.935	9328.25
913.171	9179.25
913.407	9134.25
913.643	9130.25
913.879	8948.25
914.114	8939.25
914.35	8808.25
914.586	8724.25
914.822	8617.25
915.057	8635.25
915.293	8516.25
915.529	8461.25
915.764	8551.25
916	8538.25
916.235	8419.25
916.471	8428.25
916.706	8314.25
916.941	8351.25
917.177	8350.25
917.412	8323.25
917.647	8367.25
917.882	8291.25
918.117	8322.25
918.352	8297.25
918.588	8273.25
918.823	8194.25
919.057	8076.25
919.292	7918.25
919.527	7971.25
919.762	7872.25
919.997	7823.25
920.232	7732.25
920.466	7653.25
920.701	7455.25
920.935	7544.25
921.17	7460.25
921.405	7425.25
921.639	7418.25
921.873	7368.25
922.108	7323.25
922.342	7309.25
922.576	7228.25
922.811	7232.25
923.045	7220.25
923.279	7178.25
923.513	7064.25
923.747	7109.25
923.981	7041.25
924.215	6978.25
924.449	6938.25
924.683	6844.25
924.917	6855.25
925.151	6849.25
925.385	6825.25
925.618	6779.25
925.852	6769.25
926.086	6657.25
926.319	6767.25
926.553	6719.25
926.786	6735.25
927.02	6656.25
927.253	6678.25
927.486	6714.25
927.72	6669.25
927.953	6659.25
928.186	6584.25
928.42	6653.25
928.653	6554.25
928.886	6512.25
929.119	6571.25
929.352	6452.25
929.585	6490.25
929.818	6317.25
930.051	6308.25
930.284	6320.25
930.516	6190.25
930.749	6159.25
930.982	6198.25
931.215	6105.25
931.447	6084.25
931.68	6033.25
931.912	6023.25
932.145	6013.25
932.377	6014.25
932.61	6134.25
932.842	5915.25
933.074	6044.25
933.307	5958.25
933.539	6078.25
933.771	6009.25
934.003	5918.25
934.236	6015.25
934.468	6019.25
934.7	5917.25
934.932	5937.25
935.164	5886.25
935.395	5874.25
935.627	5933.25
935.859	5811.25
936.091	5727.25
936.323	5778.25
936.554	5818.25
936.786	5753.25
937.017	5682.25
937.249	5613.25
937.481	5572.25
937.712	5671.25
937.943	5634.25
938.175	5642.25
938.406	5599.25
938.637	5615.25
938.869	5540.25
939.1	5591.25
939.331	5600.25
939.562	5548.25
939.793	5563.25
940.024	5525.25
940.255	5504.25
940.486	5391.25
940.717	5417.25
940.948	5379.25
941.179	5338.25
941.409	5321.25
941.64	5321.25
941.871	5344.25
942.102	5290.25
942.332	5267.25
942.563	5326.25
942.793	5388.25
943.024	5210.25
943.254	5249.25
943.484	5318.25
943.715	5329.25
943.945	5300.25
944.175	5239.25
944.405	5192.25
944.636	5219.25
944.866	5241.25
945.096	5216.25
945.326	5146.25
945.556	5190.25
945.786	5191.25
946.016	5082.25
946.245	4989.25
946.475	5036.25
946.705	5004.25
946.935	4968.25
947.164	4977.25
947.394	4907.25
947.624	4900.25
947.853	4903.25
948.083	4889.25
948.312	4857.25
948.542	4752.25
948.771	4726.25
949	4758.25
949.23	4732.25
949.459	4759.25
949.688	4833.25
949.917	4765.25
950.146	4776.25
950.375	4780.25
950.604	4668.25
950.833	4738.25
951.062	4721.25
951.291	4705.25
951.52	4669.25
951.749	4659.25
951.978	4651.25
952.206	4589.25
952.435	4581.25
952.664	4576.25
952.892	4555.25
953.121	4547.25
953.349	4550.25
953.578	4521.25
953.806	4516.25
954.035	4404.25
954.263	4448.25
954.491	4363.25
954.719	4390.25
954.948	4359.25
955.176	4329.25
955.404	4216.25
955.632	4299.25
955.86	4291.25
956.088	4285.25
956.316	4317.25
956.544	4279.25
956.772	4234.25
956.999	4181.25
957.227	4245.25
957.455	4168.25
957.683	4130.25
957.91	4045.25
958.138	4037.25
958.365	4069.25
958.593	4013.25
958.82	3994.25
959.048	4043.25
959.275	3962.25
959.502	3985.25
959.73	3952.25
959.957	3975.25
960.184	4004.25
960.411	3917.25
960.638	4035.25
960.865	3888.25
961.092	3907.25
961.319	3827.25
961.546	3957.25
961.773	3961.25
962	3897.25
962.227	3948.25
962.454	3921.25
962.68	3848.25
962.907	3796.25
963.134	3766.25
963.36	3825.25
963.587	3834.25
963.813	3704.25
964.04	3760.25
964.266	3668.25
964.493	3698.25
964.719	3697.25
964.945	3700.25
965.171	3551.25
965.398	3613.25
965.624	3619.25
965.85	3518.25
966.076	3538.25
966.302	3575.25
966.528	3500.25
966.754	3552.25
966.98	3525.25
967.206	3514.25
967.431	3422.25
967.657	3497.25
967.883	3491.25
968.109	3452.25
968.334	3464.25
968.56	3417.25
968.785	3404.25
969.011	3372.25
969.236	3418.25
969.462	3326.25
969.687	3341.25
969.912	3377.25
970.138	3370.25
970.363	3291.25
970.588	3309.25
970.813	3284.25
971.038	3260.25
971.263	3274.25
971.488	3311.25
971.713	3318.25
971.938	3254.25
972.163	3149.25
972.388	3192.25
972.613	3185.25
972.838	3163.25
973.062	3144.25
973.287	3136.25
973.512	3062.25
973.736	3080.25
973.961	3074.25
974.185	3046.25
974.41	3082.25
974.634	2958.25
974.858	2961.25
975.083	2996.25
975.307	3018.25
975.531	2941.25
975.755	2855.25
975.98	2870.25
976.204	2814.25
976.428	2867.25
976.652	2835.25
976.876	2818.25
977.1	2847.25
977.324	2829.25
977.547	2874.25
977.771	2861.25
977.995	2771.25
978.219	2740.25
978.442	2878.25
978.666	2798.25
978.89	2755.25
979.113	2760.25
979.337	2688.25
979.56	2710.25
979.783	2786.25
980.007	2686.25
980.23	2724.25
980.453	2661.25
980.677	2691.25
980.9	2694.25
981.123	2581.25
981.346	2685.25
981.569	2621.25
981.792	2666.25
982.015	2610.25
982.238	2549.25
982.461	2562.25
982.684	2556.25
982.907	2503.25
983.129	2502.25
983.352	2544.25
983.575	2525.25
983.797	2511.25
984.02	2466.25
984.242	2460.25
984.465	2462.25
984.687	2480.25
984.91	2498.25
985.132	2455.25
985.354	2485.25
985.577	2406.25
985.799	2387.25
986.021	2354.25
986.243	2380.25
986.465	2356.25
986.687	2409.25
986.909	2422.25
987.131	2374.25
987.353	2315.25
987.575	2344.25
987.797	2319.25
988.019	2270.25
988.241	2315.25
988.462	2292.25
988.684	2334.25
988.906	2363.25
989.127	2359.25
989.349	2219.25
989.57	2265.25
989.792	2302.25
990.013	2296.25
990.234	2291.25
990.456	2303.25
990.677	2338.25
990.898	2223.25
991.119	2218.25
991.341	2230.25
991.562	2196.25
991.783	2194.25
992.004	2174.25
992.225	2099.25
992.446	2170.25
992.667	2089.25
992.887	2179.25
993.108	2060.25
993.329	2208.25
993.55	2078.25
993.77	2068.25
993.991	2041.25
994.212	2091.25
994.432	2056.25
994.653	2060.25
994.873	2079.25
995.093	1925.25
995.314	1976.25
995.534	2070.25
995.754	2090.25
995.975	2091.25
996.195	1923.25
996.415	1986.25
996.635	1990.25
996.855	2028.25
997.075	1954.25
997.295	1955.25
997.515	1913.25
997.735	1976.25
997.955	1974.25
998.174	1957.25
998.394	1906.25
998.614	1949.25
998.834	1912.25
999.053	1972.25
999.273	1934.25
999.492	1970.25
999.712	1893.25
999.931	1888.25
1000.151	1918.25
1000.37	1882.25
1000.589	1937.25
1000.809	1862.25
1001.028	2000.25
1001.247	1910.25
1001.466	1807.25
1001.685	1946.25
1001.904	1855.25
1002.123	1862.25
1002.342	1857.25
1002.561	1790.25
1002.78	1824.25
1002.999	1892.25
1003.218	1823.25
1003.436	1788.25
1003.655	1833.25
1003.874	1784.25
1004.092	1810.25
1004.311	1849.25
1004.53	1793.25
1004.748	1858.25
1004.966	1796.25
1005.185	1813.25
1005.403	1809.25
1005.622	1785.25
1005.84	1892.25
1006.058	1741.25
1006.276	1788.25
1006.494	2287.25
1006.712	1782.25
1006.931	1855.25
1007.149	1751.25
1007.367	1732.25
1007.584	1750.25
1007.802	1793.25
1008.02	1746.25
1008.238	1855.25
1008.456	1828.25
1008.673	1704.25
1008.891	1791.25
1009.109	1767.25
1009.326	1802.25
1009.544	1878.25
1009.761	1787.25
1009.979	1881.25
1010.196	1874.25
1010.413	1957.25
1010.631	1987.25
1010.848	2015.25
1011.065	2026.25
1011.282	1968.25
1011.5	1929.25
1011.717	2012.25
1011.934	1967.25
1012.151	1970.25
1012.368	1980.25
1012.585	1908.25
1012.801	1993.25
1013.018	1943.25
1013.235	1907.25
1013.452	1892.25
1013.669	1941.25
1013.885	1918.25
1014.102	1941.25
1014.318	1910.25
1014.535	1838.25
1014.751	1894.25
1014.968	1931.25
1015.184	1923.25
1015.401	1841.25
1015.617	1865.25
1015.833	1817.25
1016.049	1808.25
1016.266	1755.25
1016.482	1779.25
1016.698	1729.25
1016.914	1758.25
1017.13	1707.25
1017.346	1716.25
1017.562	1736.25
1017.778	1681.25
1017.993	1672.25
1018.209	1735.25
1018.425	1673.25
1018.641	1668.25
1018.856	1619.25
1019.072	1677.25
1019.288	1716.25
1019.503	1676.25
1019.719	1590.25
1019.934	1595.25
1020.149	1676.25
1020.365	1618.25
1020.58	1579.25
1020.795	1610.25
1021.011	1527.25
1021.226	1526.25
1021.441	1547.25
1021.656	1488.25
1021.871	1393.25
1022.086	1387.25
1022.301	1383.25
1022.516	1372.25
1022.731	1422.25
1022.946	1340.25
1023.16	1309.25
1023.375	1314.25
1023.59	1290.25
1023.804	1216.25
1024.019	1339.25
1024.234	1182.25
1024.448	1217.25
1024.663	1136.25
1024.877	1147.25
1025.092	1183.25
1025.306	1164.25
1025.52	1068.25
1025.734	1151.25
1025.949	1073.25
1026.163	1050.25
1026.377	980.25
1026.591	1012.25
1026.805	954.25
1027.019	962.25
1027.233	923.25
1027.447	874.25
1027.661	967.25
1027.875	886.25
1028.088	892.25
1028.302	823.25
1028.516	802.25
1028.73	814.25
1028.943	805.25
1029.157	734.25
1029.37	682.25
1029.584	-1.75
1029.797	-0.75
1030.011	-0.75
1030.224	-3.75
