Data from QEP037381__465__17-11-47-250.txt Node

Date: Fri Dec 16 17:11:47 EST 2022
User: dcclab
Spectrometer: QEP03738
Trigger mode: 4
Integration Time (sec): 1.000000E1
Scans to average: 1
Electric dark correction enabled: true
Nonlinearity correction enabled: false
Boxcar width: 0
XAxis mode: Wavelengths
Number of Pixels in Spectrum: 1044
>>>>>Begin Spectral Data<<<<<
784.041	13.25
784.3	2.25
784.558	-4.75
784.817	-2.75
785.075	89273.25
785.334	15234.25
785.592	7156.25
785.851	4983.25
786.109	3774.25
786.368	2960.25
786.626	2373.25
786.884	1979.25
787.143	1681.25
787.401	1403.25
787.659	1268.25
787.917	1087.25
788.175	982.25
788.433	885.25
788.691	792.25
788.949	745.25
789.207	700.25
789.465	608.25
789.723	594.25
789.98	547.25
790.238	568.25
790.496	545.25
790.753	514.25
791.011	577.25
791.268	497.25
791.526	500.25
791.783	505.25
792.041	493.25
792.298	422.25
792.556	483.25
792.813	457.25
793.07	441.25
793.327	430.25
793.584	483.25
793.841	428.25
794.099	446.25
794.356	497.25
794.613	411.25
794.869	455.25
795.126	404.25
795.383	390.25
795.64	425.25
795.897	368.25
796.153	425.25
796.41	418.25
796.667	401.25
796.923	405.25
797.18	394.25
797.436	434.25
797.693	389.25
797.949	437.25
798.206	475.25
798.462	385.25
798.718	436.25
798.974	413.25
799.231	467.25
799.487	463.25
799.743	464.25
799.999	480.25
800.255	475.25
800.511	459.25
800.767	497.25
801.023	463.25
801.279	500.25
801.534	549.25
801.79	585.25
802.046	604.25
802.302	704.25
802.557	782.25
802.813	972.25
803.068	1153.25
803.324	1587.25
803.579	2063.25
803.835	2899.25
804.09	3976.25
804.345	5185.25
804.601	6583.25
804.856	7983.25
805.111	9205.25
805.366	10173.25
805.621	10861.25
805.876	11319.25
806.131	11657.25
806.386	11825.25
806.641	12108.25
806.896	12327.25
807.151	12536.25
807.406	12728.25
807.661	13050.25
807.915	13171.25
808.17	13376.25
808.425	13588.25
808.679	13748.25
808.934	13929.25
809.188	14110.25
809.443	14239.25
809.697	14425.25
809.951	14435.25
810.206	14579.25
810.46	14781.25
810.714	14964.25
810.968	15157.25
811.223	15196.25
811.477	15254.25
811.731	15397.25
811.985	15407.25
812.239	15518.25
812.493	15732.25
812.747	15649.25
813	15732.25
813.254	15872.25
813.508	15890.25
813.762	15998.25
814.015	16080.25
814.269	16209.25
814.522	16351.25
814.776	16616.25
815.03	16899.25
815.283	17017.25
815.536	17278.25
815.79	17573.25
816.043	17727.25
816.296	18166.25
816.55	18297.25
816.803	18478.25
817.056	18846.25
817.309	18919.25
817.562	19151.25
817.815	19388.25
818.068	19499.25
818.321	19770.25
818.574	19964.25
818.827	20212.25
819.079	20398.25
819.332	20906.25
819.585	21093.25
819.838	21411.25
820.09	21361.25
820.343	21730.25
820.595	21757.25
820.848	21959.25
821.1	22082.25
821.353	22067.25
821.605	22029.25
821.857	21929.25
822.11	21844.25
822.362	21788.25
822.614	21829.25
822.866	21788.25
823.118	21854.25
823.37	21975.25
823.622	21929.25
823.874	22056.25
824.126	22144.25
824.378	22069.25
824.63	22148.25
824.882	22330.25
825.134	22216.25
825.385	22121.25
825.637	22132.25
825.888	22058.25
826.14	21966.25
826.392	21821.25
826.643	21742.25
826.895	21686.25
827.146	21735.25
827.397	21503.25
827.649	21601.25
827.9	21574.25
828.151	21612.25
828.402	21661.25
828.653	21721.25
828.905	21741.25
829.156	21765.25
829.407	21746.25
829.658	21742.25
829.909	21737.25
830.159	21759.25
830.41	21653.25
830.661	21456.25
830.912	21338.25
831.162	21353.25
831.413	21267.25
831.664	21288.25
831.914	21332.25
832.165	21242.25
832.415	21171.25
832.666	21238.25
832.916	21198.25
833.167	21126.25
833.417	21214.25
833.667	21070.25
833.917	21041.25
834.168	21017.25
834.418	20955.25
834.668	20877.25
834.918	20708.25
835.168	20625.25
835.418	20474.25
835.668	20438.25
835.918	20421.25
836.167	20391.25
836.417	20357.25
836.667	20290.25
836.917	20278.25
837.166	20203.25
837.416	20372.25
837.666	20169.25
837.915	20136.25
838.165	20083.25
838.414	20092.25
838.663	19902.25
838.913	20019.25
839.162	19784.25
839.411	19962.25
839.661	19749.25
839.91	19755.25
840.159	19738.25
840.408	19700.25
840.657	19621.25
840.906	19745.25
841.155	19691.25
841.404	19604.25
841.653	19670.25
841.902	19676.25
842.15	19689.25
842.399	19693.25
842.648	19593.25
842.897	19562.25
843.145	19428.25
843.394	19236.25
843.642	19204.25
843.891	19138.25
844.139	19104.25
844.388	18839.25
844.636	18761.25
844.884	18738.25
845.133	18628.25
845.381	18738.25
845.629	18784.25
845.877	18768.25
846.125	18669.25
846.373	18736.25
846.621	18538.25
846.869	18555.25
847.117	18410.25
847.365	18298.25
847.613	18336.25
847.861	18112.25
848.108	18258.25
848.356	18143.25
848.604	17962.25
848.851	18129.25
849.099	18119.25
849.346	18064.25
849.594	18158.25
849.841	18279.25
850.089	18249.25
850.336	18141.25
850.583	18232.25
850.831	18159.25
851.078	18041.25
851.325	18063.25
851.572	18243.25
851.819	17893.25
852.066	17574.25
852.313	17329.25
852.56	17157.25
852.807	17129.25
853.054	17003.25
853.301	17063.25
853.548	17047.25
853.794	17132.25
854.041	17112.25
854.288	17251.25
854.534	17280.25
854.781	17284.25
855.028	17211.25
855.274	17162.25
855.52	17005.25
855.767	16931.25
856.013	17004.25
856.26	17263.25
856.506	16859.25
856.752	16689.25
856.998	16733.25
857.244	16874.25
857.49	16910.25
857.736	17004.25
857.982	16875.25
858.228	16858.25
858.474	16753.25
858.72	16568.25
858.966	16473.25
859.212	16394.25
859.458	16098.25
859.703	15930.25
859.949	15810.25
860.195	15703.25
860.44	15639.25
860.686	15543.25
860.931	15564.25
861.177	15492.25
861.422	15401.25
861.667	15264.25
861.913	15331.25
862.158	15342.25
862.403	15401.25
862.648	15477.25
862.893	15510.25
863.138	15438.25
863.384	15339.25
863.629	15341.25
863.873	15318.25
864.118	15253.25
864.363	15193.25
864.608	15227.25
864.853	15090.25
865.098	15122.25
865.342	15036.25
865.587	14861.25
865.832	14972.25
866.076	14818.25
866.321	14850.25
866.565	14732.25
866.81	14625.25
867.054	14631.25
867.298	14537.25
867.543	14513.25
867.787	14584.25
868.031	14453.25
868.275	14415.25
868.519	14441.25
868.764	14465.25
869.008	14390.25
869.252	14325.25
869.496	14236.25
869.739	14156.25
869.983	14292.25
870.227	14184.25
870.471	14077.25
870.715	14207.25
870.958	14097.25
871.202	14222.25
871.446	14267.25
871.689	14291.25
871.933	14242.25
872.176	14184.25
872.42	14115.25
872.663	14107.25
872.906	14113.25
873.15	13979.25
873.393	13843.25
873.636	13968.25
873.879	13804.25
874.122	13727.25
874.366	13474.25
874.609	13478.25
874.852	13377.25
875.095	13255.25
875.337	13201.25
875.58	13101.25
875.823	13063.25
876.066	13055.25
876.309	13129.25
876.551	12927.25
876.794	12810.25
877.037	12819.25
877.279	12813.25
877.522	12813.25
877.764	12822.25
878.007	12751.25
878.249	12740.25
878.491	12699.25
878.734	12742.25
878.976	12644.25
879.218	12602.25
879.46	12542.25
879.702	12502.25
879.945	12311.25
880.187	12242.25
880.429	12189.25
880.671	12117.25
880.912	12092.25
881.154	12047.25
881.396	11937.25
881.638	11988.25
881.88	11988.25
882.121	11824.25
882.363	11871.25
882.605	11934.25
882.846	11839.25
883.088	11848.25
883.329	11703.25
883.571	11750.25
883.812	11688.25
884.053	11890.25
884.295	12061.25
884.536	12166.25
884.777	12132.25
885.018	12055.25
885.259	12010.25
885.5	11896.25
885.742	12095.25
885.982	11887.25
886.223	11784.25
886.464	11787.25
886.705	11605.25
886.946	11512.25
887.187	11330.25
887.428	11243.25
887.668	11162.25
887.909	10998.25
888.15	10914.25
888.39	10900.25
888.631	10857.25
888.871	10692.25
889.111	10623.25
889.352	10587.25
889.592	10514.25
889.833	10338.25
890.073	10390.25
890.313	10346.25
890.553	10161.25
890.793	10182.25
891.033	10029.25
891.273	10086.25
891.513	10066.25
891.753	10077.25
891.993	10063.25
892.233	10030.25
892.473	10096.25
892.713	10023.25
892.952	10026.25
893.192	10063.25
893.432	9953.25
893.671	9950.25
893.911	9940.25
894.15	9907.25
894.39	9752.25
894.629	9774.25
894.869	9728.25
895.108	9686.25
895.347	9578.25
895.587	9588.25
895.826	9553.25
896.065	9577.25
896.304	9612.25
896.543	9567.25
896.782	9489.25
897.021	9449.25
897.26	9471.25
897.499	9521.25
897.738	9452.25
897.977	9328.25
898.216	9245.25
898.454	9157.25
898.693	9106.25
898.932	9082.25
899.17	9045.25
899.409	9017.25
899.647	8981.25
899.886	8916.25
900.124	9011.25
900.363	8936.25
900.601	8967.25
900.839	8957.25
901.078	8963.25
901.316	9043.25
901.554	9062.25
901.792	9094.25
902.03	9050.25
902.268	9057.25
902.506	9121.25
902.744	8955.25
902.982	8887.25
903.22	8808.25
903.458	8672.25
903.695	8518.25
903.933	8546.25
904.171	8290.25
904.409	8230.25
904.646	8151.25
904.884	7955.25
905.121	7957.25
905.359	7809.25
905.596	7801.25
905.833	7671.25
906.071	7650.25
906.308	7717.25
906.545	7625.25
906.783	7575.25
907.02	7516.25
907.257	7486.25
907.494	7564.25
907.731	7528.25
907.968	7448.25
908.205	7403.25
908.442	7299.25
908.679	7345.25
908.915	7238.25
909.152	7240.25
909.389	7179.25
909.626	7078.25
909.862	7002.25
910.099	7029.25
910.335	7004.25
910.572	6884.25
910.808	6922.25
911.045	6872.25
911.281	6857.25
911.518	6914.25
911.754	6809.25
911.99	6751.25
912.226	6759.25
912.463	6597.25
912.699	6641.25
912.935	6563.25
913.171	6475.25
913.407	6446.25
913.643	6476.25
913.879	6382.25
914.114	6291.25
914.35	6242.25
914.586	6170.25
914.822	6123.25
915.057	6175.25
915.293	6034.25
915.529	6028.25
915.764	6059.25
916	6025.25
916.235	5977.25
916.471	5981.25
916.706	5918.25
916.941	5948.25
917.177	5948.25
917.412	5984.25
917.647	5887.25
917.882	5884.25
918.117	5935.25
918.352	5854.25
918.588	5944.25
918.823	5771.25
919.057	5740.25
919.292	5604.25
919.527	5680.25
919.762	5608.25
919.997	5550.25
920.232	5479.25
920.466	5456.25
920.701	5336.25
920.935	5417.25
921.17	5328.25
921.405	5263.25
921.639	5278.25
921.873	5220.25
922.108	5274.25
922.342	5250.25
922.576	5130.25
922.811	5171.25
923.045	5199.25
923.279	5192.25
923.513	5018.25
923.747	5111.25
923.981	5022.25
924.215	5013.25
924.449	4982.25
924.683	4910.25
924.917	4916.25
925.151	4871.25
925.385	4927.25
925.618	4892.25
925.852	4858.25
926.086	4789.25
926.319	4831.25
926.553	4819.25
926.786	4815.25
927.02	4778.25
927.253	4834.25
927.486	4823.25
927.72	4738.25
927.953	4799.25
928.186	4731.25
928.42	4728.25
928.653	4699.25
928.886	4677.25
929.119	4675.25
929.352	4680.25
929.585	4613.25
929.818	4557.25
930.051	4559.25
930.284	4515.25
930.516	4448.25
930.749	4419.25
930.982	4434.25
931.215	4412.25
931.447	4350.25
931.68	4314.25
931.912	4336.25
932.145	4317.25
932.377	4326.25
932.61	4506.25
932.842	4313.25
933.074	4354.25
933.307	4256.25
933.539	4368.25
933.771	4362.25
934.003	4293.25
934.236	4342.25
934.468	4347.25
934.7	4298.25
934.932	4288.25
935.164	4225.25
935.395	4199.25
935.627	4225.25
935.859	4232.25
936.091	4167.25
936.323	4213.25
936.554	4181.25
936.786	4150.25
937.017	4088.25
937.249	4160.25
937.481	4044.25
937.712	4128.25
937.943	4096.25
938.175	4060.25
938.406	4055.25
938.637	4134.25
938.869	4014.25
939.1	4108.25
939.331	4002.25
939.562	4013.25
939.793	3975.25
940.024	4001.25
940.255	3999.25
940.486	3953.25
940.717	3909.25
940.948	3906.25
941.179	3843.25
941.409	3882.25
941.64	3844.25
941.871	3866.25
942.102	3862.25
942.332	3874.25
942.563	3908.25
942.793	3854.25
943.024	3784.25
943.254	3829.25
943.484	3887.25
943.715	3906.25
943.945	3828.25
944.175	3782.25
944.405	3743.25
944.636	3747.25
944.866	3831.25
945.096	3815.25
945.326	3747.25
945.556	3756.25
945.786	3735.25
946.016	3683.25
946.245	3675.25
946.475	3633.25
946.705	3619.25
946.935	3624.25
947.164	3597.25
947.394	3563.25
947.624	3563.25
947.853	3595.25
948.083	3547.25
948.312	3466.25
948.542	3436.25
948.771	3461.25
949	3467.25
949.23	3444.25
949.459	3467.25
949.688	3492.25
949.917	3478.25
950.146	3457.25
950.375	3520.25
950.604	3405.25
950.833	3501.25
951.062	3445.25
951.291	3383.25
951.52	3376.25
951.749	3381.25
951.978	3360.25
952.206	3384.25
952.435	3341.25
952.664	3387.25
952.892	3388.25
953.121	3371.25
953.349	3384.25
953.578	3353.25
953.806	3287.25
954.035	3230.25
954.263	3278.25
954.491	3188.25
954.719	3271.25
954.948	3173.25
955.176	3173.25
955.404	3089.25
955.632	3180.25
955.86	3181.25
956.088	3144.25
956.316	3156.25
956.544	3153.25
956.772	3068.25
956.999	3046.25
957.227	3130.25
957.455	3034.25
957.683	3044.25
957.91	2986.25
958.138	2958.25
958.365	2953.25
958.593	2993.25
958.82	2898.25
959.048	2975.25
959.275	2964.25
959.502	2934.25
959.73	2902.25
959.957	2919.25
960.184	2992.25
960.411	2892.25
960.638	2953.25
960.865	2848.25
961.092	2933.25
961.319	2865.25
961.546	2901.25
961.773	2951.25
962	2880.25
962.227	2901.25
962.454	2860.25
962.68	2798.25
962.907	2879.25
963.134	2819.25
963.36	2805.25
963.587	2868.25
963.813	2733.25
964.04	2766.25
964.266	2697.25
964.493	2781.25
964.719	2721.25
964.945	2766.25
965.171	2625.25
965.398	2695.25
965.624	2706.25
965.85	2658.25
966.076	2644.25
966.302	2657.25
966.528	2627.25
966.754	2668.25
966.98	2607.25
967.206	2653.25
967.431	2535.25
967.657	2647.25
967.883	2601.25
968.109	2573.25
968.334	2525.25
968.56	2555.25
968.785	2541.25
969.011	2497.25
969.236	2584.25
969.462	2469.25
969.687	2521.25
969.912	2559.25
970.138	2535.25
970.363	2467.25
970.588	2507.25
970.813	2465.25
971.038	2445.25
971.263	2503.25
971.488	2439.25
971.713	2484.25
971.938	2493.25
972.163	2362.25
972.388	2407.25
972.613	2352.25
972.838	2413.25
973.062	2371.25
973.287	2359.25
973.512	2286.25
973.736	2324.25
973.961	2328.25
974.185	2280.25
974.41	2325.25
974.634	2241.25
974.858	2272.25
975.083	2250.25
975.307	2271.25
975.531	2235.25
975.755	2142.25
975.98	2178.25
976.204	2120.25
976.428	2120.25
976.652	2153.25
976.876	2101.25
977.1	2183.25
977.324	2101.25
977.547	2144.25
977.771	2126.25
977.995	2100.25
978.219	2040.25
978.442	2169.25
978.666	2097.25
978.89	2065.25
979.113	2073.25
979.337	2078.25
979.56	2026.25
979.783	2111.25
980.007	2045.25
980.23	2071.25
980.453	2007.25
980.677	2060.25
980.9	2040.25
981.123	1962.25
981.346	2045.25
981.569	1990.25
981.792	2041.25
982.015	1981.25
982.238	1955.25
982.461	2001.25
982.684	1943.25
982.907	1938.25
983.129	1890.25
983.352	1956.25
983.575	1946.25
983.797	1909.25
984.02	1863.25
984.242	1877.25
984.465	1877.25
984.687	1893.25
984.91	1912.25
985.132	1898.25
985.354	1880.25
985.577	1861.25
985.799	1848.25
986.021	1777.25
986.243	1805.25
986.465	1831.25
986.687	1872.25
986.909	1912.25
987.131	1837.25
987.353	1805.25
987.575	1841.25
987.797	1799.25
988.019	1717.25
988.241	1796.25
988.462	1757.25
988.684	1796.25
988.906	1850.25
989.127	1849.25
989.349	1723.25
989.57	1758.25
989.792	1812.25
990.013	1781.25
990.234	1802.25
990.456	1817.25
990.677	1769.25
990.898	1733.25
991.119	1722.25
991.341	1774.25
991.562	1695.25
991.783	1738.25
992.004	1650.25
992.225	1658.25
992.446	1721.25
992.667	1614.25
992.887	1694.25
993.108	1594.25
993.329	1745.25
993.55	1648.25
993.77	1614.25
993.991	1632.25
994.212	1640.25
994.432	1611.25
994.653	1627.25
994.873	1629.25
995.093	1541.25
995.314	1596.25
995.534	1624.25
995.754	1618.25
995.975	1642.25
996.195	1554.25
996.415	1612.25
996.635	1557.25
996.855	1573.25
997.075	1529.25
997.295	1524.25
997.515	1537.25
997.735	1577.25
997.955	1551.25
998.174	1526.25
998.394	1544.25
998.614	1549.25
998.834	1524.25
999.053	1584.25
999.273	1522.25
999.492	1587.25
999.712	1519.25
999.931	1527.25
1000.151	1514.25
1000.37	1509.25
1000.589	1579.25
1000.809	1482.25
1001.028	1602.25
1001.247	1528.25
1001.466	1442.25
1001.685	1574.25
1001.904	1503.25
1002.123	1492.25
1002.342	1525.25
1002.561	1465.25
1002.78	1461.25
1002.999	1549.25
1003.218	1474.25
1003.436	1474.25
1003.655	1522.25
1003.874	1445.25
1004.092	1499.25
1004.311	1505.25
1004.53	1459.25
1004.748	1542.25
1004.966	1467.25
1005.185	1506.25
1005.403	1484.25
1005.622	1459.25
1005.84	1539.25
1006.058	1433.25
1006.276	1475.25
1006.494	1941.25
1006.712	1450.25
1006.931	1508.25
1007.149	1427.25
1007.367	1430.25
1007.584	1453.25
1007.802	1508.25
1008.02	1437.25
1008.238	1540.25
1008.456	1526.25
1008.673	1409.25
1008.891	1511.25
1009.109	1450.25
1009.326	1483.25
1009.544	1596.25
1009.761	1462.25
1009.979	1540.25
1010.196	1549.25
1010.413	1622.25
1010.631	1641.25
1010.848	1685.25
1011.065	1645.25
1011.282	1610.25
1011.5	1590.25
1011.717	1714.25
1011.934	1639.25
1012.151	1666.25
1012.368	1638.25
1012.585	1573.25
1012.801	1656.25
1013.018	1632.25
1013.235	1573.25
1013.452	1585.25
1013.669	1592.25
1013.885	1591.25
1014.102	1629.25
1014.318	1576.25
1014.535	1522.25
1014.751	1562.25
1014.968	1560.25
1015.184	1621.25
1015.401	1519.25
1015.617	1542.25
1015.833	1468.25
1016.049	1496.25
1016.266	1501.25
1016.482	1489.25
1016.698	1447.25
1016.914	1469.25
1017.13	1433.25
1017.346	1417.25
1017.562	1494.25
1017.778	1426.25
1017.993	1378.25
1018.209	1446.25
1018.425	1436.25
1018.641	1396.25
1018.856	1364.25
1019.072	1409.25
1019.288	1460.25
1019.503	1402.25
1019.719	1343.25
1019.934	1344.25
1020.149	1435.25
1020.365	1356.25
1020.58	1297.25
1020.795	1338.25
1021.011	1319.25
1021.226	1261.25
1021.441	1297.25
1021.656	1225.25
1021.871	1146.25
1022.086	1191.25
1022.301	1145.25
1022.516	1156.25
1022.731	1181.25
1022.946	1139.25
1023.16	1123.25
1023.375	1081.25
1023.59	1058.25
1023.804	1035.25
1024.019	1137.25
1024.234	1018.25
1024.448	1031.25
1024.663	948.25
1024.877	992.25
1025.092	1000.25
1025.306	999.25
1025.52	915.25
1025.734	993.25
1025.949	940.25
1026.163	896.25
1026.377	833.25
1026.591	883.25
1026.805	812.25
1027.019	827.25
1027.233	783.25
1027.447	717.25
1027.661	829.25
1027.875	771.25
1028.088	770.25
1028.302	693.25
1028.516	684.25
1028.73	694.25
1028.943	674.25
1029.157	639.25
1029.37	607.25
1029.584	-1.75
1029.797	-0.75
1030.011	-1.75
1030.224	-3.75
