Data from QEP037381__79__14-53-05-876.txt Node

Date: Wed Dec 21 14:53:05 EST 2022
User: dcclab
Spectrometer: QEP03738
Trigger mode: 4
Integration Time (sec): 1.000000E1
Scans to average: 1
Electric dark correction enabled: true
Nonlinearity correction enabled: false
Boxcar width: 0
XAxis mode: Wavelengths
Number of Pixels in Spectrum: 1044
>>>>>Begin Spectral Data<<<<<
784.041	14.25
784.3	2.25
784.558	-3.75
784.817	0.25
785.075	105173.25
785.334	17925.25
785.592	8357.25
785.851	5700.25
786.109	4338.25
786.368	3386.25
786.626	2714.25
786.884	2254.25
787.143	1926.25
787.401	1595.25
787.659	1434.25
787.917	1211.25
788.175	1114.25
788.433	998.25
788.691	882.25
788.949	827.25
789.207	790.25
789.465	692.25
789.723	679.25
789.98	630.25
790.238	646.25
790.496	609.25
790.753	586.25
791.011	630.25
791.268	575.25
791.526	554.25
791.783	568.25
792.041	539.25
792.298	464.25
792.556	529.25
792.813	518.25
793.07	486.25
793.327	485.25
793.584	562.25
793.841	473.25
794.099	500.25
794.356	556.25
794.613	453.25
794.869	498.25
795.126	470.25
795.383	454.25
795.64	459.25
795.897	432.25
796.153	490.25
796.41	473.25
796.667	441.25
796.923	458.25
797.18	456.25
797.436	482.25
797.693	459.25
797.949	514.25
798.206	542.25
798.462	461.25
798.718	515.25
798.974	510.25
799.231	553.25
799.487	540.25
799.743	541.25
799.999	571.25
800.255	580.25
800.511	557.25
800.767	625.25
801.023	636.25
801.279	672.25
801.534	716.25
801.79	787.25
802.046	877.25
802.302	1043.25
802.557	1214.25
802.813	1575.25
803.068	1970.25
803.324	2798.25
803.579	3855.25
803.835	5339.25
804.09	7345.25
804.345	9685.25
804.601	12187.25
804.856	14790.25
805.111	17168.25
805.366	18958.25
805.621	20288.25
805.876	21342.25
806.131	21955.25
806.386	22334.25
806.641	22728.25
806.896	23172.25
807.151	23517.25
807.406	23956.25
807.661	24278.25
807.915	24711.25
808.17	25120.25
808.425	25441.25
808.679	25705.25
808.934	25902.25
809.188	26115.25
809.443	26387.25
809.697	26688.25
809.951	26877.25
810.206	27281.25
810.46	27500.25
810.714	27684.25
810.968	27918.25
811.223	28021.25
811.477	28491.25
811.731	28584.25
811.985	28798.25
812.239	28773.25
812.493	29117.25
812.747	29143.25
813	29230.25
813.254	29354.25
813.508	29430.25
813.762	29564.25
814.015	29735.25
814.269	29945.25
814.522	30304.25
814.776	30516.25
815.03	31001.25
815.283	31509.25
815.536	31839.25
815.79	32420.25
816.043	32831.25
816.296	33353.25
816.55	33709.25
816.803	34251.25
817.056	34755.25
817.309	35074.25
817.562	35247.25
817.815	35616.25
818.068	35834.25
818.321	36219.25
818.574	36711.25
818.827	37082.25
819.079	37521.25
819.332	38171.25
819.585	38734.25
819.838	39134.25
820.09	39342.25
820.343	39678.25
820.595	39782.25
820.848	40170.25
821.1	40260.25
821.353	40226.25
821.605	40190.25
821.857	40214.25
822.11	39995.25
822.362	39892.25
822.614	39899.25
822.866	39930.25
823.118	39920.25
823.37	39882.25
823.622	40218.25
823.874	40146.25
824.126	40359.25
824.378	40406.25
824.63	40603.25
824.882	40719.25
825.134	40665.25
825.385	40495.25
825.637	40508.25
825.888	40328.25
826.14	40229.25
826.392	40086.25
826.643	39910.25
826.895	39640.25
827.146	39667.25
827.397	39656.25
827.649	39540.25
827.9	39401.25
828.151	39668.25
828.402	39692.25
828.653	39856.25
828.905	39831.25
829.156	39941.25
829.407	40004.25
829.658	40003.25
829.909	40101.25
830.159	40118.25
830.41	40064.25
830.661	39753.25
830.912	39349.25
831.162	39171.25
831.413	39123.25
831.664	39137.25
831.914	39049.25
832.165	38917.25
832.415	38971.25
832.666	38983.25
832.916	39065.25
833.167	39034.25
833.417	39012.25
833.667	38785.25
833.917	38832.25
834.168	38708.25
834.418	38614.25
834.668	38311.25
834.918	38132.25
835.168	38135.25
835.418	37832.25
835.668	37758.25
835.918	37750.25
836.167	37682.25
836.417	37541.25
836.667	37480.25
836.917	37468.25
837.166	37563.25
837.416	37473.25
837.666	37404.25
837.915	37457.25
838.165	37377.25
838.414	37161.25
838.663	36998.25
838.913	37015.25
839.162	36970.25
839.411	36932.25
839.661	36832.25
839.91	36760.25
840.159	36727.25
840.408	36575.25
840.657	36651.25
840.906	36582.25
841.155	36683.25
841.404	36515.25
841.653	36649.25
841.902	36758.25
842.15	36784.25
842.399	36878.25
842.648	36655.25
842.897	36439.25
843.145	36263.25
843.394	36095.25
843.642	35970.25
843.891	35783.25
844.139	35516.25
844.388	35211.25
844.636	35384.25
844.884	35085.25
845.133	35181.25
845.381	35083.25
845.629	35145.25
845.877	35009.25
846.125	35075.25
846.373	34896.25
846.621	34835.25
846.869	34787.25
847.117	34621.25
847.365	34326.25
847.613	34237.25
847.861	34060.25
848.108	34005.25
848.356	33923.25
848.604	33838.25
848.851	33879.25
849.099	33861.25
849.346	34052.25
849.594	34120.25
849.841	34246.25
850.089	34402.25
850.336	34482.25
850.583	34504.25
850.831	34147.25
851.078	34017.25
851.325	33965.25
851.572	33769.25
851.819	33564.25
852.066	33105.25
852.313	32535.25
852.56	32289.25
852.807	32184.25
853.054	32055.25
853.301	32080.25
853.548	32193.25
853.794	32333.25
854.041	32273.25
854.288	32447.25
854.534	32711.25
854.781	32554.25
855.028	32569.25
855.274	32581.25
855.52	32323.25
855.767	32124.25
856.013	32166.25
856.26	32411.25
856.506	31876.25
856.752	31745.25
856.998	31710.25
857.244	31864.25
857.49	32007.25
857.736	32189.25
857.982	32217.25
858.228	32074.25
858.474	31693.25
858.72	31508.25
858.966	31142.25
859.212	30946.25
859.458	30569.25
859.703	30338.25
859.949	30011.25
860.195	29780.25
860.44	29675.25
860.686	29524.25
860.931	29621.25
861.177	29310.25
861.422	29243.25
861.667	29036.25
861.913	29125.25
862.158	29214.25
862.403	29248.25
862.648	29240.25
862.893	29320.25
863.138	29221.25
863.384	29245.25
863.629	29231.25
863.873	29156.25
864.118	29023.25
864.363	28816.25
864.608	28902.25
864.853	28599.25
865.098	28518.25
865.342	28350.25
865.587	28359.25
865.832	28253.25
866.076	28268.25
866.321	28234.25
866.565	28135.25
866.81	27945.25
867.054	27799.25
867.298	27640.25
867.543	27576.25
867.787	27637.25
868.031	27448.25
868.275	27430.25
868.519	27441.25
868.764	27400.25
869.008	27213.25
869.252	27184.25
869.496	27049.25
869.739	27050.25
869.983	26995.25
870.227	26966.25
870.471	27009.25
870.715	26999.25
870.958	27202.25
871.202	27132.25
871.446	27149.25
871.689	27101.25
871.933	27235.25
872.176	27135.25
872.42	27068.25
872.663	26955.25
872.906	26911.25
873.15	26835.25
873.393	26666.25
873.636	26618.25
873.879	26337.25
874.122	26171.25
874.366	25786.25
874.609	25522.25
874.852	25506.25
875.095	25184.25
875.337	25087.25
875.58	25078.25
875.823	24889.25
876.066	24810.25
876.309	24896.25
876.551	24680.25
876.794	24416.25
877.037	24530.25
877.279	24368.25
877.522	24372.25
877.764	24590.25
878.007	24347.25
878.249	24401.25
878.491	24214.25
878.734	24318.25
878.976	24186.25
879.218	24030.25
879.46	23950.25
879.702	23858.25
879.945	23496.25
880.187	23364.25
880.429	23215.25
880.671	23137.25
880.912	23064.25
881.154	22933.25
881.396	22819.25
881.638	22911.25
881.88	22835.25
882.121	22710.25
882.363	22684.25
882.605	22781.25
882.846	22559.25
883.088	22504.25
883.329	22632.25
883.571	22600.25
883.812	22743.25
884.053	23070.25
884.295	23397.25
884.536	23622.25
884.777	23462.25
885.018	23334.25
885.259	23135.25
885.5	23004.25
885.742	23249.25
885.982	22942.25
886.223	22778.25
886.464	22549.25
886.705	22268.25
886.946	22279.25
887.187	21861.25
887.428	21713.25
887.668	21346.25
887.909	21103.25
888.15	20921.25
888.39	20857.25
888.631	20773.25
888.871	20413.25
889.111	20429.25
889.352	20173.25
889.592	20021.25
889.833	19911.25
890.073	19772.25
890.313	19723.25
890.553	19477.25
890.793	19414.25
891.033	19262.25
891.273	19171.25
891.513	19101.25
891.753	19066.25
891.993	18983.25
892.233	19032.25
892.473	19104.25
892.713	19119.25
892.952	18946.25
893.192	19043.25
893.432	19038.25
893.671	18971.25
893.911	18942.25
894.15	18700.25
894.39	18513.25
894.629	18506.25
894.869	18441.25
895.108	18385.25
895.347	18088.25
895.587	18213.25
895.826	18038.25
896.065	17984.25
896.304	17955.25
896.543	18001.25
896.782	17842.25
897.021	17804.25
897.26	17686.25
897.499	17762.25
897.738	17682.25
897.977	17608.25
898.216	17408.25
898.454	17163.25
898.693	17074.25
898.932	17118.25
899.17	16880.25
899.409	16846.25
899.647	16857.25
899.886	16823.25
900.124	16852.25
900.363	16755.25
900.601	16903.25
900.839	16899.25
901.078	16870.25
901.316	16914.25
901.554	17062.25
901.792	16955.25
902.03	16971.25
902.268	16993.25
902.506	16938.25
902.744	16776.25
902.982	16760.25
903.22	16476.25
903.458	16246.25
903.695	16146.25
903.933	15890.25
904.171	15635.25
904.409	15470.25
904.646	15305.25
904.884	15014.25
905.121	14914.25
905.359	14819.25
905.596	14693.25
905.833	14439.25
906.071	14493.25
906.308	14487.25
906.545	14455.25
906.783	14301.25
907.02	14378.25
907.257	14224.25
907.494	14132.25
907.731	14235.25
907.968	14119.25
908.205	14052.25
908.442	13919.25
908.679	13930.25
908.915	13733.25
909.152	13677.25
909.389	13396.25
909.626	13407.25
909.862	13314.25
910.099	13299.25
910.335	13246.25
910.572	13135.25
910.808	13179.25
911.045	13039.25
911.281	13003.25
911.518	13011.25
911.754	12972.25
911.99	12795.25
912.226	12730.25
912.463	12624.25
912.699	12546.25
912.935	12416.25
913.171	12321.25
913.407	12169.25
913.643	12235.25
913.879	12047.25
914.114	11946.25
914.35	11847.25
914.586	11691.25
914.822	11585.25
915.057	11666.25
915.293	11414.25
915.529	11368.25
915.764	11396.25
916	11353.25
916.235	11330.25
916.471	11269.25
916.706	11240.25
916.941	11187.25
917.177	11177.25
917.412	11198.25
917.647	11203.25
917.882	11062.25
918.117	11089.25
918.352	11002.25
918.588	11138.25
918.823	10853.25
919.057	10848.25
919.292	10659.25
919.527	10624.25
919.762	10462.25
919.997	10482.25
920.232	10347.25
920.466	10252.25
920.701	10107.25
920.935	10122.25
921.17	9948.25
921.405	9953.25
921.639	9960.25
921.873	9934.25
922.108	9855.25
922.342	9775.25
922.576	9796.25
922.811	9707.25
923.045	9686.25
923.279	9712.25
923.513	9571.25
923.747	9556.25
923.981	9417.25
924.215	9348.25
924.449	9322.25
924.683	9305.25
924.917	9177.25
925.151	9143.25
925.385	9170.25
925.618	9093.25
925.852	9042.25
926.086	8948.25
926.319	9064.25
926.553	8987.25
926.786	9036.25
927.02	8945.25
927.253	8991.25
927.486	8997.25
927.72	8857.25
927.953	8966.25
928.186	8816.25
928.42	8939.25
928.653	8772.25
928.886	8702.25
929.119	8772.25
929.352	8701.25
929.585	8611.25
929.818	8547.25
930.051	8517.25
930.284	8455.25
930.516	8274.25
930.749	8290.25
930.982	8232.25
931.215	8221.25
931.447	8143.25
931.68	8159.25
931.912	8035.25
932.145	8038.25
932.377	8027.25
932.61	8216.25
932.842	8065.25
933.074	8095.25
933.307	7989.25
933.539	8057.25
933.771	8058.25
934.003	8039.25
934.236	8095.25
934.468	8059.25
934.7	7994.25
934.932	7975.25
935.164	7949.25
935.395	7865.25
935.627	7831.25
935.859	7848.25
936.091	7766.25
936.323	7769.25
936.554	7779.25
936.786	7679.25
937.017	7644.25
937.249	7661.25
937.481	7583.25
937.712	7670.25
937.943	7557.25
938.175	7598.25
938.406	7539.25
938.637	7629.25
938.869	7482.25
939.1	7570.25
939.331	7463.25
939.562	7452.25
939.793	7448.25
940.024	7436.25
940.255	7362.25
940.486	7302.25
940.717	7259.25
940.948	7325.25
941.179	7251.25
941.409	7193.25
941.64	7174.25
941.871	7147.25
942.102	7123.25
942.332	7176.25
942.563	7221.25
942.793	7204.25
943.024	7100.25
943.254	7175.25
943.484	7223.25
943.715	7165.25
943.945	7102.25
944.175	7103.25
944.405	7038.25
944.636	7052.25
944.866	7066.25
945.096	7044.25
945.326	6871.25
945.556	7019.25
945.786	6992.25
946.016	6866.25
946.245	6805.25
946.475	6822.25
946.705	6760.25
946.935	6734.25
947.164	6671.25
947.394	6627.25
947.624	6644.25
947.853	6649.25
948.083	6566.25
948.312	6530.25
948.542	6569.25
948.771	6444.25
949	6496.25
949.23	6471.25
949.459	6464.25
949.688	6527.25
949.917	6500.25
950.146	6442.25
950.375	6482.25
950.604	6339.25
950.833	6409.25
951.062	6478.25
951.291	6371.25
951.52	6296.25
951.749	6338.25
951.978	6244.25
952.206	6280.25
952.435	6299.25
952.664	6264.25
952.892	6214.25
953.121	6173.25
953.349	6168.25
953.578	6196.25
953.806	6088.25
954.035	6067.25
954.263	6037.25
954.491	5983.25
954.719	5989.25
954.948	5927.25
955.176	5968.25
955.404	5845.25
955.632	5871.25
955.86	5885.25
956.088	5837.25
956.316	5838.25
956.544	5877.25
956.772	5729.25
956.999	5692.25
957.227	5767.25
957.455	5636.25
957.683	5614.25
957.91	5585.25
958.138	5571.25
958.365	5522.25
958.593	5516.25
958.82	5452.25
959.048	5551.25
959.275	5447.25
959.502	5437.25
959.73	5374.25
959.957	5418.25
960.184	5438.25
960.411	5362.25
960.638	5406.25
960.865	5414.25
961.092	5331.25
961.319	5240.25
961.546	5365.25
961.773	5353.25
962	5337.25
962.227	5352.25
962.454	5275.25
962.68	5222.25
962.907	5232.25
963.134	5181.25
963.36	5147.25
963.587	5153.25
963.813	5087.25
964.04	5102.25
964.266	4964.25
964.493	5074.25
964.719	5040.25
964.945	4954.25
965.171	4912.25
965.398	4942.25
965.624	4939.25
965.85	4854.25
966.076	4819.25
966.302	4798.25
966.528	4769.25
966.754	4763.25
966.98	4759.25
967.206	4775.25
967.431	4739.25
967.657	4757.25
967.883	4739.25
968.109	4702.25
968.334	4677.25
968.56	4599.25
968.785	4666.25
969.011	4632.25
969.236	4601.25
969.462	4560.25
969.687	4583.25
969.912	4611.25
970.138	4598.25
970.363	4485.25
970.588	4546.25
970.813	4489.25
971.038	4471.25
971.263	4471.25
971.488	4432.25
971.713	4485.25
971.938	4431.25
972.163	4289.25
972.388	4342.25
972.613	4301.25
972.838	4331.25
973.062	4297.25
973.287	4273.25
973.512	4185.25
973.736	4241.25
973.961	4167.25
974.185	4163.25
974.41	4228.25
974.634	4072.25
974.858	4079.25
975.083	4092.25
975.307	4053.25
975.531	4002.25
975.755	3947.25
975.98	3965.25
976.204	3903.25
976.428	3896.25
976.652	3891.25
976.876	3842.25
977.1	3918.25
977.324	3820.25
977.547	3860.25
977.771	3897.25
977.995	3812.25
978.219	3716.25
978.442	3871.25
978.666	3754.25
978.89	3764.25
979.113	3739.25
979.337	3742.25
979.56	3671.25
979.783	3785.25
980.007	3658.25
980.23	3698.25
980.453	3626.25
980.677	3635.25
980.9	3653.25
981.123	3567.25
981.346	3606.25
981.569	3611.25
981.792	3621.25
982.015	3509.25
982.238	3490.25
982.461	3488.25
982.684	3472.25
982.907	3417.25
983.129	3414.25
983.352	3430.25
983.575	3385.25
983.797	3398.25
984.02	3341.25
984.242	3364.25
984.465	3316.25
984.687	3346.25
984.91	3348.25
985.132	3282.25
985.354	3291.25
985.577	3287.25
985.799	3189.25
986.021	3153.25
986.243	3158.25
986.465	3196.25
986.687	3277.25
986.909	3263.25
987.131	3148.25
987.353	3122.25
987.575	3189.25
987.797	3118.25
988.019	3057.25
988.241	3115.25
988.462	3055.25
988.684	3119.25
988.906	3095.25
989.127	3180.25
989.349	3032.25
989.57	3039.25
989.792	3068.25
990.013	3082.25
990.234	3058.25
990.456	3098.25
990.677	3046.25
990.898	2996.25
991.119	2990.25
991.341	3019.25
991.562	2892.25
991.783	2944.25
992.004	2899.25
992.225	2839.25
992.446	2912.25
992.667	2766.25
992.887	2857.25
993.108	2745.25
993.329	2856.25
993.55	2774.25
993.77	2743.25
993.991	2726.25
994.212	2765.25
994.432	2725.25
994.653	2727.25
994.873	2702.25
995.093	2610.25
995.314	2646.25
995.534	2721.25
995.754	2738.25
995.975	2714.25
996.195	2634.25
996.415	2678.25
996.635	2625.25
996.855	2658.25
997.075	2624.25
997.295	2577.25
997.515	2545.25
997.735	2637.25
997.955	2603.25
998.174	2584.25
998.394	2563.25
998.614	2585.25
998.834	2508.25
999.053	2658.25
999.273	2547.25
999.492	2623.25
999.712	2511.25
999.931	2461.25
1000.151	2534.25
1000.37	2473.25
1000.589	2552.25
1000.809	2468.25
1001.028	2545.25
1001.247	2495.25
1001.466	2352.25
1001.685	2472.25
1001.904	2438.25
1002.123	2403.25
1002.342	2394.25
1002.561	2357.25
1002.78	2351.25
1002.999	2388.25
1003.218	2328.25
1003.436	2306.25
1003.655	2356.25
1003.874	2275.25
1004.092	2292.25
1004.311	2331.25
1004.53	2280.25
1004.748	2361.25
1004.966	2238.25
1005.185	2299.25
1005.403	2292.25
1005.622	2285.25
1005.84	2342.25
1006.058	2243.25
1006.276	2265.25
1006.494	2715.25
1006.712	2210.25
1006.931	2311.25
1007.149	2191.25
1007.367	2223.25
1007.584	2264.25
1007.802	2295.25
1008.02	2215.25
1008.238	2354.25
1008.456	2366.25
1008.673	2206.25
1008.891	2292.25
1009.109	2321.25
1009.326	2345.25
1009.544	2458.25
1009.761	2398.25
1009.979	2499.25
1010.196	2483.25
1010.413	2627.25
1010.631	2704.25
1010.848	2769.25
1011.065	2803.25
1011.282	2757.25
1011.5	2652.25
1011.717	2765.25
1011.934	2732.25
1012.151	2707.25
1012.368	2688.25
1012.585	2629.25
1012.801	2664.25
1013.018	2665.25
1013.235	2630.25
1013.452	2631.25
1013.669	2671.25
1013.885	2650.25
1014.102	2679.25
1014.318	2667.25
1014.535	2626.25
1014.751	2641.25
1014.968	2610.25
1015.184	2630.25
1015.401	2529.25
1015.617	2574.25
1015.833	2474.25
1016.049	2508.25
1016.266	2448.25
1016.482	2430.25
1016.698	2337.25
1016.914	2394.25
1017.13	2316.25
1017.346	2303.25
1017.562	2388.25
1017.778	2276.25
1017.993	2222.25
1018.209	2322.25
1018.425	2279.25
1018.641	2240.25
1018.856	2227.25
1019.072	2230.25
1019.288	2298.25
1019.503	2236.25
1019.719	2128.25
1019.934	2119.25
1020.149	2217.25
1020.365	2141.25
1020.58	2053.25
1020.795	2116.25
1021.011	1993.25
1021.226	1984.25
1021.441	1984.25
1021.656	1863.25
1021.871	1814.25
1022.086	1783.25
1022.301	1778.25
1022.516	1765.25
1022.731	1815.25
1022.946	1697.25
1023.16	1690.25
1023.375	1656.25
1023.59	1586.25
1023.804	1535.25
1024.019	1648.25
1024.234	1491.25
1024.448	1511.25
1024.663	1448.25
1024.877	1443.25
1025.092	1442.25
1025.306	1457.25
1025.52	1331.25
1025.734	1396.25
1025.949	1302.25
1026.163	1264.25
1026.377	1192.25
1026.591	1243.25
1026.805	1164.25
1027.019	1161.25
1027.233	1123.25
1027.447	1042.25
1027.661	1133.25
1027.875	1096.25
1028.088	1096.25
1028.302	1019.25
1028.516	986.25
1028.73	944.25
1028.943	939.25
1029.157	862.25
1029.37	815.25
1029.584	-1.75
1029.797	-2.75
1030.011	-3.75
1030.224	-4.75
