Data from QEP037381__90__14-54-55-876.txt Node

Date: Wed Dec 21 14:54:55 EST 2022
User: dcclab
Spectrometer: QEP03738
Trigger mode: 4
Integration Time (sec): 1.000000E1
Scans to average: 1
Electric dark correction enabled: true
Nonlinearity correction enabled: false
Boxcar width: 0
XAxis mode: Wavelengths
Number of Pixels in Spectrum: 1044
>>>>>Begin Spectral Data<<<<<
784.041	13.75
784.3	-0.25
784.558	-1.25
784.817	-2.25
785.075	114259.75
785.334	19129.75
785.592	8692.75
785.851	5974.75
786.109	4482.75
786.368	3488.75
786.626	2822.75
786.884	2326.75
787.143	1933.75
787.401	1631.75
787.659	1439.75
787.917	1226.75
788.175	1114.75
788.433	997.75
788.691	900.75
788.949	814.75
789.207	779.75
789.465	692.75
789.723	685.75
789.98	620.75
790.238	652.75
790.496	609.75
790.753	575.75
791.011	628.75
791.268	550.75
791.526	548.75
791.783	545.75
792.041	533.75
792.298	453.75
792.556	518.75
792.813	499.75
793.07	461.75
793.327	468.75
793.584	545.75
793.841	487.75
794.099	478.75
794.356	546.75
794.613	424.75
794.869	480.75
795.126	442.75
795.383	431.75
795.64	437.75
795.897	401.75
796.153	462.75
796.41	442.75
796.667	429.75
796.923	436.75
797.18	438.75
797.436	471.75
797.693	440.75
797.949	488.75
798.206	504.75
798.462	433.75
798.718	474.75
798.974	457.75
799.231	505.75
799.487	495.75
799.743	486.75
799.999	528.75
800.255	508.75
800.511	513.75
800.767	561.75
801.023	551.75
801.279	595.75
801.534	607.75
801.79	694.75
802.046	736.75
802.302	863.75
802.557	988.75
802.813	1236.75
803.068	1538.75
803.324	2133.75
803.579	2901.75
803.835	4004.75
804.09	5485.75
804.345	7085.75
804.601	8981.75
804.856	10837.75
805.111	12476.75
805.366	13825.75
805.621	14740.75
805.876	15416.75
806.131	15893.75
806.386	16250.75
806.641	16582.75
806.896	16823.75
807.151	17244.75
807.406	17388.75
807.661	17765.75
807.915	18103.75
808.17	18413.75
808.425	18557.75
808.679	18655.75
808.934	18884.75
809.188	19062.75
809.443	19324.75
809.697	19550.75
809.951	19693.75
810.206	19813.75
810.46	19911.75
810.714	20159.75
810.968	20452.75
811.223	20482.75
811.477	20786.75
811.731	20878.75
811.985	21000.75
812.239	21045.75
812.493	21169.75
812.747	21261.75
813	21261.75
813.254	21348.75
813.508	21492.75
813.762	21490.75
814.015	21691.75
814.269	21871.75
814.522	21995.75
814.776	22223.75
815.03	22680.75
815.283	22878.75
815.536	23313.75
815.79	23629.75
816.043	24051.75
816.296	24295.75
816.55	24713.75
816.803	24942.75
817.056	25231.75
817.309	25513.75
817.562	25811.75
817.815	26085.75
818.068	26162.75
818.321	26422.75
818.574	26750.75
818.827	27142.75
819.079	27421.75
819.332	27902.75
819.585	28350.75
819.838	28727.75
820.09	28644.75
820.343	29062.75
820.595	29128.75
820.848	29476.75
821.1	29435.75
821.353	29463.75
821.605	29458.75
821.857	29434.75
822.11	29172.75
822.362	29250.75
822.614	29122.75
822.866	29257.75
823.118	29153.75
823.37	29246.75
823.622	29432.75
823.874	29503.75
824.126	29642.75
824.378	29670.75
824.63	29641.75
824.882	29776.75
825.134	29672.75
825.385	29616.75
825.637	29556.75
825.888	29430.75
826.14	29338.75
826.392	29378.75
826.643	29077.75
826.895	29065.75
827.146	28870.75
827.397	29062.75
827.649	28972.75
827.9	28871.75
828.151	28905.75
828.402	29063.75
828.653	29198.75
828.905	29230.75
829.156	29153.75
829.407	29381.75
829.658	29414.75
829.909	29598.75
830.159	29584.75
830.41	29358.75
830.661	29068.75
830.912	28912.75
831.162	28790.75
831.413	28869.75
831.664	28975.75
831.914	28744.75
832.165	28574.75
832.415	28635.75
832.666	28689.75
832.916	28781.75
833.167	28697.75
833.417	28883.75
833.667	28551.75
833.917	28513.75
834.168	28466.75
834.418	28389.75
834.668	28307.75
834.918	28158.75
835.168	28114.75
835.418	27838.75
835.668	27870.75
835.918	27767.75
836.167	27644.75
836.417	27687.75
836.667	27619.75
836.917	27698.75
837.166	27716.75
837.416	27759.75
837.666	27620.75
837.915	27585.75
838.165	27551.75
838.414	27363.75
838.663	27383.75
838.913	27453.75
839.162	27394.75
839.411	27454.75
839.661	27203.75
839.91	27259.75
840.159	27177.75
840.408	27182.75
840.657	27199.75
840.906	27242.75
841.155	27224.75
841.404	27165.75
841.653	27223.75
841.902	27203.75
842.15	27313.75
842.399	27474.75
842.648	27371.75
842.897	27133.75
843.145	27044.75
843.394	26770.75
843.642	26774.75
843.891	26580.75
844.139	26552.75
844.388	26139.75
844.636	26167.75
844.884	26095.75
845.133	26098.75
845.381	26103.75
845.629	26117.75
845.877	26022.75
846.125	26132.75
846.373	25921.75
846.621	25908.75
846.869	25869.75
847.117	25725.75
847.365	25623.75
847.613	25307.75
847.861	25398.75
848.108	25482.75
848.356	25403.75
848.604	25305.75
848.851	25243.75
849.099	25250.75
849.346	25374.75
849.594	25382.75
849.841	25587.75
850.089	25607.75
850.336	25590.75
850.583	25763.75
850.831	25614.75
851.078	25416.75
851.325	25509.75
851.572	25506.75
851.819	25327.75
852.066	24738.75
852.313	24418.75
852.56	24085.75
852.807	24184.75
853.054	23987.75
853.301	24037.75
853.548	23932.75
853.794	24112.75
854.041	24275.75
854.288	24275.75
854.534	24648.75
854.781	24405.75
855.028	24427.75
855.274	24467.75
855.52	24287.75
855.767	24302.75
856.013	24190.75
856.26	24648.75
856.506	23941.75
856.752	24036.75
856.998	23961.75
857.244	24013.75
857.49	24213.75
857.736	24175.75
857.982	24341.75
858.228	24103.75
858.474	23841.75
858.72	23647.75
858.966	23477.75
859.212	23255.75
859.458	23004.75
859.703	22752.75
859.949	22572.75
860.195	22446.75
860.44	22277.75
860.686	22402.75
860.931	22254.75
861.177	22067.75
861.422	21909.75
861.667	21821.75
861.913	21848.75
862.158	21753.75
862.403	21843.75
862.648	21865.75
862.893	21894.75
863.138	21887.75
863.384	21841.75
863.629	21753.75
863.873	21813.75
864.118	21855.75
864.363	21674.75
864.608	21616.75
864.853	21437.75
865.098	21363.75
865.342	21278.75
865.587	21189.75
865.832	21191.75
866.076	21145.75
866.321	21014.75
866.565	21021.75
866.81	20891.75
867.054	20858.75
867.298	20763.75
867.543	20679.75
867.787	20708.75
868.031	20618.75
868.275	20597.75
868.519	20576.75
868.764	20555.75
869.008	20534.75
869.252	20521.75
869.496	20416.75
869.739	20477.75
869.983	20472.75
870.227	20408.75
870.471	20469.75
870.715	20508.75
870.958	20698.75
871.202	20666.75
871.446	20588.75
871.689	20671.75
871.933	20621.75
872.176	20514.75
872.42	20379.75
872.663	20452.75
872.906	20498.75
873.15	20559.75
873.393	20508.75
873.636	20461.75
873.879	20303.75
874.122	20079.75
874.366	19659.75
874.609	19534.75
874.852	19351.75
875.095	19245.75
875.337	18985.75
875.58	18937.75
875.823	18918.75
876.066	18868.75
876.309	18874.75
876.551	18715.75
876.794	18631.75
877.037	18560.75
877.279	18528.75
877.522	18493.75
877.764	18422.75
878.007	18442.75
878.249	18382.75
878.491	18394.75
878.734	18257.75
878.976	18326.75
879.218	18194.75
879.46	18083.75
879.702	17911.75
879.945	17680.75
880.187	17629.75
880.429	17585.75
880.671	17280.75
880.912	17324.75
881.154	17224.75
881.396	17202.75
881.638	17192.75
881.88	17250.75
882.121	17110.75
882.363	17186.75
882.605	17170.75
882.846	17087.75
883.088	17228.75
883.329	17068.75
883.571	17213.75
883.812	17497.75
884.053	17975.75
884.295	18417.75
884.536	18794.75
884.777	18578.75
885.018	18421.75
885.259	18243.75
885.5	18124.75
885.742	18325.75
885.982	17935.75
886.223	17775.75
886.464	17630.75
886.705	17324.75
886.946	17102.75
887.187	16707.75
887.428	16558.75
887.668	16284.75
887.909	16042.75
888.15	15760.75
888.39	15793.75
888.631	15606.75
888.871	15452.75
889.111	15308.75
889.352	15160.75
889.592	15036.75
889.833	14973.75
890.073	14832.75
890.313	14835.75
890.553	14591.75
890.793	14482.75
891.033	14505.75
891.273	14356.75
891.513	14332.75
891.753	14368.75
891.993	14279.75
892.233	14364.75
892.473	14424.75
892.713	14325.75
892.952	14226.75
893.192	14358.75
893.432	14249.75
893.671	14277.75
893.911	14220.75
894.15	14152.75
894.39	14057.75
894.629	13914.75
894.869	13879.75
895.108	13799.75
895.347	13722.75
895.587	13670.75
895.826	13580.75
896.065	13628.75
896.304	13576.75
896.543	13649.75
896.782	13480.75
897.021	13461.75
897.26	13359.75
897.499	13488.75
897.738	13413.75
897.977	13322.75
898.216	13170.75
898.454	13062.75
898.693	12975.75
898.932	12926.75
899.17	12904.75
899.409	12832.75
899.647	12803.75
899.886	12727.75
900.124	12828.75
900.363	12815.75
900.601	12880.75
900.839	12926.75
901.078	12862.75
901.316	12990.75
901.554	13048.75
901.792	13157.75
902.03	13122.75
902.268	13076.75
902.506	13194.75
902.744	13000.75
902.982	12908.75
903.22	12733.75
903.458	12491.75
903.695	12368.75
903.933	12130.75
904.171	11972.75
904.409	11785.75
904.646	11645.75
904.884	11415.75
905.121	11379.75
905.359	11217.75
905.596	11176.75
905.833	11025.75
906.071	11008.75
906.308	10993.75
906.545	10884.75
906.783	10752.75
907.02	10851.75
907.257	10758.75
907.494	10766.75
907.731	10776.75
907.968	10714.75
908.205	10651.75
908.442	10529.75
908.679	10527.75
908.915	10448.75
909.152	10316.75
909.389	10215.75
909.626	10146.75
909.862	10080.75
910.099	10106.75
910.335	10044.75
910.572	9959.75
910.808	9951.75
911.045	9848.75
911.281	9802.75
911.518	9850.75
911.754	9756.75
911.99	9625.75
912.226	9602.75
912.463	9508.75
912.699	9433.75
912.935	9434.75
913.171	9394.75
913.407	9221.75
913.643	9222.75
913.879	9098.75
914.114	9081.75
914.35	8949.75
914.586	8901.75
914.822	8780.75
915.057	8849.75
915.293	8646.75
915.529	8604.75
915.764	8646.75
916	8607.75
916.235	8618.75
916.471	8581.75
916.706	8490.75
916.941	8452.75
917.177	8447.75
917.412	8556.75
917.647	8546.75
917.882	8445.75
918.117	8472.75
918.352	8435.75
918.588	8455.75
918.823	8246.75
919.057	8279.75
919.292	8059.75
919.527	8084.75
919.762	7992.75
919.997	7971.75
920.232	7885.75
920.466	7849.75
920.701	7604.75
920.935	7688.75
921.17	7611.75
921.405	7537.75
921.639	7555.75
921.873	7481.75
922.108	7502.75
922.342	7480.75
922.576	7368.75
922.811	7381.75
923.045	7410.75
923.279	7372.75
923.513	7224.75
923.747	7276.75
923.981	7258.75
924.215	7199.75
924.449	7081.75
924.683	7026.75
924.917	7085.75
925.151	6954.75
925.385	6999.75
925.618	6941.75
925.852	6978.75
926.086	6872.75
926.319	6901.75
926.553	6891.75
926.786	6900.75
927.02	6825.75
927.253	6937.75
927.486	6899.75
927.72	6825.75
927.953	6839.75
928.186	6717.75
928.42	6793.75
928.653	6681.75
928.886	6626.75
929.119	6679.75
929.352	6654.75
929.585	6579.75
929.818	6499.75
930.051	6543.75
930.284	6463.75
930.516	6349.75
930.749	6317.75
930.982	6304.75
931.215	6276.75
931.447	6244.75
931.68	6285.75
931.912	6176.75
932.145	6192.75
932.377	6202.75
932.61	6380.75
932.842	6131.75
933.074	6173.75
933.307	6130.75
933.539	6224.75
933.771	6193.75
934.003	6125.75
934.236	6214.75
934.468	6198.75
934.7	6097.75
934.932	6131.75
935.164	6037.75
935.395	6031.75
935.627	6047.75
935.859	6000.75
936.091	5979.75
936.323	5954.75
936.554	5975.75
936.786	5925.75
937.017	5833.75
937.249	5916.75
937.481	5843.75
937.712	5902.75
937.943	5811.75
938.175	5747.75
938.406	5776.75
938.637	5804.75
938.869	5746.75
939.1	5724.75
939.331	5672.75
939.562	5726.75
939.793	5704.75
940.024	5705.75
940.255	5680.75
940.486	5607.75
940.717	5629.75
940.948	5608.75
941.179	5534.75
941.409	5493.75
941.64	5506.75
941.871	5569.75
942.102	5476.75
942.332	5483.75
942.563	5523.75
942.793	5525.75
943.024	5413.75
943.254	5409.75
943.484	5524.75
943.715	5504.75
943.945	5470.75
944.175	5394.75
944.405	5382.75
944.636	5392.75
944.866	5469.75
945.096	5471.75
945.326	5333.75
945.556	5399.75
945.786	5401.75
946.016	5292.75
946.245	5249.75
946.475	5238.75
946.705	5216.75
946.935	5177.75
947.164	5180.75
947.394	5128.75
947.624	5132.75
947.853	5135.75
948.083	5106.75
948.312	5055.75
948.542	5017.75
948.771	4953.75
949	4935.75
949.23	5036.75
949.459	4972.75
949.688	5044.75
949.917	4912.75
950.146	4951.75
950.375	4973.75
950.604	4917.75
950.833	4959.75
951.062	4959.75
951.291	4896.75
951.52	4913.75
951.749	4886.75
951.978	4858.75
952.206	4829.75
952.435	4850.75
952.664	4861.75
952.892	4850.75
953.121	4770.75
953.349	4847.75
953.578	4774.75
953.806	4742.75
954.035	4660.75
954.263	4729.75
954.491	4608.75
954.719	4676.75
954.948	4578.75
955.176	4536.75
955.404	4516.75
955.632	4571.75
955.86	4537.75
956.088	4489.75
956.316	4515.75
956.544	4500.75
956.772	4425.75
956.999	4420.75
957.227	4490.75
957.455	4326.75
957.683	4396.75
957.91	4297.75
958.138	4335.75
958.365	4306.75
958.593	4250.75
958.82	4196.75
959.048	4287.75
959.275	4263.75
959.502	4196.75
959.73	4191.75
959.957	4202.75
960.184	4183.75
960.411	4141.75
960.638	4232.75
960.865	4130.75
961.092	4184.75
961.319	4111.75
961.546	4163.75
961.773	4199.75
962	4129.75
962.227	4194.75
962.454	4125.75
962.68	4074.75
962.907	4148.75
963.134	4043.75
963.36	4022.75
963.587	3989.75
963.813	3897.75
964.04	3970.75
964.266	3897.75
964.493	3967.75
964.719	3903.75
964.945	3916.75
965.171	3830.75
965.398	3876.75
965.624	3851.75
965.85	3808.75
966.076	3773.75
966.302	3799.75
966.528	3761.75
966.754	3751.75
966.98	3732.75
967.206	3711.75
967.431	3668.75
967.657	3760.75
967.883	3705.75
968.109	3704.75
968.334	3632.75
968.56	3626.75
968.785	3646.75
969.011	3551.75
969.236	3637.75
969.462	3567.75
969.687	3565.75
969.912	3618.75
970.138	3614.75
970.363	3502.75
970.588	3537.75
970.813	3508.75
971.038	3492.75
971.263	3536.75
971.488	3472.75
971.713	3507.75
971.938	3507.75
972.163	3356.75
972.388	3421.75
972.613	3406.75
972.838	3406.75
973.062	3353.75
973.287	3342.75
973.512	3282.75
973.736	3353.75
973.961	3289.75
974.185	3288.75
974.41	3261.75
974.634	3183.75
974.858	3189.75
975.083	3255.75
975.307	3238.75
975.531	3187.75
975.755	3093.75
975.98	3107.75
976.204	3046.75
976.428	3051.75
976.652	3062.75
976.876	3015.75
977.1	3013.75
977.324	3018.75
977.547	3019.75
977.771	3068.75
977.995	3010.75
978.219	2962.75
978.442	3081.75
978.666	2954.75
978.89	2966.75
979.113	2965.75
979.337	2944.75
979.56	2888.75
979.783	2985.75
980.007	2851.75
980.23	2911.75
980.453	2882.75
980.677	2910.75
980.9	2893.75
981.123	2792.75
981.346	2829.75
981.569	2812.75
981.792	2891.75
982.015	2789.75
982.238	2769.75
982.461	2736.75
982.684	2746.75
982.907	2718.75
983.129	2691.75
983.352	2724.75
983.575	2684.75
983.797	2695.75
984.02	2657.75
984.242	2658.75
984.465	2640.75
984.687	2694.75
984.91	2678.75
985.132	2655.75
985.354	2671.75
985.577	2622.75
985.799	2575.75
986.021	2508.75
986.243	2522.75
986.465	2542.75
986.687	2622.75
986.909	2619.75
987.131	2514.75
987.353	2535.75
987.575	2567.75
987.797	2495.75
988.019	2449.75
988.241	2504.75
988.462	2460.75
988.684	2490.75
988.906	2510.75
989.127	2533.75
989.349	2425.75
989.57	2445.75
989.792	2484.75
990.013	2492.75
990.234	2505.75
990.456	2522.75
990.677	2502.75
990.898	2425.75
991.119	2414.75
991.341	2447.75
991.562	2359.75
991.783	2437.75
992.004	2334.75
992.225	2284.75
992.446	2366.75
992.667	2263.75
992.887	2366.75
993.108	2211.75
993.329	2348.75
993.55	2314.75
993.77	2221.75
993.991	2221.75
994.212	2222.75
994.432	2196.75
994.653	2225.75
994.873	2259.75
995.093	2120.75
995.314	2145.75
995.534	2244.75
995.754	2220.75
995.975	2245.75
996.195	2120.75
996.415	2199.75
996.635	2163.75
996.855	2176.75
997.075	2171.75
997.295	2150.75
997.515	2110.75
997.735	2177.75
997.955	2141.75
998.174	2143.75
998.394	2102.75
998.614	2145.75
998.834	2102.75
999.053	2162.75
999.273	2122.75
999.492	2157.75
999.712	2091.75
999.931	2062.75
1000.151	2092.75
1000.37	2074.75
1000.589	2098.75
1000.809	2054.75
1001.028	2125.75
1001.247	2046.75
1001.466	1915.75
1001.685	2083.75
1001.904	2020.75
1002.123	2012.75
1002.342	2000.75
1002.561	1953.75
1002.78	1961.75
1002.999	2015.75
1003.218	1972.75
1003.436	1929.75
1003.655	2007.75
1003.874	1906.75
1004.092	1912.75
1004.311	1968.75
1004.53	1937.75
1004.748	1985.75
1004.966	1897.75
1005.185	1951.75
1005.403	1946.75
1005.622	1938.75
1005.84	1973.75
1006.058	1866.75
1006.276	1919.75
1006.494	2439.75
1006.712	1916.75
1006.931	1996.75
1007.149	1909.75
1007.367	1923.75
1007.584	1931.75
1007.802	1978.75
1008.02	1930.75
1008.238	2056.75
1008.456	2051.75
1008.673	1933.75
1008.891	2059.75
1009.109	2025.75
1009.326	2060.75
1009.544	2199.75
1009.761	2134.75
1009.979	2294.75
1010.196	2287.75
1010.413	2433.75
1010.631	2547.75
1010.848	2629.75
1011.065	2618.75
1011.282	2637.75
1011.5	2568.75
1011.717	2637.75
1011.934	2551.75
1012.151	2588.75
1012.368	2578.75
1012.585	2517.75
1012.801	2541.75
1013.018	2495.75
1013.235	2530.75
1013.452	2529.75
1013.669	2539.75
1013.885	2524.75
1014.102	2576.75
1014.318	2526.75
1014.535	2533.75
1014.751	2523.75
1014.968	2504.75
1015.184	2507.75
1015.401	2396.75
1015.617	2409.75
1015.833	2368.75
1016.049	2361.75
1016.266	2327.75
1016.482	2326.75
1016.698	2208.75
1016.914	2289.75
1017.13	2233.75
1017.346	2213.75
1017.562	2244.75
1017.778	2188.75
1017.993	2137.75
1018.209	2200.75
1018.425	2167.75
1018.641	2107.75
1018.856	2093.75
1019.072	2131.75
1019.288	2191.75
1019.503	2102.75
1019.719	2010.75
1019.934	2009.75
1020.149	2113.75
1020.365	2025.75
1020.58	1952.75
1020.795	1939.75
1021.011	1870.75
1021.226	1823.75
1021.441	1821.75
1021.656	1756.75
1021.871	1645.75
1022.086	1648.75
1022.301	1634.75
1022.516	1616.75
1022.731	1662.75
1022.946	1537.75
1023.16	1520.75
1023.375	1488.75
1023.59	1462.75
1023.804	1407.75
1024.019	1495.75
1024.234	1364.75
1024.448	1377.75
1024.663	1289.75
1024.877	1285.75
1025.092	1298.75
1025.306	1310.75
1025.52	1187.75
1025.734	1268.75
1025.949	1182.75
1026.163	1142.75
1026.377	1080.75
1026.591	1111.75
1026.805	1025.75
1027.019	1039.75
1027.233	977.75
1027.447	942.75
1027.661	1034.75
1027.875	942.75
1028.088	960.75
1028.302	882.75
1028.516	861.75
1028.73	870.75
1028.943	840.75
1029.157	776.75
1029.37	732.75
1029.584	-3.25
1029.797	-4.25
1030.011	0.75
1030.224	-3.25
