Data from QEP037381__76__14-52-35-877.txt Node

Date: Wed Dec 21 14:52:35 EST 2022
User: dcclab
Spectrometer: QEP03738
Trigger mode: 4
Integration Time (sec): 1.000000E1
Scans to average: 1
Electric dark correction enabled: true
Nonlinearity correction enabled: false
Boxcar width: 0
XAxis mode: Wavelengths
Number of Pixels in Spectrum: 1044
>>>>>Begin Spectral Data<<<<<
784.041	13.12
784.3	-4.88
784.558	0.12
784.817	-3.88
785.075	104364.12
785.334	17249.12
785.592	8043.12
785.851	5564.12
786.109	4229.12
786.368	3269.12
786.626	2658.12
786.884	2196.12
787.143	1876.12
787.401	1518.12
787.659	1373.12
787.917	1165.12
788.175	1086.12
788.433	943.12
788.691	866.12
788.949	806.12
789.207	783.12
789.465	659.12
789.723	651.12
789.98	597.12
790.238	637.12
790.496	600.12
790.753	556.12
791.011	621.12
791.268	564.12
791.526	548.12
791.783	563.12
792.041	539.12
792.298	458.12
792.556	521.12
792.813	515.12
793.07	483.12
793.327	462.12
793.584	562.12
793.841	465.12
794.099	500.12
794.356	543.12
794.613	450.12
794.869	485.12
795.126	447.12
795.383	436.12
795.64	449.12
795.897	410.12
796.153	469.12
796.41	458.12
796.667	434.12
796.923	442.12
797.18	447.12
797.436	475.12
797.693	443.12
797.949	486.12
798.206	526.12
798.462	439.12
798.718	514.12
798.974	490.12
799.231	533.12
799.487	532.12
799.743	528.12
799.999	562.12
800.255	548.12
800.511	554.12
800.767	586.12
801.023	566.12
801.279	651.12
801.534	686.12
801.79	750.12
802.046	810.12
802.302	992.12
802.557	1125.12
802.813	1470.12
803.068	1855.12
803.324	2577.12
803.579	3553.12
803.835	4935.12
804.09	6799.12
804.345	8872.12
804.601	11229.12
804.856	13556.12
805.111	15621.12
805.366	17222.12
805.621	18526.12
805.876	19431.12
806.131	19881.12
806.386	20313.12
806.641	20707.12
806.896	20965.12
807.151	21348.12
807.406	21700.12
807.661	22141.12
807.915	22506.12
808.17	22718.12
808.425	23105.12
808.679	23258.12
808.934	23647.12
809.188	23810.12
809.443	24064.12
809.697	24241.12
809.951	24458.12
810.206	24716.12
810.46	24929.12
810.714	25074.12
810.968	25367.12
811.223	25407.12
811.477	25780.12
811.731	26062.12
811.985	26044.12
812.239	26149.12
812.493	26245.12
812.747	26432.12
813	26348.12
813.254	26642.12
813.508	26708.12
813.762	26939.12
814.015	27047.12
814.269	27173.12
814.522	27487.12
814.776	27734.12
815.03	28096.12
815.283	28549.12
815.536	29031.12
815.79	29547.12
816.043	29870.12
816.296	30278.12
816.55	30667.12
816.803	30911.12
817.056	31414.12
817.309	31730.12
817.562	31929.12
817.815	32268.12
818.068	32581.12
818.321	32890.12
818.574	33294.12
818.827	33739.12
819.079	34077.12
819.332	34745.12
819.585	35047.12
819.838	35543.12
820.09	35768.12
820.343	35926.12
820.595	36143.12
820.848	36368.12
821.1	36396.12
821.353	36531.12
821.605	36402.12
821.857	36552.12
822.11	36235.12
822.362	36150.12
822.614	36226.12
822.866	36239.12
823.118	36135.12
823.37	36424.12
823.622	36505.12
823.874	36537.12
824.126	36735.12
824.378	36682.12
824.63	36731.12
824.882	36949.12
825.134	36805.12
825.385	36914.12
825.637	36739.12
825.888	36624.12
826.14	36510.12
826.392	36578.12
826.643	36325.12
826.895	36172.12
827.146	36103.12
827.397	36060.12
827.649	36098.12
827.9	35986.12
828.151	36049.12
828.402	35998.12
828.653	36210.12
828.905	36242.12
829.156	36403.12
829.407	36433.12
829.658	36510.12
829.909	36568.12
830.159	36575.12
830.41	36439.12
830.661	36154.12
830.912	35859.12
831.162	35789.12
831.413	35685.12
831.664	35859.12
831.914	35742.12
832.165	35665.12
832.415	35569.12
832.666	35641.12
832.916	35844.12
833.167	35657.12
833.417	35722.12
833.667	35490.12
833.917	35393.12
834.168	35449.12
834.418	35208.12
834.668	35069.12
834.918	34953.12
835.168	34786.12
835.418	34690.12
835.668	34657.12
835.918	34404.12
836.167	34510.12
836.417	34423.12
836.667	34479.12
836.917	34449.12
837.166	34412.12
837.416	34436.12
837.666	34434.12
837.915	34235.12
838.165	34377.12
838.414	34197.12
838.663	33956.12
838.913	33968.12
839.162	33951.12
839.411	33913.12
839.661	33797.12
839.91	33907.12
840.159	33708.12
840.408	33770.12
840.657	33791.12
840.906	33761.12
841.155	33727.12
841.404	33686.12
841.653	33864.12
841.902	33910.12
842.15	33976.12
842.399	33991.12
842.648	33741.12
842.897	33724.12
843.145	33425.12
843.394	33269.12
843.642	33133.12
843.891	32997.12
844.139	32714.12
844.388	32644.12
844.636	32524.12
844.884	32424.12
845.133	32479.12
845.381	32462.12
845.629	32437.12
845.877	32376.12
846.125	32342.12
846.373	32420.12
846.621	32300.12
846.869	32156.12
847.117	32041.12
847.365	31739.12
847.613	31664.12
847.861	31488.12
848.108	31606.12
848.356	31535.12
848.604	31384.12
848.851	31565.12
849.099	31521.12
849.346	31480.12
849.594	31768.12
849.841	31894.12
850.089	31842.12
850.336	32003.12
850.583	32072.12
850.831	31860.12
851.078	31683.12
851.325	31549.12
851.572	31700.12
851.819	31380.12
852.066	30732.12
852.313	30358.12
852.56	30094.12
852.807	30051.12
853.054	29822.12
853.301	29812.12
853.548	29874.12
853.794	30086.12
854.041	30209.12
854.288	30179.12
854.534	30543.12
854.781	30388.12
855.028	30208.12
855.274	30430.12
855.52	30067.12
855.767	30082.12
856.013	30086.12
856.26	30240.12
856.506	29752.12
856.752	29548.12
856.998	29674.12
857.244	29741.12
857.49	29992.12
857.736	30092.12
857.982	30060.12
858.228	29894.12
858.474	29602.12
858.72	29498.12
858.966	29114.12
859.212	28905.12
859.458	28601.12
859.703	28434.12
859.949	28056.12
860.195	27962.12
860.44	27751.12
860.686	27752.12
860.931	27736.12
861.177	27505.12
861.422	27397.12
861.667	27317.12
861.913	27200.12
862.158	27342.12
862.403	27273.12
862.648	27557.12
862.893	27512.12
863.138	27351.12
863.384	27342.12
863.629	27295.12
863.873	27242.12
864.118	27260.12
864.363	27193.12
864.608	27077.12
864.853	26931.12
865.098	26865.12
865.342	26671.12
865.587	26502.12
865.832	26611.12
866.076	26425.12
866.321	26444.12
866.565	26356.12
866.81	26204.12
867.054	26160.12
867.298	26013.12
867.543	26021.12
867.787	25987.12
868.031	25755.12
868.275	25910.12
868.519	25773.12
868.764	25812.12
869.008	25735.12
869.252	25692.12
869.496	25588.12
869.739	25540.12
869.983	25533.12
870.227	25544.12
870.471	25429.12
870.715	25629.12
870.958	25801.12
871.202	25659.12
871.446	25821.12
871.689	25703.12
871.933	25705.12
872.176	25854.12
872.42	25585.12
872.663	25516.12
872.906	25558.12
873.15	25543.12
873.393	25375.12
873.636	25305.12
873.879	25121.12
874.122	24778.12
874.366	24551.12
874.609	24311.12
874.852	24149.12
875.095	23964.12
875.337	23866.12
875.58	23775.12
875.823	23722.12
876.066	23760.12
876.309	23639.12
876.551	23496.12
876.794	23440.12
877.037	23355.12
877.279	23241.12
877.522	23253.12
877.764	23232.12
878.007	23088.12
878.249	23079.12
878.491	23011.12
878.734	23067.12
878.976	22985.12
879.218	22868.12
879.46	22824.12
879.702	22536.12
879.945	22361.12
880.187	22107.12
880.429	22052.12
880.671	21875.12
880.912	21806.12
881.154	21823.12
881.396	21687.12
881.638	21749.12
881.88	21763.12
882.121	21618.12
882.363	21670.12
882.605	21598.12
882.846	21515.12
883.088	21564.12
883.329	21632.12
883.571	21585.12
883.812	21766.12
884.053	22157.12
884.295	22561.12
884.536	22740.12
884.777	22748.12
885.018	22550.12
885.259	22437.12
885.5	22247.12
885.742	22445.12
885.982	22258.12
886.223	21976.12
886.464	21856.12
886.705	21575.12
886.946	21426.12
887.187	21024.12
887.428	20896.12
887.668	20449.12
887.909	20161.12
888.15	20039.12
888.39	19857.12
888.631	19802.12
888.871	19492.12
889.111	19441.12
889.352	19364.12
889.592	19185.12
889.833	18931.12
890.073	18865.12
890.313	18836.12
890.553	18496.12
890.793	18488.12
891.033	18448.12
891.273	18344.12
891.513	18274.12
891.753	18274.12
891.993	18257.12
892.233	18261.12
892.473	18318.12
892.713	18262.12
892.952	18258.12
893.192	18295.12
893.432	18200.12
893.671	18343.12
893.911	18166.12
894.15	18052.12
894.39	17829.12
894.629	17767.12
894.869	17637.12
895.108	17522.12
895.347	17508.12
895.587	17371.12
895.826	17454.12
896.065	17280.12
896.304	17320.12
896.543	17222.12
896.782	17161.12
897.021	17148.12
897.26	17144.12
897.499	17163.12
897.738	17046.12
897.977	16908.12
898.216	16830.12
898.454	16663.12
898.693	16474.12
898.932	16508.12
899.17	16422.12
899.409	16338.12
899.647	16359.12
899.886	16272.12
900.124	16335.12
900.363	16351.12
900.601	16343.12
900.839	16300.12
901.078	16446.12
901.316	16554.12
901.554	16581.12
901.792	16650.12
902.03	16703.12
902.268	16630.12
902.506	16559.12
902.744	16489.12
902.982	16471.12
903.22	16027.12
903.458	15923.12
903.695	15695.12
903.933	15473.12
904.171	15230.12
904.409	15052.12
904.646	14941.12
904.884	14673.12
905.121	14514.12
905.359	14302.12
905.596	14173.12
905.833	13984.12
906.071	14040.12
906.308	14032.12
906.545	13975.12
906.783	13918.12
907.02	13913.12
907.257	13845.12
907.494	13724.12
907.731	13713.12
907.968	13718.12
908.205	13582.12
908.442	13508.12
908.679	13386.12
908.915	13353.12
909.152	13237.12
909.389	13062.12
909.626	13154.12
909.862	12858.12
910.099	12898.12
910.335	12876.12
910.572	12727.12
910.808	12760.12
911.045	12713.12
911.281	12620.12
911.518	12598.12
911.754	12545.12
911.99	12512.12
912.226	12347.12
912.463	12177.12
912.699	12186.12
912.935	12030.12
913.171	11946.12
913.407	11777.12
913.643	11846.12
913.879	11698.12
914.114	11547.12
914.35	11429.12
914.586	11333.12
914.822	11227.12
915.057	11320.12
915.293	11115.12
915.529	11079.12
915.764	11051.12
916	11088.12
916.235	11000.12
916.471	10980.12
916.706	10961.12
916.941	10852.12
917.177	10885.12
917.412	10989.12
917.647	10836.12
917.882	10784.12
918.117	10794.12
918.352	10753.12
918.588	10754.12
918.823	10637.12
919.057	10532.12
919.292	10320.12
919.527	10400.12
919.762	10232.12
919.997	10124.12
920.232	9994.12
920.466	9981.12
920.701	9796.12
920.935	9816.12
921.17	9721.12
921.405	9631.12
921.639	9683.12
921.873	9606.12
922.108	9618.12
922.342	9554.12
922.576	9481.12
922.811	9455.12
923.045	9440.12
923.279	9483.12
923.513	9309.12
923.747	9299.12
923.981	9204.12
924.215	9154.12
924.449	9138.12
924.683	9041.12
924.917	8943.12
925.151	8954.12
925.385	9022.12
925.618	8882.12
925.852	8921.12
926.086	8825.12
926.319	8828.12
926.553	8798.12
926.786	8840.12
927.02	8845.12
927.253	8812.12
927.486	8779.12
927.72	8655.12
927.953	8802.12
928.186	8670.12
928.42	8704.12
928.653	8616.12
928.886	8542.12
929.119	8552.12
929.352	8489.12
929.585	8469.12
929.818	8350.12
930.051	8309.12
930.284	8310.12
930.516	8125.12
930.749	8110.12
930.982	8143.12
931.215	7998.12
931.447	7942.12
931.68	7989.12
931.912	7961.12
932.145	7940.12
932.377	7917.12
932.61	8027.12
932.842	7862.12
933.074	7929.12
933.307	7861.12
933.539	7985.12
933.771	7898.12
934.003	7882.12
934.236	8032.12
934.468	8063.12
934.7	8027.12
934.932	8026.12
935.164	7937.12
935.395	7919.12
935.627	7796.12
935.859	7821.12
936.091	7702.12
936.323	7734.12
936.554	7641.12
936.786	7585.12
937.017	7563.12
937.249	7537.12
937.481	7503.12
937.712	7482.12
937.943	7520.12
938.175	7493.12
938.406	7458.12
938.637	7521.12
938.869	7374.12
939.1	7472.12
939.331	7435.12
939.562	7467.12
939.793	7516.12
940.024	7673.12
940.255	8170.12
940.486	9051.12
940.717	9664.12
940.948	9542.12
941.179	9000.12
941.409	8499.12
941.64	7975.12
941.871	7600.12
942.102	7352.12
942.332	7255.12
942.563	7132.12
942.793	7105.12
943.024	7090.12
943.254	7047.12
943.484	7053.12
943.715	7033.12
943.945	7049.12
944.175	6973.12
944.405	6911.12
944.636	6993.12
944.866	6972.12
945.096	6962.12
945.326	6789.12
945.556	6940.12
945.786	6863.12
946.016	6816.12
946.245	6749.12
946.475	6716.12
946.705	6625.12
946.935	6599.12
947.164	6650.12
947.394	6523.12
947.624	6522.12
947.853	6541.12
948.083	6483.12
948.312	6498.12
948.542	6379.12
948.771	6369.12
949	6366.12
949.23	6367.12
949.459	6410.12
949.688	6357.12
949.917	6293.12
950.146	6331.12
950.375	6410.12
950.604	6251.12
950.833	6286.12
951.062	6370.12
951.291	6305.12
951.52	6213.12
951.749	6229.12
951.978	6153.12
952.206	6134.12
952.435	6131.12
952.664	6157.12
952.892	6132.12
953.121	6121.12
953.349	6109.12
953.578	6043.12
953.806	5974.12
954.035	5951.12
954.263	5976.12
954.491	5880.12
954.719	5902.12
954.948	5855.12
955.176	5815.12
955.404	5681.12
955.632	5816.12
955.86	5764.12
956.088	5765.12
956.316	5781.12
956.544	5741.12
956.772	5697.12
956.999	5594.12
957.227	5645.12
957.455	5593.12
957.683	5577.12
957.91	5472.12
958.138	5487.12
958.365	5464.12
958.593	5479.12
958.82	5347.12
959.048	5400.12
959.275	5367.12
959.502	5387.12
959.73	5345.12
959.957	5333.12
960.184	5362.12
960.411	5285.12
960.638	5295.12
960.865	5257.12
961.092	5271.12
961.319	5213.12
961.546	5314.12
961.773	5256.12
962	5244.12
962.227	5263.12
962.454	5219.12
962.68	5220.12
962.907	5151.12
963.134	5076.12
963.36	5095.12
963.587	5125.12
963.813	4966.12
964.04	5030.12
964.266	4973.12
964.493	5022.12
964.719	4933.12
964.945	4948.12
965.171	4842.12
965.398	4828.12
965.624	4851.12
965.85	4774.12
966.076	4737.12
966.302	4819.12
966.528	4718.12
966.754	4723.12
966.98	4731.12
967.206	4774.12
967.431	4651.12
967.657	4671.12
967.883	4686.12
968.109	4623.12
968.334	4574.12
968.56	4584.12
968.785	4584.12
969.011	4494.12
969.236	4589.12
969.462	4445.12
969.687	4485.12
969.912	4455.12
970.138	4572.12
970.363	4410.12
970.588	4465.12
970.813	4446.12
971.038	4366.12
971.263	4437.12
971.488	4416.12
971.713	4417.12
971.938	4412.12
972.163	4291.12
972.388	4335.12
972.613	4274.12
972.838	4277.12
973.062	4269.12
973.287	4222.12
973.512	4139.12
973.736	4165.12
973.961	4200.12
974.185	4097.12
974.41	4154.12
974.634	4064.12
974.858	3996.12
975.083	4032.12
975.307	4060.12
975.531	3951.12
975.755	3877.12
975.98	3881.12
976.204	3854.12
976.428	3830.12
976.652	3818.12
976.876	3795.12
977.1	3802.12
977.324	3793.12
977.547	3806.12
977.771	3800.12
977.995	3739.12
978.219	3687.12
978.442	3809.12
978.666	3759.12
978.89	3743.12
979.113	3719.12
979.337	3692.12
979.56	3635.12
979.783	3722.12
980.007	3620.12
980.23	3666.12
980.453	3572.12
980.677	3629.12
980.9	3621.12
981.123	3494.12
981.346	3546.12
981.569	3549.12
981.792	3545.12
982.015	3491.12
982.238	3447.12
982.461	3478.12
982.684	3430.12
982.907	3340.12
983.129	3347.12
983.352	3429.12
983.575	3361.12
983.797	3373.12
984.02	3280.12
984.242	3324.12
984.465	3282.12
984.687	3332.12
984.91	3265.12
985.132	3241.12
985.354	3278.12
985.577	3239.12
985.799	3234.12
986.021	3135.12
986.243	3171.12
986.465	3175.12
986.687	3178.12
986.909	3256.12
987.131	3155.12
987.353	3113.12
987.575	3156.12
987.797	3064.12
988.019	3059.12
988.241	3092.12
988.462	3051.12
988.684	3119.12
988.906	3126.12
989.127	3125.12
989.349	2985.12
989.57	3056.12
989.792	3040.12
990.013	3055.12
990.234	3025.12
990.456	3059.12
990.677	3047.12
990.898	2976.12
991.119	2951.12
991.341	2997.12
991.562	2915.12
991.783	2900.12
992.004	2841.12
992.225	2796.12
992.446	2865.12
992.667	2795.12
992.887	2840.12
993.108	2722.12
993.329	2861.12
993.55	2778.12
993.77	2715.12
993.991	2729.12
994.212	2742.12
994.432	2701.12
994.653	2723.12
994.873	2701.12
995.093	2577.12
995.314	2615.12
995.534	2674.12
995.754	2694.12
995.975	2686.12
996.195	2556.12
996.415	2647.12
996.635	2628.12
996.855	2619.12
997.075	2626.12
997.295	2585.12
997.515	2548.12
997.735	2606.12
997.955	2578.12
998.174	2583.12
998.394	2539.12
998.614	2611.12
998.834	2537.12
999.053	2577.12
999.273	2554.12
999.492	2579.12
999.712	2525.12
999.931	2450.12
1000.151	2503.12
1000.37	2476.12
1000.589	2500.12
1000.809	2415.12
1001.028	2530.12
1001.247	2428.12
1001.466	2321.12
1001.685	2454.12
1001.904	2436.12
1002.123	2364.12
1002.342	2372.12
1002.561	2307.12
1002.78	2353.12
1002.999	2357.12
1003.218	2342.12
1003.436	2314.12
1003.655	2344.12
1003.874	2273.12
1004.092	2310.12
1004.311	2301.12
1004.53	2310.12
1004.748	2311.12
1004.966	2261.12
1005.185	2299.12
1005.403	2286.12
1005.622	2300.12
1005.84	2351.12
1006.058	2235.12
1006.276	2243.12
1006.494	2737.12
1006.712	2238.12
1006.931	2332.12
1007.149	2193.12
1007.367	2226.12
1007.584	2260.12
1007.802	2280.12
1008.02	2227.12
1008.238	2369.12
1008.456	2349.12
1008.673	2222.12
1008.891	2328.12
1009.109	2330.12
1009.326	2367.12
1009.544	2461.12
1009.761	2391.12
1009.979	2506.12
1010.196	2571.12
1010.413	2687.12
1010.631	2820.12
1010.848	2863.12
1011.065	2866.12
1011.282	2808.12
1011.5	2744.12
1011.717	2869.12
1011.934	2773.12
1012.151	2795.12
1012.368	2791.12
1012.585	2736.12
1012.801	2770.12
1013.018	2764.12
1013.235	2685.12
1013.452	2710.12
1013.669	2748.12
1013.885	2720.12
1014.102	2802.12
1014.318	2785.12
1014.535	2732.12
1014.751	2737.12
1014.968	2711.12
1015.184	2731.12
1015.401	2619.12
1015.617	2640.12
1015.833	2584.12
1016.049	2548.12
1016.266	2550.12
1016.482	2547.12
1016.698	2440.12
1016.914	2486.12
1017.13	2432.12
1017.346	2389.12
1017.562	2465.12
1017.778	2412.12
1017.993	2328.12
1018.209	2398.12
1018.425	2387.12
1018.641	2327.12
1018.856	2288.12
1019.072	2307.12
1019.288	2406.12
1019.503	2316.12
1019.719	2237.12
1019.934	2237.12
1020.149	2322.12
1020.365	2241.12
1020.58	2185.12
1020.795	2184.12
1021.011	2093.12
1021.226	2036.12
1021.441	2042.12
1021.656	1972.12
1021.871	1890.12
1022.086	1867.12
1022.301	1848.12
1022.516	1815.12
1022.731	1849.12
1022.946	1739.12
1023.16	1727.12
1023.375	1689.12
1023.59	1659.12
1023.804	1619.12
1024.019	1673.12
1024.234	1544.12
1024.448	1548.12
1024.663	1488.12
1024.877	1472.12
1025.092	1474.12
1025.306	1467.12
1025.52	1367.12
1025.734	1399.12
1025.949	1356.12
1026.163	1301.12
1026.377	1232.12
1026.591	1258.12
1026.805	1175.12
1027.019	1173.12
1027.233	1135.12
1027.447	1068.12
1027.661	1184.12
1027.875	1094.12
1028.088	1114.12
1028.302	1017.12
1028.516	1013.12
1028.73	987.12
1028.943	979.12
1029.157	903.12
1029.37	837.12
1029.584	-0.88
1029.797	-2.88
1030.011	0.12
1030.224	-0.88
