Data from QEP037381__89__14-54-45-876.txt Node

Date: Wed Dec 21 14:54:45 EST 2022
User: dcclab
Spectrometer: QEP03738
Trigger mode: 4
Integration Time (sec): 1.000000E1
Scans to average: 1
Electric dark correction enabled: true
Nonlinearity correction enabled: false
Boxcar width: 0
XAxis mode: Wavelengths
Number of Pixels in Spectrum: 1044
>>>>>Begin Spectral Data<<<<<
784.041	13.12
784.3	-0.88
784.558	-1.88
784.817	-2.88
785.075	106890.12
785.334	17749.12
785.592	8075.12
785.851	5565.12
786.109	4170.12
786.368	3287.12
786.626	2649.12
786.884	2187.12
787.143	1834.12
787.401	1526.12
787.659	1393.12
787.917	1177.12
788.175	1110.12
788.433	941.12
788.691	874.12
788.949	816.12
789.207	766.12
789.465	687.12
789.723	675.12
789.98	594.12
790.238	639.12
790.496	591.12
790.753	581.12
791.011	622.12
791.268	564.12
791.526	542.12
791.783	558.12
792.041	531.12
792.298	446.12
792.556	518.12
792.813	502.12
793.07	481.12
793.327	457.12
793.584	545.12
793.841	462.12
794.099	477.12
794.356	544.12
794.613	451.12
794.869	475.12
795.126	440.12
795.383	410.12
795.64	451.12
795.897	413.12
796.153	469.12
796.41	446.12
796.667	427.12
796.923	452.12
797.18	435.12
797.436	462.12
797.693	439.12
797.949	483.12
798.206	495.12
798.462	428.12
798.718	472.12
798.974	473.12
799.231	510.12
799.487	504.12
799.743	514.12
799.999	525.12
800.255	538.12
800.511	525.12
800.767	569.12
801.023	548.12
801.279	605.12
801.534	636.12
801.79	698.12
802.046	718.12
802.302	873.12
802.557	1033.12
802.813	1247.12
803.068	1598.12
803.324	2229.12
803.579	3018.12
803.835	4151.12
804.09	5735.12
804.345	7470.12
804.601	9431.12
804.856	11445.12
805.111	13239.12
805.366	14551.12
805.621	15622.12
805.876	16374.12
806.131	16808.12
806.386	17221.12
806.641	17552.12
806.896	17803.12
807.151	18080.12
807.406	18358.12
807.661	18728.12
807.915	19135.12
808.17	19433.12
808.425	19574.12
808.679	19781.12
808.934	19931.12
809.188	20147.12
809.443	20314.12
809.697	20592.12
809.951	20744.12
810.206	20892.12
810.46	21154.12
810.714	21368.12
810.968	21627.12
811.223	21592.12
811.477	21961.12
811.731	22079.12
811.985	22202.12
812.239	22201.12
812.493	22445.12
812.747	22491.12
813	22484.12
813.254	22676.12
813.508	22886.12
813.762	22838.12
814.015	22972.12
814.269	23098.12
814.522	23434.12
814.776	23677.12
815.03	23905.12
815.283	24250.12
815.536	24756.12
815.79	25045.12
816.043	25293.12
816.296	25727.12
816.55	26014.12
816.803	26449.12
817.056	26839.12
817.309	26901.12
817.562	27226.12
817.815	27598.12
818.068	27680.12
818.321	28024.12
818.574	28361.12
818.827	28701.12
819.079	29139.12
819.332	29641.12
819.585	29892.12
819.838	30325.12
820.09	30424.12
820.343	30731.12
820.595	30822.12
820.848	31044.12
821.1	31260.12
821.353	31370.12
821.605	31060.12
821.857	31186.12
822.11	30987.12
822.362	30866.12
822.614	30864.12
822.866	31014.12
823.118	30922.12
823.37	31032.12
823.622	31111.12
823.874	31224.12
824.126	31375.12
824.378	31446.12
824.63	31530.12
824.882	31502.12
825.134	31484.12
825.385	31546.12
825.637	31281.12
825.888	31266.12
826.14	31158.12
826.392	31076.12
826.643	30980.12
826.895	30888.12
827.146	30787.12
827.397	30736.12
827.649	30696.12
827.9	30712.12
828.151	30674.12
828.402	30951.12
828.653	30924.12
828.905	31028.12
829.156	31211.12
829.407	31030.12
829.658	31151.12
829.909	31318.12
830.159	31259.12
830.41	31123.12
830.661	30854.12
830.912	30698.12
831.162	30637.12
831.413	30565.12
831.664	30609.12
831.914	30550.12
832.165	30430.12
832.415	30466.12
832.666	30537.12
832.916	30581.12
833.167	30546.12
833.417	30391.12
833.667	30479.12
833.917	30294.12
834.168	30210.12
834.418	30315.12
834.668	30085.12
834.918	29985.12
835.168	29772.12
835.418	29698.12
835.668	29558.12
835.918	29493.12
836.167	29549.12
836.417	29387.12
836.667	29474.12
836.917	29509.12
837.166	29406.12
837.416	29450.12
837.666	29413.12
837.915	29355.12
838.165	29313.12
838.414	29205.12
838.663	29188.12
838.913	29091.12
839.162	29160.12
839.411	29140.12
839.661	29035.12
839.91	28996.12
840.159	29078.12
840.408	28884.12
840.657	29054.12
840.906	28953.12
841.155	28933.12
841.404	28923.12
841.653	28929.12
841.902	28971.12
842.15	29061.12
842.399	29109.12
842.648	29075.12
842.897	28945.12
843.145	28644.12
843.394	28553.12
843.642	28353.12
843.891	28220.12
844.139	28002.12
844.388	27903.12
844.636	27857.12
844.884	27879.12
845.133	27701.12
845.381	27802.12
845.629	27843.12
845.877	27781.12
846.125	27832.12
846.373	27672.12
846.621	27667.12
846.869	27567.12
847.117	27311.12
847.365	27148.12
847.613	27134.12
847.861	27033.12
848.108	27047.12
848.356	27122.12
848.604	26934.12
848.851	26941.12
849.099	27081.12
849.346	27036.12
849.594	27116.12
849.841	27233.12
850.089	27266.12
850.336	27308.12
850.583	27421.12
850.831	27345.12
851.078	27136.12
851.325	27030.12
851.572	27254.12
851.819	26911.12
852.066	26308.12
852.313	26041.12
852.56	25773.12
852.807	25616.12
853.054	25518.12
853.301	25551.12
853.548	25560.12
853.794	25627.12
854.041	25785.12
854.288	25830.12
854.534	26125.12
854.781	26010.12
855.028	25964.12
855.274	25849.12
855.52	25828.12
855.767	25683.12
856.013	25811.12
856.26	26021.12
856.506	25490.12
856.752	25484.12
856.998	25445.12
857.244	25423.12
857.49	25725.12
857.736	25768.12
857.982	25705.12
858.228	25519.12
858.474	25302.12
858.72	25173.12
858.966	24927.12
859.212	24762.12
859.458	24420.12
859.703	24177.12
859.949	23914.12
860.195	23799.12
860.44	23809.12
860.686	23587.12
860.931	23730.12
861.177	23442.12
861.422	23338.12
861.667	23180.12
861.913	23236.12
862.158	23173.12
862.403	23219.12
862.648	23430.12
862.893	23434.12
863.138	23348.12
863.384	23263.12
863.629	23235.12
863.873	23260.12
864.118	23200.12
864.363	23027.12
864.608	22900.12
864.853	22889.12
865.098	22760.12
865.342	22670.12
865.587	22510.12
865.832	22559.12
866.076	22413.12
866.321	22450.12
866.565	22345.12
866.81	22151.12
867.054	22134.12
867.298	22079.12
867.543	22028.12
867.787	22059.12
868.031	21941.12
868.275	21891.12
868.519	21873.12
868.764	21807.12
869.008	21830.12
869.252	21818.12
869.496	21660.12
869.739	21736.12
869.983	21666.12
870.227	21671.12
870.471	21760.12
870.715	21807.12
870.958	21830.12
871.202	21727.12
871.446	21908.12
871.689	21893.12
871.933	21962.12
872.176	21860.12
872.42	21880.12
872.663	21742.12
872.906	21754.12
873.15	21673.12
873.393	21696.12
873.636	21633.12
873.879	21382.12
874.122	21120.12
874.366	20843.12
874.609	20665.12
874.852	20507.12
875.095	20433.12
875.337	20120.12
875.58	20128.12
875.823	20095.12
876.066	20013.12
876.309	19959.12
876.551	19783.12
876.794	19691.12
877.037	19675.12
877.279	19717.12
877.522	19609.12
877.764	19664.12
878.007	19555.12
878.249	19521.12
878.491	19449.12
878.734	19463.12
878.976	19381.12
879.218	19268.12
879.46	19092.12
879.702	18858.12
879.945	18913.12
880.187	18622.12
880.429	18600.12
880.671	18428.12
880.912	18321.12
881.154	18296.12
881.396	18217.12
881.638	18302.12
881.88	18304.12
882.121	18095.12
882.363	18178.12
882.605	18192.12
882.846	18248.12
883.088	18112.12
883.329	18145.12
883.571	18241.12
883.812	18487.12
884.053	18805.12
884.295	19284.12
884.536	19562.12
884.777	19372.12
885.018	19230.12
885.259	19048.12
885.5	18925.12
885.742	19143.12
885.982	18874.12
886.223	18658.12
886.464	18555.12
886.705	18346.12
886.946	18110.12
887.187	17713.12
887.428	17506.12
887.668	17246.12
887.909	16872.12
888.15	16735.12
888.39	16638.12
888.631	16568.12
888.871	16366.12
889.111	16276.12
889.352	16099.12
889.592	15860.12
889.833	15815.12
890.073	15731.12
890.313	15684.12
890.553	15457.12
890.793	15461.12
891.033	15385.12
891.273	15302.12
891.513	15274.12
891.753	15225.12
891.993	15161.12
892.233	15190.12
892.473	15302.12
892.713	15239.12
892.952	15262.12
893.192	15240.12
893.432	15095.12
893.671	15195.12
893.911	15087.12
894.15	14993.12
894.39	14869.12
894.629	14704.12
894.869	14790.12
895.108	14656.12
895.347	14577.12
895.587	14507.12
895.826	14539.12
896.065	14394.12
896.304	14491.12
896.543	14366.12
896.782	14317.12
897.021	14227.12
897.26	14272.12
897.499	14301.12
897.738	14196.12
897.977	14126.12
898.216	13942.12
898.454	13872.12
898.693	13692.12
898.932	13649.12
899.17	13596.12
899.409	13574.12
899.647	13488.12
899.886	13551.12
900.124	13612.12
900.363	13535.12
900.601	13637.12
900.839	13609.12
901.078	13629.12
901.316	13664.12
901.554	13858.12
901.792	13876.12
902.03	13884.12
902.268	13843.12
902.506	13802.12
902.744	13785.12
902.982	13631.12
903.22	13403.12
903.458	13215.12
903.695	13058.12
903.933	12883.12
904.171	12583.12
904.409	12385.12
904.646	12349.12
904.884	12102.12
905.121	11966.12
905.359	11882.12
905.596	11736.12
905.833	11622.12
906.071	11590.12
906.308	11659.12
906.545	11570.12
906.783	11443.12
907.02	11503.12
907.257	11359.12
907.494	11503.12
907.731	11425.12
907.968	11376.12
908.205	11272.12
908.442	11192.12
908.679	11040.12
908.915	11048.12
909.152	10965.12
909.389	10816.12
909.626	10724.12
909.862	10653.12
910.099	10642.12
910.335	10589.12
910.572	10509.12
910.808	10514.12
911.045	10522.12
911.281	10365.12
911.518	10387.12
911.754	10346.12
911.99	10333.12
912.226	10173.12
912.463	10098.12
912.699	10071.12
912.935	10030.12
913.171	9866.12
913.407	9772.12
913.643	9841.12
913.879	9664.12
914.114	9535.12
914.35	9534.12
914.586	9479.12
914.822	9316.12
915.057	9298.12
915.293	9098.12
915.529	9122.12
915.764	9183.12
916	9154.12
916.235	9130.12
916.471	9036.12
916.706	9031.12
916.941	9034.12
917.177	8933.12
917.412	9042.12
917.647	8964.12
917.882	8914.12
918.117	8959.12
918.352	8920.12
918.588	8876.12
918.823	8695.12
919.057	8709.12
919.292	8488.12
919.527	8545.12
919.762	8461.12
919.997	8456.12
920.232	8250.12
920.466	8229.12
920.701	8118.12
920.935	8106.12
921.17	8054.12
921.405	7968.12
921.639	8024.12
921.873	7932.12
922.108	7948.12
922.342	7900.12
922.576	7849.12
922.811	7829.12
923.045	7821.12
923.279	7798.12
923.513	7647.12
923.747	7721.12
923.981	7654.12
924.215	7567.12
924.449	7458.12
924.683	7397.12
924.917	7433.12
925.151	7374.12
925.385	7436.12
925.618	7357.12
925.852	7326.12
926.086	7310.12
926.319	7224.12
926.553	7339.12
926.786	7236.12
927.02	7268.12
927.253	7313.12
927.486	7244.12
927.72	7184.12
927.953	7237.12
928.186	7187.12
928.42	7143.12
928.653	7094.12
928.886	7085.12
929.119	7060.12
929.352	7084.12
929.585	6991.12
929.818	6871.12
930.051	6909.12
930.284	6867.12
930.516	6683.12
930.749	6639.12
930.982	6678.12
931.215	6668.12
931.447	6590.12
931.68	6589.12
931.912	6574.12
932.145	6587.12
932.377	6577.12
932.61	6707.12
932.842	6459.12
933.074	6556.12
933.307	6490.12
933.539	6538.12
933.771	6545.12
934.003	6531.12
934.236	6557.12
934.468	6578.12
934.7	6434.12
934.932	6508.12
935.164	6421.12
935.395	6388.12
935.627	6384.12
935.859	6392.12
936.091	6265.12
936.323	6364.12
936.554	6366.12
936.786	6251.12
937.017	6171.12
937.249	6218.12
937.481	6096.12
937.712	6220.12
937.943	6198.12
938.175	6137.12
938.406	6080.12
938.637	6190.12
938.869	6111.12
939.1	6100.12
939.331	6051.12
939.562	6040.12
939.793	5995.12
940.024	6075.12
940.255	6032.12
940.486	5943.12
940.717	5957.12
940.948	5919.12
941.179	5893.12
941.409	5927.12
941.64	5858.12
941.871	5830.12
942.102	5866.12
942.332	5833.12
942.563	5908.12
942.793	5866.12
943.024	5845.12
943.254	5843.12
943.484	5895.12
943.715	5843.12
943.945	5815.12
944.175	5782.12
944.405	5709.12
944.636	5703.12
944.866	5714.12
945.096	5796.12
945.326	5672.12
945.556	5711.12
945.786	5667.12
946.016	5610.12
946.245	5598.12
946.475	5574.12
946.705	5477.12
946.935	5492.12
947.164	5460.12
947.394	5368.12
947.624	5433.12
947.853	5418.12
948.083	5395.12
948.312	5337.12
948.542	5261.12
948.771	5278.12
949	5285.12
949.23	5295.12
949.459	5304.12
949.688	5304.12
949.917	5279.12
950.146	5229.12
950.375	5285.12
950.604	5184.12
950.833	5263.12
951.062	5217.12
951.291	5205.12
951.52	5141.12
951.749	5153.12
951.978	5110.12
952.206	5072.12
952.435	5089.12
952.664	5121.12
952.892	5115.12
953.121	5049.12
953.349	5082.12
953.578	5080.12
953.806	5026.12
954.035	4944.12
954.263	4898.12
954.491	4895.12
954.719	4904.12
954.948	4843.12
955.176	4847.12
955.404	4748.12
955.632	4853.12
955.86	4814.12
956.088	4790.12
956.316	4826.12
956.544	4791.12
956.772	4673.12
956.999	4687.12
957.227	4706.12
957.455	4698.12
957.683	4623.12
957.91	4581.12
958.138	4562.12
958.365	4566.12
958.593	4521.12
958.82	4490.12
959.048	4557.12
959.275	4486.12
959.502	4506.12
959.73	4424.12
959.957	4460.12
960.184	4467.12
960.411	4406.12
960.638	4471.12
960.865	4432.12
961.092	4451.12
961.319	4328.12
961.546	4469.12
961.773	4384.12
962	4404.12
962.227	4385.12
962.454	4360.12
962.68	4298.12
962.907	4303.12
963.134	4263.12
963.36	4285.12
963.587	4251.12
963.813	4187.12
964.04	4203.12
964.266	4129.12
964.493	4215.12
964.719	4195.12
964.945	4142.12
965.171	4001.12
965.398	4082.12
965.624	4068.12
965.85	3976.12
966.076	3978.12
966.302	3990.12
966.528	3953.12
966.754	3971.12
966.98	3916.12
967.206	3930.12
967.431	3871.12
967.657	3969.12
967.883	3912.12
968.109	3924.12
968.334	3791.12
968.56	3857.12
968.785	3869.12
969.011	3760.12
969.236	3851.12
969.462	3770.12
969.687	3759.12
969.912	3798.12
970.138	3779.12
970.363	3733.12
970.588	3755.12
970.813	3715.12
971.038	3694.12
971.263	3748.12
971.488	3683.12
971.713	3730.12
971.938	3675.12
972.163	3579.12
972.388	3591.12
972.613	3571.12
972.838	3581.12
973.062	3591.12
973.287	3574.12
973.512	3507.12
973.736	3558.12
973.961	3487.12
974.185	3464.12
974.41	3512.12
974.634	3362.12
974.858	3381.12
975.083	3425.12
975.307	3417.12
975.531	3342.12
975.755	3301.12
975.98	3288.12
976.204	3228.12
976.428	3194.12
976.652	3226.12
976.876	3206.12
977.1	3244.12
977.324	3186.12
977.547	3218.12
977.771	3198.12
977.995	3196.12
978.219	3119.12
978.442	3238.12
978.666	3142.12
978.89	3140.12
979.113	3159.12
979.337	3133.12
979.56	3111.12
979.783	3142.12
980.007	3040.12
980.23	3078.12
980.453	3036.12
980.677	3052.12
980.9	3014.12
981.123	2942.12
981.346	3053.12
981.569	2995.12
981.792	3002.12
982.015	2944.12
982.238	2910.12
982.461	2922.12
982.684	2877.12
982.907	2835.12
983.129	2819.12
983.352	2887.12
983.575	2850.12
983.797	2849.12
984.02	2789.12
984.242	2751.12
984.465	2777.12
984.687	2824.12
984.91	2846.12
985.132	2779.12
985.354	2824.12
985.577	2763.12
985.799	2748.12
986.021	2662.12
986.243	2654.12
986.465	2677.12
986.687	2765.12
986.909	2786.12
987.131	2659.12
987.353	2647.12
987.575	2679.12
987.797	2618.12
988.019	2557.12
988.241	2630.12
988.462	2556.12
988.684	2667.12
988.906	2650.12
989.127	2686.12
989.349	2537.12
989.57	2559.12
989.792	2617.12
990.013	2601.12
990.234	2596.12
990.456	2597.12
990.677	2586.12
990.898	2533.12
991.119	2527.12
991.341	2555.12
991.562	2500.12
991.783	2537.12
992.004	2449.12
992.225	2452.12
992.446	2486.12
992.667	2385.12
992.887	2476.12
993.108	2313.12
993.329	2497.12
993.55	2417.12
993.77	2285.12
993.991	2346.12
994.212	2351.12
994.432	2354.12
994.653	2356.12
994.873	2332.12
995.093	2233.12
995.314	2241.12
995.534	2324.12
995.754	2341.12
995.975	2389.12
996.195	2216.12
996.415	2292.12
996.635	2239.12
996.855	2284.12
997.075	2250.12
997.295	2249.12
997.515	2223.12
997.735	2264.12
997.955	2246.12
998.174	2239.12
998.394	2216.12
998.614	2273.12
998.834	2208.12
999.053	2229.12
999.273	2232.12
999.492	2253.12
999.712	2166.12
999.931	2155.12
1000.151	2192.12
1000.37	2147.12
1000.589	2222.12
1000.809	2139.12
1001.028	2205.12
1001.247	2137.12
1001.466	2026.12
1001.685	2185.12
1001.904	2116.12
1002.123	2056.12
1002.342	2100.12
1002.561	2025.12
1002.78	2059.12
1002.999	2093.12
1003.218	2052.12
1003.436	2020.12
1003.655	2079.12
1003.874	1978.12
1004.092	2044.12
1004.311	2084.12
1004.53	1984.12
1004.748	2053.12
1004.966	1984.12
1005.185	2042.12
1005.403	2027.12
1005.622	2017.12
1005.84	2066.12
1006.058	1985.12
1006.276	1985.12
1006.494	2514.12
1006.712	1981.12
1006.931	2068.12
1007.149	1956.12
1007.367	1977.12
1007.584	2017.12
1007.802	2065.12
1008.02	1988.12
1008.238	2094.12
1008.456	2145.12
1008.673	2006.12
1008.891	2109.12
1009.109	2073.12
1009.326	2103.12
1009.544	2271.12
1009.761	2180.12
1009.979	2298.12
1010.196	2331.12
1010.413	2466.12
1010.631	2554.12
1010.848	2636.12
1011.065	2644.12
1011.282	2594.12
1011.5	2544.12
1011.717	2631.12
1011.934	2540.12
1012.151	2577.12
1012.368	2567.12
1012.585	2521.12
1012.801	2533.12
1013.018	2539.12
1013.235	2491.12
1013.452	2532.12
1013.669	2527.12
1013.885	2530.12
1014.102	2547.12
1014.318	2529.12
1014.535	2501.12
1014.751	2469.12
1014.968	2521.12
1015.184	2525.12
1015.401	2412.12
1015.617	2416.12
1015.833	2357.12
1016.049	2401.12
1016.266	2326.12
1016.482	2317.12
1016.698	2246.12
1016.914	2279.12
1017.13	2219.12
1017.346	2202.12
1017.562	2246.12
1017.778	2154.12
1017.993	2198.12
1018.209	2210.12
1018.425	2157.12
1018.641	2117.12
1018.856	2104.12
1019.072	2140.12
1019.288	2164.12
1019.503	2144.12
1019.719	2009.12
1019.934	2050.12
1020.149	2064.12
1020.365	2052.12
1020.58	1959.12
1020.795	2017.12
1021.011	1915.12
1021.226	1842.12
1021.441	1860.12
1021.656	1756.12
1021.871	1700.12
1022.086	1703.12
1022.301	1677.12
1022.516	1627.12
1022.731	1698.12
1022.946	1597.12
1023.16	1547.12
1023.375	1517.12
1023.59	1500.12
1023.804	1424.12
1024.019	1545.12
1024.234	1392.12
1024.448	1415.12
1024.663	1326.12
1024.877	1325.12
1025.092	1350.12
1025.306	1342.12
1025.52	1222.12
1025.734	1331.12
1025.949	1192.12
1026.163	1159.12
1026.377	1097.12
1026.591	1141.12
1026.805	1061.12
1027.019	1069.12
1027.233	1010.12
1027.447	945.12
1027.661	1048.12
1027.875	1012.12
1028.088	1006.12
1028.302	904.12
1028.516	907.12
1028.73	877.12
1028.943	861.12
1029.157	813.12
1029.37	748.12
1029.584	-1.88
1029.797	-3.88
1030.011	-1.88
1030.224	0.12
