Data from QEP037381__92__14-55-15-876.txt Node

Date: Wed Dec 21 14:55:15 EST 2022
User: dcclab
Spectrometer: QEP03738
Trigger mode: 4
Integration Time (sec): 1.000000E1
Scans to average: 1
Electric dark correction enabled: true
Nonlinearity correction enabled: false
Boxcar width: 0
XAxis mode: Wavelengths
Number of Pixels in Spectrum: 1044
>>>>>Begin Spectral Data<<<<<
784.041	15.62
784.3	-1.38
784.558	-0.38
784.817	-2.38
785.075	114120.62
785.334	18602.62
785.592	8260.62
785.851	5663.62
786.109	4270.62
786.368	3302.62
786.626	2642.62
786.884	2182.62
787.143	1830.62
787.401	1528.62
787.659	1373.62
787.917	1190.62
788.175	1081.62
788.433	964.62
788.691	850.62
788.949	793.62
789.207	760.62
789.465	681.62
789.723	637.62
789.98	590.62
790.238	631.62
790.496	596.62
790.753	550.62
791.011	581.62
791.268	540.62
791.526	515.62
791.783	555.62
792.041	525.62
792.298	445.62
792.556	501.62
792.813	487.62
793.07	467.62
793.327	454.62
793.584	529.62
793.841	456.62
794.099	471.62
794.356	525.62
794.613	431.62
794.869	476.62
795.126	430.62
795.383	419.62
795.64	448.62
795.897	390.62
796.153	455.62
796.41	424.62
796.667	421.62
796.923	440.62
797.18	437.62
797.436	459.62
797.693	422.62
797.949	477.62
798.206	495.62
798.462	408.62
798.718	471.62
798.974	460.62
799.231	497.62
799.487	482.62
799.743	504.62
799.999	525.62
800.255	528.62
800.511	508.62
800.767	551.62
801.023	545.62
801.279	584.62
801.534	621.62
801.79	661.62
802.046	703.62
802.302	850.62
802.557	977.62
802.813	1217.62
803.068	1499.62
803.324	2093.62
803.579	2818.62
803.835	3888.62
804.09	5351.62
804.345	6953.62
804.601	8703.62
804.856	10538.62
805.111	12121.62
805.366	13382.62
805.621	14304.62
805.876	15018.62
806.131	15433.62
806.386	15776.62
806.641	16013.62
806.896	16355.62
807.151	16612.62
807.406	16802.62
807.661	17204.62
807.915	17556.62
808.17	17830.62
808.425	18040.62
808.679	18048.62
808.934	18400.62
809.188	18518.62
809.443	18734.62
809.697	18980.62
809.951	19040.62
810.206	19257.62
810.46	19408.62
810.714	19569.62
810.968	19818.62
811.223	19936.62
811.477	20210.62
811.731	20362.62
811.985	20469.62
812.239	20438.62
812.493	20543.62
812.747	20621.62
813	20728.62
813.254	20884.62
813.508	20893.62
813.762	21029.62
814.015	21136.62
814.269	21202.62
814.522	21501.62
814.776	21744.62
815.03	21972.62
815.283	22237.62
815.536	22621.62
815.79	23033.62
816.043	23369.62
816.296	23569.62
816.55	23996.62
816.803	24131.62
817.056	24465.62
817.309	24893.62
817.562	25068.62
817.815	25303.62
818.068	25513.62
818.321	25758.62
818.574	26091.62
818.827	26424.62
819.079	26688.62
819.332	27229.62
819.585	27599.62
819.838	27840.62
820.09	27975.62
820.343	28328.62
820.595	28274.62
820.848	28539.62
821.1	28621.62
821.353	28768.62
821.605	28655.62
821.857	28555.62
822.11	28482.62
822.362	28531.62
822.614	28434.62
822.866	28493.62
823.118	28399.62
823.37	28606.62
823.622	28727.62
823.874	28776.62
824.126	28965.62
824.378	28809.62
824.63	29021.62
824.882	29148.62
825.134	28992.62
825.385	28944.62
825.637	29044.62
825.888	28836.62
826.14	28789.62
826.392	28739.62
826.643	28550.62
826.895	28435.62
827.146	28304.62
827.397	28241.62
827.649	28465.62
827.9	28288.62
828.151	28279.62
828.402	28418.62
828.653	28539.62
828.905	28630.62
829.156	28697.62
829.407	28529.62
829.658	28795.62
829.909	28855.62
830.159	28964.62
830.41	28798.62
830.661	28486.62
830.912	28416.62
831.162	28346.62
831.413	28277.62
831.664	28307.62
831.914	28173.62
832.165	28183.62
832.415	28186.62
832.666	28169.62
832.916	28233.62
833.167	28099.62
833.417	28116.62
833.667	28101.62
833.917	27955.62
834.168	27974.62
834.418	27937.62
834.668	27731.62
834.918	27591.62
835.168	27569.62
835.418	27420.62
835.668	27358.62
835.918	27395.62
836.167	27221.62
836.417	27100.62
836.667	27246.62
836.917	27206.62
837.166	27172.62
837.416	27197.62
837.666	27297.62
837.915	27249.62
838.165	27202.62
838.414	26996.62
838.663	27025.62
838.913	26971.62
839.162	27008.62
839.411	27047.62
839.661	26940.62
839.91	26862.62
840.159	26882.62
840.408	26793.62
840.657	26953.62
840.906	26860.62
841.155	26900.62
841.404	26777.62
841.653	26885.62
841.902	26976.62
842.15	27165.62
842.399	27038.62
842.648	26997.62
842.897	26944.62
843.145	26650.62
843.394	26672.62
843.642	26407.62
843.891	26223.62
844.139	26115.62
844.388	25994.62
844.636	25793.62
844.884	25866.62
845.133	25908.62
845.381	25846.62
845.629	25820.62
845.877	25905.62
846.125	25886.62
846.373	25857.62
846.621	25652.62
846.869	25658.62
847.117	25568.62
847.365	25479.62
847.613	25285.62
847.861	25249.62
848.108	25277.62
848.356	25284.62
848.604	25122.62
848.851	25153.62
849.099	25331.62
849.346	25270.62
849.594	25339.62
849.841	25448.62
850.089	25568.62
850.336	25659.62
850.583	25769.62
850.831	25522.62
851.078	25467.62
851.325	25517.62
851.572	25554.62
851.819	25207.62
852.066	24848.62
852.313	24323.62
852.56	24157.62
852.807	24050.62
853.054	23834.62
853.301	23925.62
853.548	23973.62
853.794	24213.62
854.041	24151.62
854.288	24377.62
854.534	24585.62
854.781	24553.62
855.028	24507.62
855.274	24442.62
855.52	24347.62
855.767	24218.62
856.013	24231.62
856.26	24792.62
856.506	24034.62
856.752	23969.62
856.998	24074.62
857.244	24066.62
857.49	24262.62
857.736	24293.62
857.982	24337.62
858.228	24161.62
858.474	23958.62
858.72	23850.62
858.966	23513.62
859.212	23296.62
859.458	23102.62
859.703	22908.62
859.949	22599.62
860.195	22530.62
860.44	22467.62
860.686	22366.62
860.931	22451.62
861.177	22259.62
861.422	21991.62
861.667	21941.62
861.913	21902.62
862.158	22013.62
862.403	22074.62
862.648	22185.62
862.893	22138.62
863.138	22028.62
863.384	21920.62
863.629	21977.62
863.873	21992.62
864.118	22052.62
864.363	21814.62
864.608	21782.62
864.853	21652.62
865.098	21575.62
865.342	21499.62
865.587	21476.62
865.832	21411.62
866.076	21444.62
866.321	21287.62
866.565	21196.62
866.81	21118.62
867.054	21086.62
867.298	20995.62
867.543	21012.62
867.787	20907.62
868.031	20878.62
868.275	20908.62
868.519	20883.62
868.764	20801.62
869.008	20772.62
869.252	20910.62
869.496	20847.62
869.739	20748.62
869.983	20779.62
870.227	20775.62
870.471	20822.62
870.715	20942.62
870.958	20971.62
871.202	21024.62
871.446	21079.62
871.689	21108.62
871.933	21075.62
872.176	20944.62
872.42	20966.62
872.663	20912.62
872.906	20901.62
873.15	20874.62
873.393	20850.62
873.636	20750.62
873.879	20573.62
874.122	20316.62
874.366	20031.62
874.609	19921.62
874.852	19754.62
875.095	19606.62
875.337	19542.62
875.58	19440.62
875.823	19419.62
876.066	19321.62
876.309	19255.62
876.551	19101.62
876.794	19016.62
877.037	18969.62
877.279	18822.62
877.522	18933.62
877.764	18908.62
878.007	18723.62
878.249	18876.62
878.491	18618.62
878.734	18670.62
878.976	18637.62
879.218	18464.62
879.46	18399.62
879.702	18295.62
879.945	18125.62
880.187	17972.62
880.429	17961.62
880.671	17838.62
880.912	17737.62
881.154	17708.62
881.396	17610.62
881.638	17649.62
881.88	17670.62
882.121	17524.62
882.363	17532.62
882.605	17621.62
882.846	17608.62
883.088	17602.62
883.329	17513.62
883.571	17619.62
883.812	17939.62
884.053	18313.62
884.295	18831.62
884.536	19146.62
884.777	18995.62
885.018	18801.62
885.259	18649.62
885.5	18478.62
885.742	18828.62
885.982	18360.62
886.223	18255.62
886.464	18019.62
886.705	17779.62
886.946	17659.62
887.187	17270.62
887.428	17016.62
887.668	16699.62
887.909	16401.62
888.15	16330.62
888.39	16072.62
888.631	16024.62
888.871	15872.62
889.111	15731.62
889.352	15641.62
889.592	15439.62
889.833	15351.62
890.073	15230.62
890.313	15171.62
890.553	15011.62
890.793	15022.62
891.033	14857.62
891.273	14837.62
891.513	14721.62
891.753	14703.62
891.993	14679.62
892.233	14752.62
892.473	14819.62
892.713	14760.62
892.952	14749.62
893.192	14856.62
893.432	14762.62
893.671	14723.62
893.911	14680.62
894.15	14605.62
894.39	14398.62
894.629	14409.62
894.869	14351.62
895.108	14182.62
895.347	14131.62
895.587	14172.62
895.826	14105.62
896.065	13961.62
896.304	14005.62
896.543	14016.62
896.782	13889.62
897.021	13959.62
897.26	13945.62
897.499	13862.62
897.738	13991.62
897.977	13802.62
898.216	13747.62
898.454	13528.62
898.693	13426.62
898.932	13453.62
899.17	13350.62
899.409	13294.62
899.647	13273.62
899.886	13293.62
900.124	13301.62
900.363	13257.62
900.601	13451.62
900.839	13408.62
901.078	13468.62
901.316	13558.62
901.554	13638.62
901.792	13818.62
902.03	13712.62
902.268	13757.62
902.506	13768.62
902.744	13593.62
902.982	13574.62
903.22	13338.62
903.458	13022.62
903.695	12872.62
903.933	12664.62
904.171	12443.62
904.409	12165.62
904.646	12035.62
904.884	11845.62
905.121	11762.62
905.359	11678.62
905.596	11495.62
905.833	11395.62
906.071	11362.62
906.308	11295.62
906.545	11295.62
906.783	11178.62
907.02	11235.62
907.257	11163.62
907.494	11185.62
907.731	11118.62
907.968	11145.62
908.205	10940.62
908.442	10957.62
908.679	10892.62
908.915	10786.62
909.152	10656.62
909.389	10563.62
909.626	10566.62
909.862	10399.62
910.099	10379.62
910.335	10365.62
910.572	10313.62
910.808	10282.62
911.045	10287.62
911.281	10152.62
911.518	10186.62
911.754	10129.62
911.99	9953.62
912.226	10006.62
912.463	9893.62
912.699	9760.62
912.935	9787.62
913.171	9635.62
913.407	9557.62
913.643	9526.62
913.879	9431.62
914.114	9337.62
914.35	9253.62
914.586	9138.62
914.822	9087.62
915.057	9143.62
915.293	8955.62
915.529	8922.62
915.764	9026.62
916	8949.62
916.235	8884.62
916.471	8827.62
916.706	8827.62
916.941	8766.62
917.177	8826.62
917.412	8777.62
917.647	8829.62
917.882	8727.62
918.117	8821.62
918.352	8722.62
918.588	8759.62
918.823	8607.62
919.057	8583.62
919.292	8322.62
919.527	8400.62
919.762	8258.62
919.997	8159.62
920.232	8175.62
920.466	8075.62
920.701	8016.62
920.935	7940.62
921.17	7896.62
921.405	7822.62
921.639	7777.62
921.873	7822.62
922.108	7748.62
922.342	7763.62
922.576	7694.62
922.811	7666.62
923.045	7671.62
923.279	7683.62
923.513	7530.62
923.747	7565.62
923.981	7470.62
924.215	7385.62
924.449	7323.62
924.683	7313.62
924.917	7353.62
925.151	7237.62
925.385	7303.62
925.618	7190.62
925.852	7234.62
926.086	7108.62
926.319	7177.62
926.553	7156.62
926.786	7159.62
927.02	7104.62
927.253	7209.62
927.486	7159.62
927.72	7076.62
927.953	7155.62
928.186	7108.62
928.42	7006.62
928.653	7010.62
928.886	6960.62
929.119	6947.62
929.352	6922.62
929.585	6870.62
929.818	6775.62
930.051	6736.62
930.284	6707.62
930.516	6561.62
930.749	6626.62
930.982	6601.62
931.215	6521.62
931.447	6443.62
931.68	6489.62
931.912	6438.62
932.145	6421.62
932.377	6434.62
932.61	6576.62
932.842	6388.62
933.074	6448.62
933.307	6389.62
933.539	6435.62
933.771	6404.62
934.003	6416.62
934.236	6419.62
934.468	6409.62
934.7	6279.62
934.932	6360.62
935.164	6303.62
935.395	6239.62
935.627	6279.62
935.859	6302.62
936.091	6189.62
936.323	6172.62
936.554	6203.62
936.786	6121.62
937.017	6097.62
937.249	6090.62
937.481	6038.62
937.712	6120.62
937.943	6059.62
938.175	6056.62
938.406	6087.62
938.637	6093.62
938.869	6011.62
939.1	6109.62
939.331	5968.62
939.562	5980.62
939.793	5925.62
940.024	5910.62
940.255	5908.62
940.486	5886.62
940.717	5830.62
940.948	5781.62
941.179	5737.62
941.409	5780.62
941.64	5750.62
941.871	5796.62
942.102	5761.62
942.332	5735.62
942.563	5754.62
942.793	5712.62
943.024	5687.62
943.254	5685.62
943.484	5839.62
943.715	5798.62
943.945	5727.62
944.175	5648.62
944.405	5615.62
944.636	5542.62
944.866	5661.62
945.096	5645.62
945.326	5594.62
945.556	5669.62
945.786	5612.62
946.016	5567.62
946.245	5481.62
946.475	5460.62
946.705	5451.62
946.935	5427.62
947.164	5404.62
947.394	5324.62
947.624	5342.62
947.853	5387.62
948.083	5363.62
948.312	5251.62
948.542	5197.62
948.771	5188.62
949	5200.62
949.23	5203.62
949.459	5216.62
949.688	5251.62
949.917	5190.62
950.146	5158.62
950.375	5242.62
950.604	5132.62
950.833	5183.62
951.062	5129.62
951.291	5117.62
951.52	5104.62
951.749	5066.62
951.978	5027.62
952.206	5007.62
952.435	5048.62
952.664	5013.62
952.892	4981.62
953.121	4980.62
953.349	4959.62
953.578	5009.62
953.806	4969.62
954.035	4882.62
954.263	4928.62
954.491	4834.62
954.719	4868.62
954.948	4788.62
955.176	4749.62
955.404	4746.62
955.632	4754.62
955.86	4725.62
956.088	4706.62
956.316	4753.62
956.544	4707.62
956.772	4610.62
956.999	4589.62
957.227	4661.62
957.455	4558.62
957.683	4566.62
957.91	4541.62
958.138	4478.62
958.365	4496.62
958.593	4449.62
958.82	4377.62
959.048	4452.62
959.275	4415.62
959.502	4375.62
959.73	4370.62
959.957	4377.62
960.184	4442.62
960.411	4356.62
960.638	4407.62
960.865	4358.62
961.092	4404.62
961.319	4294.62
961.546	4356.62
961.773	4356.62
962	4325.62
962.227	4314.62
962.454	4293.62
962.68	4241.62
962.907	4272.62
963.134	4193.62
963.36	4209.62
963.587	4208.62
963.813	4122.62
964.04	4161.62
964.266	4041.62
964.493	4116.62
964.719	4122.62
964.945	4111.62
965.171	3978.62
965.398	4034.62
965.624	4041.62
965.85	3953.62
966.076	3907.62
966.302	3937.62
966.528	3900.62
966.754	3950.62
966.98	3911.62
967.206	3881.62
967.431	3796.62
967.657	3921.62
967.883	3860.62
968.109	3845.62
968.334	3811.62
968.56	3774.62
968.785	3779.62
969.011	3727.62
969.236	3776.62
969.462	3732.62
969.687	3758.62
969.912	3800.62
970.138	3790.62
970.363	3649.62
970.588	3692.62
970.813	3671.62
971.038	3637.62
971.263	3631.62
971.488	3617.62
971.713	3633.62
971.938	3668.62
972.163	3522.62
972.388	3555.62
972.613	3537.62
972.838	3548.62
973.062	3532.62
973.287	3528.62
973.512	3444.62
973.736	3457.62
973.961	3426.62
974.185	3442.62
974.41	3437.62
974.634	3347.62
974.858	3352.62
975.083	3384.62
975.307	3377.62
975.531	3278.62
975.755	3231.62
975.98	3266.62
976.204	3149.62
976.428	3199.62
976.652	3154.62
976.876	3125.62
977.1	3181.62
977.324	3123.62
977.547	3178.62
977.771	3144.62
977.995	3119.62
978.219	3048.62
978.442	3174.62
978.666	3115.62
978.89	3111.62
979.113	3074.62
979.337	3017.62
979.56	3048.62
979.783	3119.62
980.007	3013.62
980.23	3017.62
980.453	2973.62
980.677	3033.62
980.9	2978.62
981.123	2903.62
981.346	2982.62
981.569	2962.62
981.792	2984.62
982.015	2962.62
982.238	2877.62
982.461	2879.62
982.684	2827.62
982.907	2856.62
983.129	2800.62
983.352	2867.62
983.575	2818.62
983.797	2808.62
984.02	2791.62
984.242	2749.62
984.465	2765.62
984.687	2765.62
984.91	2742.62
985.132	2727.62
985.354	2782.62
985.577	2746.62
985.799	2734.62
986.021	2651.62
986.243	2664.62
986.465	2666.62
986.687	2708.62
986.909	2756.62
987.131	2659.62
987.353	2640.62
987.575	2659.62
987.797	2616.62
988.019	2551.62
988.241	2621.62
988.462	2581.62
988.684	2612.62
988.906	2637.62
989.127	2691.62
989.349	2522.62
989.57	2556.62
989.792	2582.62
990.013	2615.62
990.234	2601.62
990.456	2604.62
990.677	2554.62
990.898	2515.62
991.119	2502.62
991.341	2540.62
991.562	2445.62
991.783	2523.62
992.004	2416.62
992.225	2384.62
992.446	2487.62
992.667	2357.62
992.887	2402.62
993.108	2315.62
993.329	2431.62
993.55	2357.62
993.77	2287.62
993.991	2307.62
994.212	2322.62
994.432	2331.62
994.653	2321.62
994.873	2316.62
995.093	2202.62
995.314	2248.62
995.534	2309.62
995.754	2290.62
995.975	2327.62
996.195	2221.62
996.415	2296.62
996.635	2237.62
996.855	2289.62
997.075	2249.62
997.295	2224.62
997.515	2242.62
997.735	2293.62
997.955	2256.62
998.174	2237.62
998.394	2206.62
998.614	2240.62
998.834	2241.62
999.053	2235.62
999.273	2192.62
999.492	2247.62
999.712	2192.62
999.931	2130.62
1000.151	2196.62
1000.37	2125.62
1000.589	2194.62
1000.809	2111.62
1001.028	2207.62
1001.247	2137.62
1001.466	2014.62
1001.685	2182.62
1001.904	2118.62
1002.123	2061.62
1002.342	2041.62
1002.561	2045.62
1002.78	2047.62
1002.999	2097.62
1003.218	2062.62
1003.436	2002.62
1003.655	2031.62
1003.874	1980.62
1004.092	1985.62
1004.311	2045.62
1004.53	2022.62
1004.748	2085.62
1004.966	1970.62
1005.185	2064.62
1005.403	2030.62
1005.622	1986.62
1005.84	2078.62
1006.058	2001.62
1006.276	2015.62
1006.494	2456.62
1006.712	1979.62
1006.931	2080.62
1007.149	2006.62
1007.367	1981.62
1007.584	2027.62
1007.802	2062.62
1008.02	2026.62
1008.238	2156.62
1008.456	2110.62
1008.673	2044.62
1008.891	2178.62
1009.109	2107.62
1009.326	2213.62
1009.544	2288.62
1009.761	2277.62
1009.979	2374.62
1010.196	2449.62
1010.413	2614.62
1010.631	2667.62
1010.848	2737.62
1011.065	2820.62
1011.282	2769.62
1011.5	2694.62
1011.717	2807.62
1011.934	2727.62
1012.151	2725.62
1012.368	2734.62
1012.585	2671.62
1012.801	2705.62
1013.018	2706.62
1013.235	2703.62
1013.452	2672.62
1013.669	2741.62
1013.885	2694.62
1014.102	2733.62
1014.318	2732.62
1014.535	2706.62
1014.751	2711.62
1014.968	2699.62
1015.184	2749.62
1015.401	2600.62
1015.617	2632.62
1015.833	2539.62
1016.049	2549.62
1016.266	2491.62
1016.482	2516.62
1016.698	2399.62
1016.914	2455.62
1017.13	2395.62
1017.346	2393.62
1017.562	2430.62
1017.778	2331.62
1017.993	2345.62
1018.209	2336.62
1018.425	2301.62
1018.641	2298.62
1018.856	2298.62
1019.072	2318.62
1019.288	2315.62
1019.503	2299.62
1019.719	2236.62
1019.934	2217.62
1020.149	2293.62
1020.365	2192.62
1020.58	2139.62
1020.795	2160.62
1021.011	2054.62
1021.226	2017.62
1021.441	2008.62
1021.656	1896.62
1021.871	1797.62
1022.086	1814.62
1022.301	1772.62
1022.516	1722.62
1022.731	1791.62
1022.946	1656.62
1023.16	1656.62
1023.375	1647.62
1023.59	1574.62
1023.804	1539.62
1024.019	1600.62
1024.234	1457.62
1024.448	1483.62
1024.663	1406.62
1024.877	1395.62
1025.092	1407.62
1025.306	1398.62
1025.52	1268.62
1025.734	1368.62
1025.949	1256.62
1026.163	1197.62
1026.377	1154.62
1026.591	1192.62
1026.805	1096.62
1027.019	1087.62
1027.233	1060.62
1027.447	998.62
1027.661	1109.62
1027.875	1025.62
1028.088	1025.62
1028.302	948.62
1028.516	919.62
1028.73	921.62
1028.943	903.62
1029.157	849.62
1029.37	781.62
1029.584	-4.38
1029.797	-0.38
1030.011	-3.38
1030.224	-3.38
