Data from QEP037381__356__15-02-52-716.txt Node

Date: Fri Apr 28 15:02:52 EDT 2023
User: dcclab
Spectrometer: QEP03738
Trigger mode: 4
Integration Time (sec): 1.000000E1
Scans to average: 1
Electric dark correction enabled: true
Nonlinearity correction enabled: false
Boxcar width: 0
XAxis mode: Wavelengths
Number of Pixels in Spectrum: 1044
>>>>>Begin Spectral Data<<<<<
784.041	14.75
784.3	-0.25
784.558	-2.25
784.817	-2.25
785.075	65111.75
785.334	13013.75
785.592	6816.75
785.851	4771.75
786.109	3653.75
786.368	2887.75
786.626	2316.75
786.884	1938.75
787.143	1632.75
787.401	1331.75
787.659	1232.75
787.917	1029.75
788.175	950.75
788.433	873.75
788.691	782.75
788.949	733.75
789.207	691.75
789.465	609.75
789.723	578.75
789.98	526.75
790.238	589.75
790.496	544.75
790.753	523.75
791.011	562.75
791.268	510.75
791.526	488.75
791.783	515.75
792.041	499.75
792.298	430.75
792.556	476.75
792.813	473.75
793.07	445.75
793.327	431.75
793.584	509.75
793.841	440.75
794.099	459.75
794.356	514.75
794.613	420.75
794.869	445.75
795.126	413.75
795.383	402.75
795.64	417.75
795.897	380.75
796.153	427.75
796.41	426.75
796.667	403.75
796.923	424.75
797.18	420.75
797.436	443.75
797.693	406.75
797.949	462.75
798.206	488.75
798.462	395.75
798.718	472.75
798.974	440.75
799.231	469.75
799.487	464.75
799.743	469.75
799.999	512.75
800.255	505.75
800.511	482.75
800.767	542.75
801.023	523.75
801.279	574.75
801.534	624.75
801.79	653.75
802.046	708.75
802.302	853.75
802.557	1015.75
802.813	1266.75
803.068	1660.75
803.324	2373.75
803.579	3279.75
803.835	4600.75
804.09	6356.75
804.345	8274.75
804.601	10114.75
804.856	11957.75
805.111	13347.75
805.366	14220.75
805.621	14834.75
805.876	15197.75
806.131	15376.75
806.386	15675.75
806.641	15898.75
806.896	16106.75
807.151	16358.75
807.406	16624.75
807.661	16824.75
807.915	17014.75
808.17	17260.75
808.425	17472.75
808.679	17672.75
808.934	17907.75
809.188	18041.75
809.443	18302.75
809.697	18438.75
809.951	18475.75
810.206	18656.75
810.46	18849.75
810.714	18908.75
810.968	19110.75
811.223	19129.75
811.477	19301.75
811.731	19474.75
811.985	19539.75
812.239	19634.75
812.493	19754.75
812.747	19822.75
813	19959.75
813.254	19873.75
813.508	20062.75
813.762	20039.75
814.015	20176.75
814.269	20259.75
814.522	20464.75
814.776	20653.75
815.03	20934.75
815.283	21205.75
815.536	21340.75
815.79	21756.75
816.043	21942.75
816.296	22232.75
816.55	22428.75
816.803	22637.75
817.056	22860.75
817.309	23013.75
817.562	23285.75
817.815	23516.75
818.068	23773.75
818.321	23903.75
818.574	24258.75
818.827	24615.75
819.079	24964.75
819.332	25370.75
819.585	25562.75
819.838	25828.75
820.09	26129.75
820.343	26341.75
820.595	26301.75
820.848	26545.75
821.1	26618.75
821.353	26670.75
821.605	26515.75
821.857	26532.75
822.11	26440.75
822.362	26457.75
822.614	26372.75
822.866	26587.75
823.118	26388.75
823.37	26538.75
823.622	26581.75
823.874	26536.75
824.126	26647.75
824.378	26686.75
824.63	26816.75
824.882	26746.75
825.134	26788.75
825.385	26867.75
825.637	26742.75
825.888	26648.75
826.14	26540.75
826.392	26492.75
826.643	26423.75
826.895	26361.75
827.146	26307.75
827.397	26165.75
827.649	26126.75
827.9	26122.75
828.151	26112.75
828.402	26261.75
828.653	26218.75
828.905	26252.75
829.156	26305.75
829.407	26182.75
829.658	26137.75
829.909	26109.75
830.159	26049.75
830.41	26017.75
830.661	25784.75
830.912	25599.75
831.162	25623.75
831.413	25545.75
831.664	25537.75
831.914	25537.75
832.165	25505.75
832.415	25448.75
832.666	25483.75
832.916	25429.75
833.167	25501.75
833.417	25286.75
833.667	25166.75
833.917	25102.75
834.168	25126.75
834.418	24999.75
834.668	24979.75
834.918	24794.75
835.168	24651.75
835.418	24652.75
835.668	24571.75
835.918	24590.75
836.167	24506.75
836.417	24457.75
836.667	24410.75
836.917	24328.75
837.166	24272.75
837.416	24265.75
837.666	24246.75
837.915	24063.75
838.165	23936.75
838.414	23845.75
838.663	23842.75
838.913	23776.75
839.162	23670.75
839.411	23707.75
839.661	23561.75
839.91	23579.75
840.159	23516.75
840.408	23474.75
840.657	23660.75
840.906	23457.75
841.155	23652.75
841.404	23449.75
841.653	23439.75
841.902	23444.75
842.15	23472.75
842.399	23434.75
842.648	23354.75
842.897	23266.75
843.145	23090.75
843.394	22953.75
843.642	22885.75
843.891	22832.75
844.139	22773.75
844.388	22641.75
844.636	22508.75
844.884	22490.75
845.133	22353.75
845.381	22343.75
845.629	22495.75
845.877	22257.75
846.125	22237.75
846.373	22193.75
846.621	22236.75
846.869	22042.75
847.117	21949.75
847.365	21830.75
847.613	21811.75
847.861	21682.75
848.108	21618.75
848.356	21551.75
848.604	21424.75
848.851	21539.75
849.099	21659.75
849.346	21678.75
849.594	21793.75
849.841	21760.75
850.089	21752.75
850.336	21705.75
850.583	21699.75
850.831	21551.75
851.078	21340.75
851.325	21396.75
851.572	21260.75
851.819	21070.75
852.066	20753.75
852.313	20477.75
852.56	20363.75
852.807	20323.75
853.054	20196.75
853.301	20219.75
853.548	20228.75
853.794	20360.75
854.041	20396.75
854.288	20533.75
854.534	20703.75
854.781	20539.75
855.028	20551.75
855.274	20440.75
855.52	20383.75
855.767	20124.75
856.013	20091.75
856.26	20263.75
856.506	19897.75
856.752	19793.75
856.998	19844.75
857.244	19804.75
857.49	19975.75
857.736	19943.75
857.982	20006.75
858.228	19979.75
858.474	19868.75
858.72	19725.75
858.966	19596.75
859.212	19440.75
859.458	19248.75
859.703	19037.75
859.949	18722.75
860.195	18682.75
860.44	18602.75
860.686	18407.75
860.931	18564.75
861.177	18337.75
861.422	18353.75
861.667	18294.75
861.913	18285.75
862.158	18321.75
862.403	18386.75
862.648	18345.75
862.893	18429.75
863.138	18409.75
863.384	18286.75
863.629	18288.75
863.873	18228.75
864.118	18167.75
864.363	18031.75
864.608	17961.75
864.853	17857.75
865.098	17753.75
865.342	17637.75
865.587	17660.75
865.832	17604.75
866.076	17485.75
866.321	17423.75
866.565	17464.75
866.81	17351.75
867.054	17285.75
867.298	17325.75
867.543	17217.75
867.787	17247.75
868.031	17226.75
868.275	17096.75
868.519	17154.75
868.764	17006.75
869.008	16973.75
869.252	17019.75
869.496	16884.75
869.739	16882.75
869.983	16929.75
870.227	16787.75
870.471	16747.75
870.715	16818.75
870.958	16816.75
871.202	16737.75
871.446	16712.75
871.689	16764.75
871.933	16878.75
872.176	16779.75
872.42	16759.75
872.663	16735.75
872.906	16681.75
873.15	16528.75
873.393	16370.75
873.636	16343.75
873.879	16148.75
874.122	16070.75
874.366	15890.75
874.609	15795.75
874.852	15650.75
875.095	15600.75
875.337	15520.75
875.58	15491.75
875.823	15455.75
876.066	15446.75
876.309	15415.75
876.551	15301.75
876.794	15115.75
877.037	15224.75
877.279	15093.75
877.522	15094.75
877.764	15151.75
878.007	15156.75
878.249	15155.75
878.491	15163.75
878.734	15127.75
878.976	15023.75
879.218	14919.75
879.46	14926.75
879.702	14749.75
879.945	14670.75
880.187	14589.75
880.429	14449.75
880.671	14367.75
880.912	14327.75
881.154	14287.75
881.396	14199.75
881.638	14278.75
881.88	14306.75
882.121	14139.75
882.363	14100.75
882.605	14179.75
882.846	14006.75
883.088	14038.75
883.329	13803.75
883.571	13885.75
883.812	13894.75
884.053	13915.75
884.295	14088.75
884.536	14203.75
884.777	14045.75
885.018	13946.75
885.259	13953.75
885.5	13877.75
885.742	14055.75
885.982	13808.75
886.223	13789.75
886.464	13719.75
886.705	13555.75
886.946	13605.75
887.187	13384.75
887.428	13301.75
887.668	13172.75
887.909	13040.75
888.15	12951.75
888.39	12904.75
888.631	12898.75
888.871	12725.75
889.111	12660.75
889.352	12586.75
889.592	12475.75
889.833	12385.75
890.073	12363.75
890.313	12268.75
890.553	12176.75
890.793	12037.75
891.033	12040.75
891.273	11995.75
891.513	11959.75
891.753	11856.75
891.993	11961.75
892.233	11973.75
892.473	11999.75
892.713	11891.75
892.952	11900.75
893.192	11942.75
893.432	11848.75
893.671	11812.75
893.911	11801.75
894.15	11707.75
894.39	11481.75
894.629	11547.75
894.869	11573.75
895.108	11330.75
895.347	11293.75
895.587	11337.75
895.826	11193.75
896.065	11164.75
896.304	11132.75
896.543	11073.75
896.782	11052.75
897.021	11053.75
897.26	11054.75
897.499	10974.75
897.738	10962.75
897.977	10823.75
898.216	10774.75
898.454	10657.75
898.693	10674.75
898.932	10630.75
899.17	10509.75
899.409	10536.75
899.647	10483.75
899.886	10389.75
900.124	10447.75
900.363	10419.75
900.601	10433.75
900.839	10359.75
901.078	10389.75
901.316	10441.75
901.554	10426.75
901.792	10438.75
902.03	10363.75
902.268	10292.75
902.506	10293.75
902.744	10312.75
902.982	10313.75
903.22	10098.75
903.458	10051.75
903.695	10011.75
903.933	9895.75
904.171	9731.75
904.409	9587.75
904.646	9488.75
904.884	9458.75
905.121	9397.75
905.359	9210.75
905.596	9213.75
905.833	9137.75
906.071	9021.75
906.308	9037.75
906.545	8994.75
906.783	8978.75
907.02	8951.75
907.257	8899.75
907.494	8951.75
907.731	8930.75
907.968	8876.75
908.205	8831.75
908.442	8746.75
908.679	8720.75
908.915	8645.75
909.152	8655.75
909.389	8463.75
909.626	8470.75
909.862	8357.75
910.099	8346.75
910.335	8381.75
910.572	8296.75
910.808	8224.75
911.045	8254.75
911.281	8125.75
911.518	8200.75
911.754	8147.75
911.99	8124.75
912.226	8077.75
912.463	7951.75
912.699	7902.75
912.935	7802.75
913.171	7788.75
913.407	7695.75
913.643	7727.75
913.879	7620.75
914.114	7534.75
914.35	7512.75
914.586	7397.75
914.822	7353.75
915.057	7377.75
915.293	7152.75
915.529	7204.75
915.764	7291.75
916	7137.75
916.235	7165.75
916.471	7176.75
916.706	7107.75
916.941	7133.75
917.177	7124.75
917.412	7125.75
917.647	7121.75
917.882	7019.75
918.117	7073.75
918.352	7060.75
918.588	7048.75
918.823	6910.75
919.057	6813.75
919.292	6660.75
919.527	6751.75
919.762	6631.75
919.997	6620.75
920.232	6504.75
920.466	6538.75
920.701	6363.75
920.935	6380.75
921.17	6338.75
921.405	6320.75
921.639	6337.75
921.873	6206.75
922.108	6191.75
922.342	6202.75
922.576	6146.75
922.811	6159.75
923.045	6169.75
923.279	6129.75
923.513	6025.75
923.747	6078.75
923.981	5970.75
924.215	5950.75
924.449	5924.75
924.683	5834.75
924.917	5844.75
925.151	5807.75
925.385	5825.75
925.618	5810.75
925.852	5757.75
926.086	5768.75
926.319	5709.75
926.553	5694.75
926.786	5766.75
927.02	5679.75
927.253	5730.75
927.486	5747.75
927.72	5603.75
927.953	5700.75
928.186	5591.75
928.42	5674.75
928.653	5554.75
928.886	5567.75
929.119	5594.75
929.352	5498.75
929.585	5497.75
929.818	5444.75
930.051	5422.75
930.284	5375.75
930.516	5258.75
930.749	5260.75
930.982	5280.75
931.215	5231.75
931.447	5130.75
931.68	5129.75
931.912	5185.75
932.145	5160.75
932.377	5151.75
932.61	5259.75
932.842	5097.75
933.074	5109.75
933.307	5096.75
933.539	5184.75
933.771	5176.75
934.003	5125.75
934.236	5173.75
934.468	5134.75
934.7	5100.75
934.932	5123.75
935.164	5058.75
935.395	4978.75
935.627	5038.75
935.859	5023.75
936.091	4879.75
936.323	4952.75
936.554	4961.75
936.786	4911.75
937.017	4866.75
937.249	4874.75
937.481	4811.75
937.712	4888.75
937.943	4825.75
938.175	4739.75
938.406	4756.75
938.637	4884.75
938.869	4742.75
939.1	4810.75
939.331	4730.75
939.562	4774.75
939.793	4791.75
940.024	4731.75
940.255	4735.75
940.486	4644.75
940.717	4659.75
940.948	4643.75
941.179	4581.75
941.409	4584.75
941.64	4566.75
941.871	4600.75
942.102	4574.75
942.332	4527.75
942.563	4601.75
942.793	4579.75
943.024	4511.75
943.254	4539.75
943.484	4545.75
943.715	4579.75
943.945	4543.75
944.175	4494.75
944.405	4420.75
944.636	4531.75
944.866	4554.75
945.096	4531.75
945.326	4427.75
945.556	4473.75
945.786	4478.75
946.016	4388.75
946.245	4297.75
946.475	4300.75
946.705	4327.75
946.935	4287.75
947.164	4274.75
947.394	4205.75
947.624	4211.75
947.853	4254.75
948.083	4220.75
948.312	4158.75
948.542	4104.75
948.771	4105.75
949	4111.75
949.23	4194.75
949.459	4144.75
949.688	4201.75
949.917	4119.75
950.146	4122.75
950.375	4216.75
950.604	4083.75
950.833	4111.75
951.062	4138.75
951.291	4085.75
951.52	4063.75
951.749	4028.75
951.978	4024.75
952.206	3992.75
952.435	3958.75
952.664	4005.75
952.892	3985.75
953.121	3964.75
953.349	3987.75
953.578	3953.75
953.806	3881.75
954.035	3936.75
954.263	3899.75
954.491	3780.75
954.719	3856.75
954.948	3810.75
955.176	3793.75
955.404	3704.75
955.632	3757.75
955.86	3805.75
956.088	3742.75
956.316	3755.75
956.544	3762.75
956.772	3666.75
956.999	3644.75
957.227	3731.75
957.455	3603.75
957.683	3607.75
957.91	3572.75
958.138	3559.75
958.365	3542.75
958.593	3499.75
958.82	3467.75
959.048	3547.75
959.275	3541.75
959.502	3481.75
959.73	3452.75
959.957	3539.75
960.184	3506.75
960.411	3447.75
960.638	3534.75
960.865	3457.75
961.092	3472.75
961.319	3344.75
961.546	3442.75
961.773	3475.75
962	3407.75
962.227	3437.75
962.454	3413.75
962.68	3424.75
962.907	3380.75
963.134	3353.75
963.36	3329.75
963.587	3373.75
963.813	3279.75
964.04	3287.75
964.266	3275.75
964.493	3310.75
964.719	3282.75
964.945	3250.75
965.171	3172.75
965.398	3225.75
965.624	3216.75
965.85	3141.75
966.076	3132.75
966.302	3154.75
966.528	3129.75
966.754	3185.75
966.98	3170.75
967.206	3097.75
967.431	3045.75
967.657	3100.75
967.883	3086.75
968.109	3091.75
968.334	3025.75
968.56	3024.75
968.785	3051.75
969.011	2939.75
969.236	3030.75
969.462	2950.75
969.687	3006.75
969.912	2998.75
970.138	2991.75
970.363	2939.75
970.588	2953.75
970.813	2931.75
971.038	2923.75
971.263	2929.75
971.488	2966.75
971.713	2941.75
971.938	2912.75
972.163	2820.75
972.388	2837.75
972.613	2843.75
972.838	2852.75
973.062	2823.75
973.287	2818.75
973.512	2718.75
973.736	2758.75
973.961	2737.75
974.185	2719.75
974.41	2736.75
974.634	2632.75
974.858	2654.75
975.083	2695.75
975.307	2696.75
975.531	2651.75
975.755	2565.75
975.98	2617.75
976.204	2540.75
976.428	2570.75
976.652	2555.75
976.876	2523.75
977.1	2578.75
977.324	2530.75
977.547	2575.75
977.771	2554.75
977.995	2526.75
978.219	2465.75
978.442	2568.75
978.666	2486.75
978.89	2500.75
979.113	2464.75
979.337	2487.75
979.56	2441.75
979.783	2508.75
980.007	2376.75
980.23	2440.75
980.453	2388.75
980.677	2431.75
980.9	2422.75
981.123	2298.75
981.346	2432.75
981.569	2360.75
981.792	2407.75
982.015	2350.75
982.238	2322.75
982.461	2336.75
982.684	2282.75
982.907	2245.75
983.129	2265.75
983.352	2317.75
983.575	2284.75
983.797	2249.75
984.02	2234.75
984.242	2199.75
984.465	2213.75
984.687	2206.75
984.91	2243.75
985.132	2220.75
985.354	2225.75
985.577	2201.75
985.799	2205.75
986.021	2125.75
986.243	2119.75
986.465	2155.75
986.687	2213.75
986.909	2226.75
987.131	2146.75
987.353	2099.75
987.575	2146.75
987.797	2105.75
988.019	2036.75
988.241	2115.75
988.462	2076.75
988.684	2110.75
988.906	2152.75
989.127	2139.75
989.349	2046.75
989.57	2053.75
989.792	2089.75
990.013	2094.75
990.234	2091.75
990.456	2092.75
990.677	2078.75
990.898	2013.75
991.119	2044.75
991.341	2037.75
991.562	1980.75
991.783	2043.75
992.004	1938.75
992.225	1938.75
992.446	1942.75
992.667	1894.75
992.887	1972.75
993.108	1878.75
993.329	1993.75
993.55	1928.75
993.77	1862.75
993.991	1869.75
994.212	1913.75
994.432	1873.75
994.653	1896.75
994.873	1875.75
995.093	1771.75
995.314	1804.75
995.534	1894.75
995.754	1876.75
995.975	1917.75
996.195	1798.75
996.415	1863.75
996.635	1831.75
996.855	1815.75
997.075	1780.75
997.295	1804.75
997.515	1757.75
997.735	1794.75
997.955	1786.75
998.174	1759.75
998.394	1748.75
998.614	1771.75
998.834	1730.75
999.053	1814.75
999.273	1782.75
999.492	1821.75
999.712	1767.75
999.931	1744.75
1000.151	1747.75
1000.37	1735.75
1000.589	1811.75
1000.809	1720.75
1001.028	1846.75
1001.247	1742.75
1001.466	1640.75
1001.685	1758.75
1001.904	1732.75
1002.123	1715.75
1002.342	1685.75
1002.561	1679.75
1002.78	1657.75
1002.999	1765.75
1003.218	1642.75
1003.436	1666.75
1003.655	1697.75
1003.874	1636.75
1004.092	1685.75
1004.311	1707.75
1004.53	1643.75
1004.748	1744.75
1004.966	1645.75
1005.185	1718.75
1005.403	1677.75
1005.622	1648.75
1005.84	1737.75
1006.058	1620.75
1006.276	1648.75
1006.494	2046.75
1006.712	1637.75
1006.931	1694.75
1007.149	1598.75
1007.367	1609.75
1007.584	1634.75
1007.802	1640.75
1008.02	1596.75
1008.238	1676.75
1008.456	1697.75
1008.673	1547.75
1008.891	1625.75
1009.109	1607.75
1009.326	1671.75
1009.544	1743.75
1009.761	1606.75
1009.979	1703.75
1010.196	1710.75
1010.413	1795.75
1010.631	1779.75
1010.848	1752.75
1011.065	1799.75
1011.282	1742.75
1011.5	1657.75
1011.717	1780.75
1011.934	1746.75
1012.151	1773.75
1012.368	1735.75
1012.585	1667.75
1012.801	1710.75
1013.018	1676.75
1013.235	1653.75
1013.452	1652.75
1013.669	1670.75
1013.885	1638.75
1014.102	1647.75
1014.318	1637.75
1014.535	1612.75
1014.751	1657.75
1014.968	1617.75
1015.184	1669.75
1015.401	1563.75
1015.617	1615.75
1015.833	1532.75
1016.049	1554.75
1016.266	1520.75
1016.482	1521.75
1016.698	1455.75
1016.914	1527.75
1017.13	1460.75
1017.346	1461.75
1017.562	1505.75
1017.778	1433.75
1017.993	1431.75
1018.209	1482.75
1018.425	1449.75
1018.641	1393.75
1018.856	1410.75
1019.072	1425.75
1019.288	1450.75
1019.503	1400.75
1019.719	1323.75
1019.934	1352.75
1020.149	1397.75
1020.365	1371.75
1020.58	1336.75
1020.795	1362.75
1021.011	1294.75
1021.226	1280.75
1021.441	1322.75
1021.656	1248.75
1021.871	1167.75
1022.086	1195.75
1022.301	1196.75
1022.516	1164.75
1022.731	1250.75
1022.946	1106.75
1023.16	1122.75
1023.375	1104.75
1023.59	1092.75
1023.804	1048.75
1024.019	1147.75
1024.234	1026.75
1024.448	1057.75
1024.663	974.75
1024.877	1009.75
1025.092	1039.75
1025.306	1031.75
1025.52	934.75
1025.734	1019.75
1025.949	959.75
1026.163	930.75
1026.377	865.75
1026.591	921.75
1026.805	837.75
1027.019	860.75
1027.233	816.75
1027.447	756.75
1027.661	857.75
1027.875	802.75
1028.088	823.75
1028.302	751.75
1028.516	720.75
1028.73	719.75
1028.943	734.75
1029.157	671.75
1029.37	638.75
1029.584	-3.25
1029.797	-0.25
1030.011	-4.25
1030.224	-2.25
