Data from QEP037381__366__15-04-32-712.txt Node

Date: Fri Apr 28 15:04:32 EDT 2023
User: dcclab
Spectrometer: QEP03738
Trigger mode: 4
Integration Time (sec): 1.000000E1
Scans to average: 1
Electric dark correction enabled: true
Nonlinearity correction enabled: false
Boxcar width: 0
XAxis mode: Wavelengths
Number of Pixels in Spectrum: 1044
>>>>>Begin Spectral Data<<<<<
784.041	15.62
784.3	0.62
784.558	-1.38
784.817	-1.38
785.075	65384.62
785.334	13063.62
785.592	6831.62
785.851	4829.62
786.109	3711.62
786.368	2892.62
786.626	2372.62
786.884	1975.62
787.143	1677.62
787.401	1383.62
787.659	1266.62
787.917	1048.62
788.175	995.62
788.433	867.62
788.691	787.62
788.949	731.62
789.207	708.62
789.465	600.62
789.723	589.62
789.98	539.62
790.238	577.62
790.496	547.62
790.753	512.62
791.011	553.62
791.268	501.62
791.526	499.62
791.783	522.62
792.041	489.62
792.298	409.62
792.556	478.62
792.813	458.62
793.07	431.62
793.327	428.62
793.584	498.62
793.841	427.62
794.099	443.62
794.356	516.62
794.613	407.62
794.869	445.62
795.126	418.62
795.383	407.62
795.64	418.62
795.897	374.62
796.153	435.62
796.41	417.62
796.667	395.62
796.923	408.62
797.18	418.62
797.436	454.62
797.693	389.62
797.949	457.62
798.206	484.62
798.462	386.62
798.718	457.62
798.974	434.62
799.231	466.62
799.487	468.62
799.743	449.62
799.999	479.62
800.255	486.62
800.511	463.62
800.767	510.62
801.023	511.62
801.279	544.62
801.534	596.62
801.79	631.62
802.046	665.62
802.302	822.62
802.557	954.62
802.813	1176.62
803.068	1517.62
803.324	2119.62
803.579	2927.62
803.835	4074.62
804.09	5673.62
804.345	7345.62
804.601	9029.62
804.856	10548.62
805.111	11793.62
805.366	12556.62
805.621	13109.62
805.876	13419.62
806.131	13615.62
806.386	13798.62
806.641	14053.62
806.896	14206.62
807.151	14438.62
807.406	14574.62
807.661	14851.62
807.915	15060.62
808.17	15318.62
808.425	15374.62
808.679	15512.62
808.934	15747.62
809.188	15834.62
809.443	16013.62
809.697	16200.62
809.951	16227.62
810.206	16360.62
810.46	16532.62
810.714	16638.62
810.968	16851.62
811.223	16841.62
811.477	16982.62
811.731	17140.62
811.985	17246.62
812.239	17237.62
812.493	17384.62
812.747	17533.62
813	17421.62
813.254	17611.62
813.508	17659.62
813.762	17672.62
814.015	17739.62
814.269	17777.62
814.522	18104.62
814.776	18296.62
815.03	18333.62
815.283	18496.62
815.536	18925.62
815.79	19095.62
816.043	19297.62
816.296	19628.62
816.55	19907.62
816.803	19975.62
817.056	20161.62
817.309	20428.62
817.562	20548.62
817.815	20771.62
818.068	20896.62
818.321	21041.62
818.574	21377.62
818.827	21622.62
819.079	21784.62
819.332	22435.62
819.585	22537.62
819.838	22786.62
820.09	23013.62
820.343	23118.62
820.595	23236.62
820.848	23296.62
821.1	23470.62
821.353	23446.62
821.605	23343.62
821.857	23425.62
822.11	23297.62
822.362	23295.62
822.614	23233.62
822.866	23326.62
823.118	23275.62
823.37	23369.62
823.622	23435.62
823.874	23475.62
824.126	23585.62
824.378	23572.62
824.63	23605.62
824.882	23716.62
825.134	23586.62
825.385	23668.62
825.637	23664.62
825.888	23553.62
826.14	23467.62
826.392	23373.62
826.643	23180.62
826.895	23255.62
827.146	23085.62
827.397	22967.62
827.649	23083.62
827.9	22928.62
828.151	23005.62
828.402	23082.62
828.653	23089.62
828.905	23113.62
829.156	23248.62
829.407	23090.62
829.658	23147.62
829.909	23115.62
830.159	23022.62
830.41	22795.62
830.661	22741.62
830.912	22669.62
831.162	22542.62
831.413	22348.62
831.664	22302.62
831.914	22473.62
832.165	22491.62
832.415	22446.62
832.666	22523.62
832.916	22450.62
833.167	22422.62
833.417	22415.62
833.667	22349.62
833.917	22087.62
834.168	22163.62
834.418	22079.62
834.668	21962.62
834.918	21834.62
835.168	21832.62
835.418	21757.62
835.668	21701.62
835.918	21696.62
836.167	21610.62
836.417	21506.62
836.667	21626.62
836.917	21492.62
837.166	21403.62
837.416	21485.62
837.666	21401.62
837.915	21286.62
838.165	21150.62
838.414	21160.62
838.663	21040.62
838.913	20922.62
839.162	20819.62
839.411	20981.62
839.661	20785.62
839.91	20777.62
840.159	20671.62
840.408	20834.62
840.657	20730.62
840.906	20660.62
841.155	20777.62
841.404	20690.62
841.653	20705.62
841.902	20647.62
842.15	20692.62
842.399	20634.62
842.648	20577.62
842.897	20562.62
843.145	20354.62
843.394	20267.62
843.642	20174.62
843.891	20168.62
844.139	20026.62
844.388	19916.62
844.636	19817.62
844.884	19745.62
845.133	19746.62
845.381	19666.62
845.629	19698.62
845.877	19620.62
846.125	19589.62
846.373	19567.62
846.621	19520.62
846.869	19346.62
847.117	19378.62
847.365	19301.62
847.613	19168.62
847.861	19174.62
848.108	19099.62
848.356	18991.62
848.604	18946.62
848.851	18959.62
849.099	19071.62
849.346	19129.62
849.594	19072.62
849.841	19151.62
850.089	19218.62
850.336	19159.62
850.583	19135.62
850.831	19005.62
851.078	18948.62
851.325	18738.62
851.572	18766.62
851.819	18462.62
852.066	18275.62
852.313	18061.62
852.56	17960.62
852.807	17923.62
853.054	17869.62
853.301	17741.62
853.548	17816.62
853.794	17934.62
854.041	18010.62
854.288	18048.62
854.534	18206.62
854.781	18140.62
855.028	18027.62
855.274	18065.62
855.52	17845.62
855.767	17816.62
856.013	17734.62
856.26	17959.62
856.506	17482.62
856.752	17458.62
856.998	17552.62
857.244	17490.62
857.49	17625.62
857.736	17479.62
857.982	17595.62
858.228	17576.62
858.474	17539.62
858.72	17422.62
858.966	17225.62
859.212	17134.62
859.458	16916.62
859.703	16744.62
859.949	16651.62
860.195	16531.62
860.44	16324.62
860.686	16279.62
860.931	16185.62
861.177	16114.62
861.422	16185.62
861.667	16201.62
861.913	16109.62
862.158	16129.62
862.403	16251.62
862.648	16212.62
862.893	16279.62
863.138	16295.62
863.384	16159.62
863.629	16099.62
863.873	16075.62
864.118	15978.62
864.363	15943.62
864.608	15795.62
864.853	15710.62
865.098	15672.62
865.342	15600.62
865.587	15526.62
865.832	15492.62
866.076	15361.62
866.321	15392.62
866.565	15316.62
866.81	15249.62
867.054	15306.62
867.298	15212.62
867.543	15251.62
867.787	15255.62
868.031	15229.62
868.275	15116.62
868.519	14980.62
868.764	14963.62
869.008	14984.62
869.252	15004.62
869.496	14826.62
869.739	14846.62
869.983	14854.62
870.227	14787.62
870.471	14728.62
870.715	14740.62
870.958	14845.62
871.202	14761.62
871.446	14797.62
871.689	14741.62
871.933	14774.62
872.176	14832.62
872.42	14792.62
872.663	14672.62
872.906	14653.62
873.15	14509.62
873.393	14350.62
873.636	14386.62
873.879	14238.62
874.122	14076.62
874.366	13923.62
874.609	13996.62
874.852	13853.62
875.095	13728.62
875.337	13649.62
875.58	13598.62
875.823	13564.62
876.066	13695.62
876.309	13606.62
876.551	13402.62
876.794	13353.62
877.037	13319.62
877.279	13299.62
877.522	13377.62
877.764	13408.62
878.007	13407.62
878.249	13389.62
878.491	13340.62
878.734	13336.62
878.976	13273.62
879.218	13169.62
879.46	13236.62
879.702	13066.62
879.945	12878.62
880.187	12823.62
880.429	12811.62
880.671	12667.62
880.912	12663.62
881.154	12498.62
881.396	12544.62
881.638	12552.62
881.88	12519.62
882.121	12430.62
882.363	12484.62
882.605	12430.62
882.846	12330.62
883.088	12383.62
883.329	12234.62
883.571	12147.62
883.812	12259.62
884.053	12298.62
884.295	12430.62
884.536	12375.62
884.777	12289.62
885.018	12254.62
885.259	12208.62
885.5	12119.62
885.742	12289.62
885.982	12125.62
886.223	12064.62
886.464	12020.62
886.705	11900.62
886.946	11933.62
887.187	11787.62
887.428	11802.62
887.668	11629.62
887.909	11561.62
888.15	11453.62
888.39	11442.62
888.631	11316.62
888.871	11271.62
889.111	11204.62
889.352	11182.62
889.592	11020.62
889.833	10991.62
890.073	10873.62
890.313	10855.62
890.553	10686.62
890.793	10695.62
891.033	10686.62
891.273	10579.62
891.513	10529.62
891.753	10599.62
891.993	10526.62
892.233	10556.62
892.473	10659.62
892.713	10509.62
892.952	10469.62
893.192	10553.62
893.432	10505.62
893.671	10461.62
893.911	10387.62
894.15	10385.62
894.39	10211.62
894.629	10148.62
894.869	10165.62
895.108	10073.62
895.347	9918.62
895.587	9911.62
895.826	9913.62
896.065	9812.62
896.304	9858.62
896.543	9889.62
896.782	9769.62
897.021	9868.62
897.26	9758.62
897.499	9849.62
897.738	9673.62
897.977	9585.62
898.216	9469.62
898.454	9440.62
898.693	9426.62
898.932	9357.62
899.17	9292.62
899.409	9265.62
899.647	9264.62
899.886	9218.62
900.124	9214.62
900.363	9150.62
900.601	9213.62
900.839	9228.62
901.078	9117.62
901.316	9206.62
901.554	9164.62
901.792	9203.62
902.03	9104.62
902.268	9121.62
902.506	9129.62
902.744	9034.62
902.982	9035.62
903.22	8872.62
903.458	8949.62
903.695	8804.62
903.933	8778.62
904.171	8549.62
904.409	8499.62
904.646	8486.62
904.884	8238.62
905.121	8248.62
905.359	8231.62
905.596	8144.62
905.833	8054.62
906.071	8059.62
906.308	8076.62
906.545	8015.62
906.783	7989.62
907.02	7884.62
907.257	7924.62
907.494	7916.62
907.731	7875.62
907.968	7947.62
908.205	7781.62
908.442	7799.62
908.679	7755.62
908.915	7658.62
909.152	7631.62
909.389	7471.62
909.626	7420.62
909.862	7428.62
910.099	7394.62
910.335	7461.62
910.572	7253.62
910.808	7331.62
911.045	7280.62
911.281	7278.62
911.518	7256.62
911.754	7245.62
911.99	7191.62
912.226	7133.62
912.463	7016.62
912.699	7006.62
912.935	6960.62
913.171	6906.62
913.407	6824.62
913.643	6924.62
913.879	6787.62
914.114	6684.62
914.35	6612.62
914.586	6546.62
914.822	6481.62
915.057	6548.62
915.293	6372.62
915.529	6342.62
915.764	6410.62
916	6431.62
916.235	6402.62
916.471	6327.62
916.706	6251.62
916.941	6298.62
917.177	6265.62
917.412	6337.62
917.647	6257.62
917.882	6213.62
918.117	6318.62
918.352	6207.62
918.588	6276.62
918.823	6128.62
919.057	6111.62
919.292	5898.62
919.527	5984.62
919.762	5911.62
919.997	5904.62
920.232	5770.62
920.466	5811.62
920.701	5622.62
920.935	5618.62
921.17	5603.62
921.405	5556.62
921.639	5543.62
921.873	5503.62
922.108	5588.62
922.342	5586.62
922.576	5450.62
922.811	5455.62
923.045	5482.62
923.279	5502.62
923.513	5347.62
923.747	5391.62
923.981	5369.62
924.215	5287.62
924.449	5278.62
924.683	5210.62
924.917	5162.62
925.151	5156.62
925.385	5231.62
925.618	5172.62
925.852	5207.62
926.086	4988.62
926.319	5119.62
926.553	5026.62
926.786	5084.62
927.02	5053.62
927.253	5094.62
927.486	5089.62
927.72	5004.62
927.953	5052.62
928.186	5012.62
928.42	5029.62
928.653	4929.62
928.886	4879.62
929.119	4898.62
929.352	4876.62
929.585	4863.62
929.818	4816.62
930.051	4828.62
930.284	4802.62
930.516	4689.62
930.749	4636.62
930.982	4681.62
931.215	4642.62
931.447	4549.62
931.68	4568.62
931.912	4518.62
932.145	4595.62
932.377	4582.62
932.61	4668.62
932.842	4490.62
933.074	4588.62
933.307	4511.62
933.539	4600.62
933.771	4581.62
934.003	4545.62
934.236	4632.62
934.468	4641.62
934.7	4479.62
934.932	4507.62
935.164	4488.62
935.395	4407.62
935.627	4481.62
935.859	4428.62
936.091	4379.62
936.323	4385.62
936.554	4431.62
936.786	4366.62
937.017	4324.62
937.249	4373.62
937.481	4264.62
937.712	4276.62
937.943	4291.62
938.175	4274.62
938.406	4226.62
938.637	4330.62
938.869	4209.62
939.1	4251.62
939.331	4230.62
939.562	4232.62
939.793	4231.62
940.024	4212.62
940.255	4200.62
940.486	4155.62
940.717	4142.62
940.948	4122.62
941.179	4040.62
941.409	4114.62
941.64	4089.62
941.871	4147.62
942.102	4072.62
942.332	4102.62
942.563	4080.62
942.793	4061.62
943.024	4025.62
943.254	3991.62
943.484	4108.62
943.715	4112.62
943.945	4008.62
944.175	3997.62
944.405	3985.62
944.636	4037.62
944.866	4023.62
945.096	4057.62
945.326	3959.62
945.556	4017.62
945.786	3991.62
946.016	3969.62
946.245	3864.62
946.475	3825.62
946.705	3839.62
946.935	3812.62
947.164	3790.62
947.394	3801.62
947.624	3766.62
947.853	3798.62
948.083	3761.62
948.312	3724.62
948.542	3626.62
948.771	3652.62
949	3603.62
949.23	3673.62
949.459	3676.62
949.688	3751.62
949.917	3687.62
950.146	3653.62
950.375	3723.62
950.604	3644.62
950.833	3715.62
951.062	3683.62
951.291	3648.62
951.52	3623.62
951.749	3610.62
951.978	3547.62
952.206	3549.62
952.435	3588.62
952.664	3569.62
952.892	3583.62
953.121	3553.62
953.349	3565.62
953.578	3557.62
953.806	3461.62
954.035	3446.62
954.263	3407.62
954.491	3372.62
954.719	3459.62
954.948	3372.62
955.176	3419.62
955.404	3310.62
955.632	3368.62
955.86	3369.62
956.088	3340.62
956.316	3350.62
956.544	3349.62
956.772	3283.62
956.999	3266.62
957.227	3299.62
957.455	3219.62
957.683	3208.62
957.91	3212.62
958.138	3169.62
958.365	3131.62
958.593	3139.62
958.82	3145.62
959.048	3188.62
959.275	3104.62
959.502	3129.62
959.73	3090.62
959.957	3071.62
960.184	3144.62
960.411	3092.62
960.638	3143.62
960.865	3110.62
961.092	3132.62
961.319	2978.62
961.546	3126.62
961.773	3120.62
962	3068.62
962.227	3116.62
962.454	3037.62
962.68	3027.62
962.907	3033.62
963.134	2987.62
963.36	3008.62
963.587	3018.62
963.813	2932.62
964.04	2964.62
964.266	2888.62
964.493	2971.62
964.719	2910.62
964.945	2926.62
965.171	2781.62
965.398	2858.62
965.624	2874.62
965.85	2800.62
966.076	2815.62
966.302	2858.62
966.528	2824.62
966.754	2818.62
966.98	2812.62
967.206	2793.62
967.431	2740.62
967.657	2795.62
967.883	2777.62
968.109	2762.62
968.334	2696.62
968.56	2728.62
968.785	2699.62
969.011	2641.62
969.236	2718.62
969.462	2644.62
969.687	2681.62
969.912	2696.62
970.138	2693.62
970.363	2650.62
970.588	2685.62
970.813	2666.62
971.038	2589.62
971.263	2624.62
971.488	2648.62
971.713	2667.62
971.938	2614.62
972.163	2549.62
972.388	2593.62
972.613	2529.62
972.838	2556.62
973.062	2507.62
973.287	2536.62
973.512	2464.62
973.736	2493.62
973.961	2453.62
974.185	2447.62
974.41	2485.62
974.634	2380.62
974.858	2393.62
975.083	2431.62
975.307	2420.62
975.531	2395.62
975.755	2329.62
975.98	2347.62
976.204	2264.62
976.428	2288.62
976.652	2305.62
976.876	2275.62
977.1	2328.62
977.324	2222.62
977.547	2306.62
977.771	2281.62
977.995	2282.62
978.219	2213.62
978.442	2307.62
978.666	2254.62
978.89	2261.62
979.113	2211.62
979.337	2223.62
979.56	2198.62
979.783	2279.62
980.007	2140.62
980.23	2176.62
980.453	2150.62
980.677	2172.62
980.9	2164.62
981.123	2053.62
981.346	2173.62
981.569	2170.62
981.792	2191.62
982.015	2095.62
982.238	2093.62
982.461	2089.62
982.684	2054.62
982.907	2029.62
983.129	2015.62
983.352	2081.62
983.575	2047.62
983.797	2055.62
984.02	1983.62
984.242	1994.62
984.465	2020.62
984.687	1995.62
984.91	2032.62
985.132	1991.62
985.354	2003.62
985.577	2004.62
985.799	1975.62
986.021	1902.62
986.243	1932.62
986.465	1930.62
986.687	2000.62
986.909	2032.62
987.131	1947.62
987.353	1893.62
987.575	1923.62
987.797	1914.62
988.019	1854.62
988.241	1940.62
988.462	1839.62
988.684	1920.62
988.906	1975.62
989.127	1948.62
989.349	1837.62
989.57	1855.62
989.792	1907.62
990.013	1905.62
990.234	1932.62
990.456	1898.62
990.677	1905.62
990.898	1865.62
991.119	1838.62
991.341	1900.62
991.562	1780.62
991.783	1860.62
992.004	1769.62
992.225	1731.62
992.446	1809.62
992.667	1721.62
992.887	1807.62
993.108	1677.62
993.329	1829.62
993.55	1772.62
993.77	1705.62
993.991	1677.62
994.212	1726.62
994.432	1714.62
994.653	1728.62
994.873	1705.62
995.093	1629.62
995.314	1644.62
995.534	1713.62
995.754	1715.62
995.975	1729.62
996.195	1653.62
996.415	1667.62
996.635	1654.62
996.855	1684.62
997.075	1647.62
997.295	1645.62
997.515	1610.62
997.735	1658.62
997.955	1616.62
998.174	1613.62
998.394	1587.62
998.614	1642.62
998.834	1600.62
999.053	1656.62
999.273	1615.62
999.492	1671.62
999.712	1583.62
999.931	1561.62
1000.151	1618.62
1000.37	1596.62
1000.589	1651.62
1000.809	1555.62
1001.028	1686.62
1001.247	1653.62
1001.466	1512.62
1001.685	1651.62
1001.904	1593.62
1002.123	1566.62
1002.342	1577.62
1002.561	1551.62
1002.78	1533.62
1002.999	1594.62
1003.218	1577.62
1003.436	1521.62
1003.655	1574.62
1003.874	1515.62
1004.092	1522.62
1004.311	1581.62
1004.53	1531.62
1004.748	1615.62
1004.966	1537.62
1005.185	1572.62
1005.403	1589.62
1005.622	1528.62
1005.84	1619.62
1006.058	1516.62
1006.276	1507.62
1006.494	1885.62
1006.712	1522.62
1006.931	1582.62
1007.149	1498.62
1007.367	1495.62
1007.584	1510.62
1007.802	1531.62
1008.02	1467.62
1008.238	1594.62
1008.456	1551.62
1008.673	1407.62
1008.891	1525.62
1009.109	1466.62
1009.326	1503.62
1009.544	1582.62
1009.761	1469.62
1009.979	1553.62
1010.196	1518.62
1010.413	1602.62
1010.631	1596.62
1010.848	1595.62
1011.065	1628.62
1011.282	1569.62
1011.5	1472.62
1011.717	1608.62
1011.934	1535.62
1012.151	1553.62
1012.368	1569.62
1012.585	1515.62
1012.801	1550.62
1013.018	1494.62
1013.235	1486.62
1013.452	1504.62
1013.669	1469.62
1013.885	1471.62
1014.102	1509.62
1014.318	1456.62
1014.535	1434.62
1014.751	1458.62
1014.968	1442.62
1015.184	1442.62
1015.401	1411.62
1015.617	1441.62
1015.833	1365.62
1016.049	1379.62
1016.266	1356.62
1016.482	1366.62
1016.698	1314.62
1016.914	1380.62
1017.13	1312.62
1017.346	1315.62
1017.562	1346.62
1017.778	1319.62
1017.993	1285.62
1018.209	1326.62
1018.425	1314.62
1018.641	1270.62
1018.856	1239.62
1019.072	1281.62
1019.288	1296.62
1019.503	1279.62
1019.719	1195.62
1019.934	1201.62
1020.149	1299.62
1020.365	1222.62
1020.58	1166.62
1020.795	1226.62
1021.011	1171.62
1021.226	1178.62
1021.441	1186.62
1021.656	1123.62
1021.871	1070.62
1022.086	1104.62
1022.301	1071.62
1022.516	1071.62
1022.731	1148.62
1022.946	1027.62
1023.16	1018.62
1023.375	1005.62
1023.59	1000.62
1023.804	966.62
1024.019	1068.62
1024.234	936.62
1024.448	965.62
1024.663	929.62
1024.877	934.62
1025.092	937.62
1025.306	954.62
1025.52	873.62
1025.734	990.62
1025.949	889.62
1026.163	823.62
1026.377	792.62
1026.591	878.62
1026.805	775.62
1027.019	781.62
1027.233	760.62
1027.447	705.62
1027.661	806.62
1027.875	718.62
1028.088	747.62
1028.302	681.62
1028.516	657.62
1028.73	676.62
1028.943	663.62
1029.157	622.62
1029.37	584.62
1029.584	-3.38
1029.797	-2.38
1030.011	-4.38
1030.224	-3.38
