Data from QEP037381__362__15-03-52-712.txt Node

Date: Fri Apr 28 15:03:52 EDT 2023
User: dcclab
Spectrometer: QEP03738
Trigger mode: 4
Integration Time (sec): 1.000000E1
Scans to average: 1
Electric dark correction enabled: true
Nonlinearity correction enabled: false
Boxcar width: 0
XAxis mode: Wavelengths
Number of Pixels in Spectrum: 1044
>>>>>Begin Spectral Data<<<<<
784.041	15.5
784.3	-0.5
784.558	-5.5
784.817	-4.5
785.075	63291.5
785.334	12621.5
785.592	6556.5
785.851	4617.5
786.109	3520.5
786.368	2789.5
786.626	2242.5
786.884	1881.5
787.143	1612.5
787.401	1344.5
787.659	1196.5
787.917	1020.5
788.175	968.5
788.433	841.5
788.691	774.5
788.949	707.5
789.207	699.5
789.465	590.5
789.723	585.5
789.98	536.5
790.238	572.5
790.496	524.5
790.753	535.5
791.011	563.5
791.268	510.5
791.526	497.5
791.783	511.5
792.041	487.5
792.298	416.5
792.556	478.5
792.813	455.5
793.07	449.5
793.327	434.5
793.584	494.5
793.841	434.5
794.099	448.5
794.356	511.5
794.613	414.5
794.869	450.5
795.126	424.5
795.383	410.5
795.64	419.5
795.897	379.5
796.153	430.5
796.41	417.5
796.667	395.5
796.923	415.5
797.18	416.5
797.436	434.5
797.693	405.5
797.949	457.5
798.206	491.5
798.462	402.5
798.718	458.5
798.974	434.5
799.231	459.5
799.487	460.5
799.743	477.5
799.999	495.5
800.255	503.5
800.511	485.5
800.767	527.5
801.023	522.5
801.279	559.5
801.534	615.5
801.79	652.5
802.046	703.5
802.302	843.5
802.557	1003.5
802.813	1276.5
803.068	1600.5
803.324	2302.5
803.579	3207.5
803.835	4472.5
804.09	6139.5
804.345	7907.5
804.601	9688.5
804.856	11302.5
805.111	12556.5
805.366	13434.5
805.621	13990.5
805.876	14340.5
806.131	14586.5
806.386	14773.5
806.641	15066.5
806.896	15256.5
807.151	15525.5
807.406	15699.5
807.661	15944.5
807.915	16192.5
808.17	16468.5
808.425	16590.5
808.679	16739.5
808.934	17051.5
809.188	17117.5
809.443	17278.5
809.697	17436.5
809.951	17584.5
810.206	17675.5
810.46	17855.5
810.714	17990.5
810.968	18130.5
811.223	18196.5
811.477	18299.5
811.731	18370.5
811.985	18567.5
812.239	18644.5
812.493	18820.5
812.747	18937.5
813	18847.5
813.254	19037.5
813.508	19080.5
813.762	19014.5
814.015	19178.5
814.269	19364.5
814.522	19425.5
814.776	19694.5
815.03	19924.5
815.283	20094.5
815.536	20333.5
815.79	20696.5
816.043	20978.5
816.296	21109.5
816.55	21346.5
816.803	21604.5
817.056	21819.5
817.309	22034.5
817.562	22318.5
817.815	22413.5
818.068	22629.5
818.321	22788.5
818.574	23165.5
818.827	23523.5
819.079	23669.5
819.332	24223.5
819.585	24415.5
819.838	24740.5
820.09	24821.5
820.343	25018.5
820.595	25248.5
820.848	25291.5
821.1	25463.5
821.353	25413.5
821.605	25395.5
821.857	25416.5
822.11	25170.5
822.362	25204.5
822.614	25061.5
822.866	25171.5
823.118	25327.5
823.37	25262.5
823.622	25350.5
823.874	25399.5
824.126	25429.5
824.378	25566.5
824.63	25629.5
824.882	25581.5
825.134	25615.5
825.385	25565.5
825.637	25406.5
825.888	25437.5
826.14	25355.5
826.392	25350.5
826.643	24997.5
826.895	25060.5
827.146	24900.5
827.397	24791.5
827.649	24889.5
827.9	24894.5
828.151	24853.5
828.402	24936.5
828.653	25029.5
828.905	24949.5
829.156	25002.5
829.407	24956.5
829.658	25116.5
829.909	24967.5
830.159	24858.5
830.41	24767.5
830.661	24715.5
830.912	24495.5
831.162	24354.5
831.413	24310.5
831.664	24341.5
831.914	24430.5
832.165	24367.5
832.415	24406.5
832.666	24270.5
832.916	24403.5
833.167	24282.5
833.417	24210.5
833.667	24140.5
833.917	24003.5
834.168	23974.5
834.418	23903.5
834.668	23842.5
834.918	23621.5
835.168	23650.5
835.418	23503.5
835.668	23446.5
835.918	23361.5
836.167	23407.5
836.417	23305.5
836.667	23183.5
836.917	23204.5
837.166	23162.5
837.416	23136.5
837.666	23132.5
837.915	22961.5
838.165	23020.5
838.414	22870.5
838.663	22759.5
838.913	22788.5
839.162	22636.5
839.411	22623.5
839.661	22485.5
839.91	22557.5
840.159	22492.5
840.408	22533.5
840.657	22508.5
840.906	22456.5
841.155	22380.5
841.404	22410.5
841.653	22416.5
841.902	22359.5
842.15	22417.5
842.399	22461.5
842.648	22286.5
842.897	22155.5
843.145	22098.5
843.394	21961.5
843.642	21831.5
843.891	21819.5
844.139	21660.5
844.388	21502.5
844.636	21495.5
844.884	21445.5
845.133	21396.5
845.381	21365.5
845.629	21436.5
845.877	21354.5
846.125	21316.5
846.373	21248.5
846.621	21065.5
846.869	20983.5
847.117	20942.5
847.365	20867.5
847.613	20822.5
847.861	20682.5
848.108	20707.5
848.356	20647.5
848.604	20655.5
848.851	20663.5
849.099	20617.5
849.346	20726.5
849.594	20746.5
849.841	20826.5
850.089	20825.5
850.336	20820.5
850.583	20721.5
850.831	20585.5
851.078	20493.5
851.325	20394.5
851.572	20315.5
851.819	20081.5
852.066	19791.5
852.313	19696.5
852.56	19520.5
852.807	19459.5
853.054	19403.5
853.301	19365.5
853.548	19367.5
853.794	19513.5
854.041	19458.5
854.288	19555.5
854.534	19738.5
854.781	19699.5
855.028	19571.5
855.274	19466.5
855.52	19409.5
855.767	19185.5
856.013	19256.5
856.26	19460.5
856.506	19057.5
856.752	19110.5
856.998	18995.5
857.244	18985.5
857.49	19139.5
857.736	19191.5
857.982	19190.5
858.228	19100.5
858.474	18895.5
858.72	18848.5
858.966	18617.5
859.212	18559.5
859.458	18352.5
859.703	18141.5
859.949	17966.5
860.195	17839.5
860.44	17690.5
860.686	17703.5
860.931	17734.5
861.177	17551.5
861.422	17518.5
861.667	17543.5
861.913	17539.5
862.158	17586.5
862.403	17627.5
862.648	17580.5
862.893	17560.5
863.138	17551.5
863.384	17456.5
863.629	17519.5
863.873	17450.5
864.118	17353.5
864.363	17277.5
864.608	17118.5
864.853	17086.5
865.098	17004.5
865.342	16758.5
865.587	16786.5
865.832	16772.5
866.076	16738.5
866.321	16646.5
866.565	16733.5
866.81	16446.5
867.054	16460.5
867.298	16462.5
867.543	16453.5
867.787	16323.5
868.031	16435.5
868.275	16406.5
868.519	16340.5
868.764	16264.5
869.008	16150.5
869.252	16257.5
869.496	16084.5
869.739	16189.5
869.983	16149.5
870.227	16036.5
870.471	16023.5
870.715	16101.5
870.958	16073.5
871.202	16072.5
871.446	16122.5
871.689	16130.5
871.933	16082.5
872.176	16170.5
872.42	16055.5
872.663	16068.5
872.906	16004.5
873.15	15850.5
873.393	15757.5
873.636	15712.5
873.879	15458.5
874.122	15354.5
874.366	15226.5
874.609	15043.5
874.852	15029.5
875.095	14993.5
875.337	14869.5
875.58	14687.5
875.823	14780.5
876.066	14768.5
876.309	14802.5
876.551	14503.5
876.794	14549.5
877.037	14566.5
877.279	14424.5
877.522	14481.5
877.764	14537.5
878.007	14501.5
878.249	14568.5
878.491	14480.5
878.734	14435.5
878.976	14356.5
879.218	14248.5
879.46	14303.5
879.702	14149.5
879.945	13974.5
880.187	13841.5
880.429	13858.5
880.671	13763.5
880.912	13685.5
881.154	13629.5
881.396	13540.5
881.638	13631.5
881.88	13543.5
882.121	13483.5
882.363	13511.5
882.605	13548.5
882.846	13507.5
883.088	13436.5
883.329	13305.5
883.571	13264.5
883.812	13373.5
884.053	13449.5
884.295	13617.5
884.536	13713.5
884.777	13469.5
885.018	13473.5
885.259	13495.5
885.5	13325.5
885.742	13531.5
885.982	13385.5
886.223	13133.5
886.464	13165.5
886.705	13024.5
886.946	13048.5
887.187	12836.5
887.428	12767.5
887.668	12612.5
887.909	12441.5
888.15	12344.5
888.39	12298.5
888.631	12275.5
888.871	12229.5
889.111	12097.5
889.352	11954.5
889.592	11928.5
889.833	11781.5
890.073	11772.5
890.313	11740.5
890.553	11558.5
890.793	11586.5
891.033	11474.5
891.273	11434.5
891.513	11443.5
891.753	11455.5
891.993	11325.5
892.233	11375.5
892.473	11478.5
892.713	11385.5
892.952	11345.5
893.192	11407.5
893.432	11328.5
893.671	11305.5
893.911	11268.5
894.15	11182.5
894.39	11101.5
894.629	11006.5
894.869	10902.5
895.108	10865.5
895.347	10810.5
895.587	10702.5
895.826	10746.5
896.065	10624.5
896.304	10664.5
896.543	10641.5
896.782	10549.5
897.021	10630.5
897.26	10569.5
897.499	10572.5
897.738	10429.5
897.977	10424.5
898.216	10299.5
898.454	10192.5
898.693	10022.5
898.932	10094.5
899.17	10001.5
899.409	10029.5
899.647	10067.5
899.886	9976.5
900.124	9959.5
900.363	9958.5
900.601	9943.5
900.839	9996.5
901.078	9976.5
901.316	10027.5
901.554	10038.5
901.792	10027.5
902.03	9969.5
902.268	9953.5
902.506	9919.5
902.744	9834.5
902.982	9801.5
903.22	9765.5
903.458	9529.5
903.695	9536.5
903.933	9465.5
904.171	9291.5
904.409	9189.5
904.646	9152.5
904.884	8974.5
905.121	8950.5
905.359	8829.5
905.596	8767.5
905.833	8725.5
906.071	8683.5
906.308	8677.5
906.545	8622.5
906.783	8571.5
907.02	8561.5
907.257	8511.5
907.494	8522.5
907.731	8530.5
907.968	8520.5
908.205	8445.5
908.442	8374.5
908.679	8372.5
908.915	8236.5
909.152	8275.5
909.389	8082.5
909.626	7996.5
909.862	7962.5
910.099	7967.5
910.335	8002.5
910.572	7829.5
910.808	7903.5
911.045	7870.5
911.281	7836.5
911.518	7816.5
911.754	7719.5
911.99	7710.5
912.226	7664.5
912.463	7607.5
912.699	7561.5
912.935	7544.5
913.171	7462.5
913.407	7355.5
913.643	7363.5
913.879	7284.5
914.114	7182.5
914.35	7102.5
914.586	7059.5
914.822	6980.5
915.057	7031.5
915.293	6802.5
915.529	6778.5
915.764	6878.5
916	6839.5
916.235	6928.5
916.471	6803.5
916.706	6744.5
916.941	6759.5
917.177	6766.5
917.412	6782.5
917.647	6812.5
917.882	6716.5
918.117	6768.5
918.352	6660.5
918.588	6703.5
918.823	6594.5
919.057	6540.5
919.292	6387.5
919.527	6458.5
919.762	6314.5
919.997	6324.5
920.232	6251.5
920.466	6187.5
920.701	6093.5
920.935	6099.5
921.17	6082.5
921.405	5972.5
921.639	5987.5
921.873	5965.5
922.108	5941.5
922.342	5972.5
922.576	5817.5
922.811	5862.5
923.045	5924.5
923.279	5875.5
923.513	5769.5
923.747	5796.5
923.981	5766.5
924.215	5702.5
924.449	5670.5
924.683	5597.5
924.917	5600.5
925.151	5544.5
925.385	5617.5
925.618	5510.5
925.852	5526.5
926.086	5400.5
926.319	5469.5
926.553	5476.5
926.786	5480.5
927.02	5465.5
927.253	5547.5
927.486	5455.5
927.72	5370.5
927.953	5431.5
928.186	5356.5
928.42	5430.5
928.653	5320.5
928.886	5254.5
929.119	5302.5
929.352	5237.5
929.585	5214.5
929.818	5150.5
930.051	5100.5
930.284	5152.5
930.516	4969.5
930.749	5013.5
930.982	5046.5
931.215	5012.5
931.447	4869.5
931.68	4923.5
931.912	4899.5
932.145	4867.5
932.377	4974.5
932.61	5056.5
932.842	4839.5
933.074	4930.5
933.307	4860.5
933.539	4958.5
933.771	4940.5
934.003	4905.5
934.236	4962.5
934.468	4979.5
934.7	4827.5
934.932	4867.5
935.164	4800.5
935.395	4786.5
935.627	4755.5
935.859	4842.5
936.091	4775.5
936.323	4709.5
936.554	4711.5
936.786	4661.5
937.017	4599.5
937.249	4666.5
937.481	4550.5
937.712	4662.5
937.943	4612.5
938.175	4606.5
938.406	4589.5
938.637	4625.5
938.869	4560.5
939.1	4588.5
939.331	4550.5
939.562	4570.5
939.793	4524.5
940.024	4533.5
940.255	4494.5
940.486	4450.5
940.717	4437.5
940.948	4393.5
941.179	4376.5
941.409	4384.5
941.64	4368.5
941.871	4377.5
942.102	4341.5
942.332	4351.5
942.563	4411.5
942.793	4381.5
943.024	4327.5
943.254	4292.5
943.484	4376.5
943.715	4424.5
943.945	4340.5
944.175	4296.5
944.405	4285.5
944.636	4290.5
944.866	4319.5
945.096	4334.5
945.326	4262.5
945.556	4296.5
945.786	4305.5
946.016	4240.5
946.245	4157.5
946.475	4080.5
946.705	4164.5
946.935	4100.5
947.164	4099.5
947.394	4054.5
947.624	4012.5
947.853	4046.5
948.083	4032.5
948.312	4002.5
948.542	3918.5
948.771	3883.5
949	3948.5
949.23	3946.5
949.459	3940.5
949.688	3982.5
949.917	3941.5
950.146	3946.5
950.375	4029.5
950.604	3870.5
950.833	3952.5
951.062	3947.5
951.291	3925.5
951.52	3790.5
951.749	3869.5
951.978	3794.5
952.206	3827.5
952.435	3836.5
952.664	3836.5
952.892	3856.5
953.121	3811.5
953.349	3844.5
953.578	3813.5
953.806	3749.5
954.035	3684.5
954.263	3737.5
954.491	3659.5
954.719	3717.5
954.948	3661.5
955.176	3614.5
955.404	3601.5
955.632	3624.5
955.86	3585.5
956.088	3571.5
956.316	3590.5
956.544	3572.5
956.772	3526.5
956.999	3492.5
957.227	3558.5
957.455	3434.5
957.683	3458.5
957.91	3408.5
958.138	3373.5
958.365	3434.5
958.593	3374.5
958.82	3309.5
959.048	3412.5
959.275	3345.5
959.502	3353.5
959.73	3289.5
959.957	3334.5
960.184	3406.5
960.411	3315.5
960.638	3371.5
960.865	3336.5
961.092	3337.5
961.319	3238.5
961.546	3325.5
961.773	3325.5
962	3280.5
962.227	3313.5
962.454	3315.5
962.68	3259.5
962.907	3253.5
963.134	3190.5
963.36	3195.5
963.587	3253.5
963.813	3142.5
964.04	3196.5
964.266	3093.5
964.493	3151.5
964.719	3138.5
964.945	3137.5
965.171	3009.5
965.398	3073.5
965.624	3067.5
965.85	3034.5
966.076	3013.5
966.302	3035.5
966.528	2999.5
966.754	2996.5
966.98	2989.5
967.206	2982.5
967.431	2879.5
967.657	3016.5
967.883	2953.5
968.109	2938.5
968.334	2917.5
968.56	2884.5
968.785	2916.5
969.011	2837.5
969.236	2907.5
969.462	2840.5
969.687	2898.5
969.912	2891.5
970.138	2937.5
970.363	2805.5
970.588	2879.5
970.813	2814.5
971.038	2770.5
971.263	2801.5
971.488	2781.5
971.713	2859.5
971.938	2797.5
972.163	2709.5
972.388	2706.5
972.613	2674.5
972.838	2717.5
973.062	2673.5
973.287	2732.5
973.512	2628.5
973.736	2691.5
973.961	2650.5
974.185	2619.5
974.41	2640.5
974.634	2552.5
974.858	2565.5
975.083	2592.5
975.307	2625.5
975.531	2511.5
975.755	2471.5
975.98	2486.5
976.204	2436.5
976.428	2416.5
976.652	2423.5
976.876	2420.5
977.1	2445.5
977.324	2388.5
977.547	2438.5
977.771	2455.5
977.995	2440.5
978.219	2356.5
978.442	2482.5
978.666	2376.5
978.89	2388.5
979.113	2378.5
979.337	2391.5
979.56	2341.5
979.783	2433.5
980.007	2302.5
980.23	2325.5
980.453	2330.5
980.677	2361.5
980.9	2317.5
981.123	2230.5
981.346	2320.5
981.569	2294.5
981.792	2279.5
982.015	2252.5
982.238	2230.5
982.461	2229.5
982.684	2177.5
982.907	2198.5
983.129	2130.5
983.352	2211.5
983.575	2193.5
983.797	2175.5
984.02	2123.5
984.242	2125.5
984.465	2162.5
984.687	2141.5
984.91	2155.5
985.132	2132.5
985.354	2154.5
985.577	2129.5
985.799	2088.5
986.021	2003.5
986.243	2050.5
986.465	2089.5
986.687	2103.5
986.909	2097.5
987.131	2061.5
987.353	2029.5
987.575	2101.5
987.797	2006.5
988.019	1979.5
988.241	2035.5
988.462	1956.5
988.684	2012.5
988.906	2031.5
989.127	2090.5
989.349	1937.5
989.57	1959.5
989.792	2035.5
990.013	2049.5
990.234	2043.5
990.456	2058.5
990.677	2019.5
990.898	1952.5
991.119	1942.5
991.341	1984.5
991.562	1886.5
991.783	1961.5
992.004	1887.5
992.225	1867.5
992.446	1915.5
992.667	1826.5
992.887	1885.5
993.108	1801.5
993.329	1920.5
993.55	1874.5
993.77	1798.5
993.991	1801.5
994.212	1825.5
994.432	1815.5
994.653	1834.5
994.873	1817.5
995.093	1681.5
995.314	1736.5
995.534	1815.5
995.754	1813.5
995.975	1853.5
996.195	1700.5
996.415	1774.5
996.635	1768.5
996.855	1763.5
997.075	1737.5
997.295	1712.5
997.515	1727.5
997.735	1763.5
997.955	1715.5
998.174	1718.5
998.394	1686.5
998.614	1724.5
998.834	1675.5
999.053	1759.5
999.273	1721.5
999.492	1785.5
999.712	1727.5
999.931	1667.5
1000.151	1706.5
1000.37	1693.5
1000.589	1769.5
1000.809	1678.5
1001.028	1772.5
1001.247	1709.5
1001.466	1586.5
1001.685	1754.5
1001.904	1666.5
1002.123	1646.5
1002.342	1672.5
1002.561	1615.5
1002.78	1626.5
1002.999	1674.5
1003.218	1636.5
1003.436	1593.5
1003.655	1661.5
1003.874	1605.5
1004.092	1615.5
1004.311	1663.5
1004.53	1619.5
1004.748	1698.5
1004.966	1614.5
1005.185	1664.5
1005.403	1645.5
1005.622	1604.5
1005.84	1713.5
1006.058	1557.5
1006.276	1615.5
1006.494	1984.5
1006.712	1594.5
1006.931	1641.5
1007.149	1578.5
1007.367	1600.5
1007.584	1594.5
1007.802	1637.5
1008.02	1581.5
1008.238	1668.5
1008.456	1661.5
1008.673	1525.5
1008.891	1627.5
1009.109	1589.5
1009.326	1632.5
1009.544	1692.5
1009.761	1617.5
1009.979	1679.5
1010.196	1689.5
1010.413	1744.5
1010.631	1805.5
1010.848	1806.5
1011.065	1825.5
1011.282	1775.5
1011.5	1711.5
1011.717	1788.5
1011.934	1718.5
1012.151	1789.5
1012.368	1761.5
1012.585	1656.5
1012.801	1710.5
1013.018	1702.5
1013.235	1685.5
1013.452	1707.5
1013.669	1698.5
1013.885	1665.5
1014.102	1717.5
1014.318	1664.5
1014.535	1647.5
1014.751	1682.5
1014.968	1660.5
1015.184	1685.5
1015.401	1593.5
1015.617	1638.5
1015.833	1571.5
1016.049	1572.5
1016.266	1548.5
1016.482	1561.5
1016.698	1508.5
1016.914	1564.5
1017.13	1494.5
1017.346	1508.5
1017.562	1582.5
1017.778	1455.5
1017.993	1432.5
1018.209	1501.5
1018.425	1476.5
1018.641	1460.5
1018.856	1399.5
1019.072	1432.5
1019.288	1491.5
1019.503	1426.5
1019.719	1363.5
1019.934	1349.5
1020.149	1458.5
1020.365	1387.5
1020.58	1329.5
1020.795	1370.5
1021.011	1317.5
1021.226	1320.5
1021.441	1338.5
1021.656	1258.5
1021.871	1201.5
1022.086	1201.5
1022.301	1190.5
1022.516	1169.5
1022.731	1258.5
1022.946	1147.5
1023.16	1126.5
1023.375	1103.5
1023.59	1079.5
1023.804	1046.5
1024.019	1172.5
1024.234	1018.5
1024.448	1051.5
1024.663	996.5
1024.877	1000.5
1025.092	1019.5
1025.306	1032.5
1025.52	949.5
1025.734	1018.5
1025.949	942.5
1026.163	915.5
1026.377	867.5
1026.591	923.5
1026.805	812.5
1027.019	853.5
1027.233	812.5
1027.447	747.5
1027.661	856.5
1027.875	804.5
1028.088	787.5
1028.302	732.5
1028.516	725.5
1028.73	713.5
1028.943	695.5
1029.157	668.5
1029.37	622.5
1029.584	0.5
1029.797	-1.5
1030.011	-4.5
1030.224	0.5
