Data from QEP037381__365__15-04-22-712.txt Node

Date: Fri Apr 28 15:04:22 EDT 2023
User: dcclab
Spectrometer: QEP03738
Trigger mode: 4
Integration Time (sec): 1.000000E1
Scans to average: 1
Electric dark correction enabled: true
Nonlinearity correction enabled: false
Boxcar width: 0
XAxis mode: Wavelengths
Number of Pixels in Spectrum: 1044
>>>>>Begin Spectral Data<<<<<
784.041	13.38
784.3	-2.62
784.558	0.38
784.817	-1.62
785.075	67382.38
785.334	13267.38
785.592	6874.38
785.851	4840.38
786.109	3657.38
786.368	2852.38
786.626	2331.38
786.884	1931.38
787.143	1648.38
787.401	1352.38
787.659	1210.38
787.917	1033.38
788.175	983.38
788.433	882.38
788.691	769.38
788.949	717.38
789.207	689.38
789.465	612.38
789.723	581.38
789.98	547.38
790.238	592.38
790.496	559.38
790.753	527.38
791.011	568.38
791.268	504.38
791.526	488.38
791.783	519.38
792.041	507.38
792.298	415.38
792.556	467.38
792.813	464.38
793.07	445.38
793.327	432.38
793.584	518.38
793.841	416.38
794.099	446.38
794.356	509.38
794.613	417.38
794.869	429.38
795.126	409.38
795.383	387.38
795.64	411.38
795.897	374.38
796.153	420.38
796.41	423.38
796.667	393.38
796.923	422.38
797.18	411.38
797.436	436.38
797.693	393.38
797.949	449.38
798.206	489.38
798.462	402.38
798.718	446.38
798.974	432.38
799.231	451.38
799.487	448.38
799.743	464.38
799.999	484.38
800.255	482.38
800.511	464.38
800.767	519.38
801.023	513.38
801.279	543.38
801.534	581.38
801.79	628.38
802.046	646.38
802.302	788.38
802.557	925.38
802.813	1188.38
803.068	1458.38
803.324	2089.38
803.579	2889.38
803.835	3970.38
804.09	5515.38
804.345	7076.38
804.601	8660.38
804.856	10039.38
805.111	11162.38
805.366	11946.38
805.621	12396.38
805.876	12781.38
806.131	12972.38
806.386	13111.38
806.641	13222.38
806.896	13404.38
807.151	13748.38
807.406	13837.38
807.661	14118.38
807.915	14247.38
808.17	14484.38
808.425	14614.38
808.679	14722.38
808.934	14950.38
809.188	14982.38
809.443	15116.38
809.697	15360.38
809.951	15412.38
810.206	15585.38
810.46	15639.38
810.714	15824.38
810.968	15901.38
811.223	15894.38
811.477	15997.38
811.731	16171.38
811.985	16166.38
812.239	16266.38
812.493	16339.38
812.747	16486.38
813	16423.38
813.254	16522.38
813.508	16614.38
813.762	16595.38
814.015	16675.38
814.269	16828.38
814.522	16997.38
814.776	17150.38
815.03	17338.38
815.283	17514.38
815.536	17759.38
815.79	17972.38
816.043	18301.38
816.296	18405.38
816.55	18531.38
816.803	18749.38
817.056	18925.38
817.309	19084.38
817.562	19213.38
817.815	19387.38
818.068	19454.38
818.321	19738.38
818.574	19982.38
818.827	20293.38
819.079	20423.38
819.332	20844.38
819.585	21094.38
819.838	21293.38
820.09	21480.38
820.343	21758.38
820.595	21707.38
820.848	21833.38
821.1	21860.38
821.353	21854.38
821.605	21839.38
821.857	21832.38
822.11	21701.38
822.362	21707.38
822.614	21659.38
822.866	21781.38
823.118	21676.38
823.37	21843.38
823.622	21945.38
823.874	21886.38
824.126	21981.38
824.378	22011.38
824.63	22083.38
824.882	22091.38
825.134	22129.38
825.385	21978.38
825.637	21975.38
825.888	22069.38
826.14	21888.38
826.392	21747.38
826.643	21671.38
826.895	21651.38
827.146	21521.38
827.397	21618.38
827.649	21537.38
827.9	21500.38
828.151	21528.38
828.402	21478.38
828.653	21619.38
828.905	21607.38
829.156	21649.38
829.407	21612.38
829.658	21568.38
829.909	21507.38
830.159	21391.38
830.41	21286.38
830.661	21307.38
830.912	21164.38
831.162	20996.38
831.413	20921.38
831.664	21011.38
831.914	20960.38
832.165	21003.38
832.415	21042.38
832.666	20914.38
832.916	21002.38
833.167	20882.38
833.417	20875.38
833.667	20780.38
833.917	20736.38
834.168	20712.38
834.418	20627.38
834.668	20551.38
834.918	20369.38
835.168	20444.38
835.418	20324.38
835.668	20300.38
835.918	20301.38
836.167	20231.38
836.417	20136.38
836.667	20137.38
836.917	20110.38
837.166	20014.38
837.416	20005.38
837.666	20012.38
837.915	19835.38
838.165	19850.38
838.414	19643.38
838.663	19619.38
838.913	19652.38
839.162	19461.38
839.411	19420.38
839.661	19402.38
839.91	19423.38
840.159	19338.38
840.408	19348.38
840.657	19404.38
840.906	19304.38
841.155	19405.38
841.404	19292.38
841.653	19314.38
841.902	19211.38
842.15	19309.38
842.399	19223.38
842.648	19200.38
842.897	19089.38
843.145	19041.38
843.394	18992.38
843.642	18820.38
843.891	18830.38
844.139	18727.38
844.388	18553.38
844.636	18612.38
844.884	18567.38
845.133	18406.38
845.381	18435.38
845.629	18429.38
845.877	18358.38
846.125	18347.38
846.373	18384.38
846.621	18155.38
846.869	18206.38
847.117	18109.38
847.365	17975.38
847.613	17846.38
847.861	17882.38
848.108	17902.38
848.356	17791.38
848.604	17687.38
848.851	17708.38
849.099	17829.38
849.346	17807.38
849.594	17835.38
849.841	17855.38
850.089	17832.38
850.336	17861.38
850.583	17934.38
850.831	17785.38
851.078	17713.38
851.325	17551.38
851.572	17437.38
851.819	17361.38
852.066	17086.38
852.313	16901.38
852.56	16807.38
852.807	16742.38
853.054	16639.38
853.301	16723.38
853.548	16667.38
853.794	16868.38
854.041	16808.38
854.288	16895.38
854.534	17048.38
854.781	16951.38
855.028	16879.38
855.274	16831.38
855.52	16682.38
855.767	16622.38
856.013	16555.38
856.26	16749.38
856.506	16375.38
856.752	16369.38
856.998	16304.38
857.244	16350.38
857.49	16517.38
857.736	16375.38
857.982	16505.38
858.228	16501.38
858.474	16323.38
858.72	16280.38
858.966	16161.38
859.212	16051.38
859.458	15889.38
859.703	15676.38
859.949	15489.38
860.195	15441.38
860.44	15260.38
860.686	15220.38
860.931	15259.38
861.177	15192.38
861.422	15095.38
861.667	15030.38
861.913	15124.38
862.158	15167.38
862.403	15196.38
862.648	15204.38
862.893	15252.38
863.138	15106.38
863.384	15112.38
863.629	15034.38
863.873	15088.38
864.118	14932.38
864.363	14859.38
864.608	14711.38
864.853	14721.38
865.098	14549.38
865.342	14571.38
865.587	14458.38
865.832	14483.38
866.076	14488.38
866.321	14409.38
866.565	14355.38
866.81	14276.38
867.054	14208.38
867.298	14173.38
867.543	14193.38
867.787	14208.38
868.031	14207.38
868.275	14115.38
868.519	14097.38
868.764	14083.38
869.008	14023.38
869.252	14066.38
869.496	13890.38
869.739	13940.38
869.983	13890.38
870.227	13805.38
870.471	13741.38
870.715	13739.38
870.958	13872.38
871.202	13835.38
871.446	13811.38
871.689	13799.38
871.933	13780.38
872.176	13888.38
872.42	13779.38
872.663	13720.38
872.906	13759.38
873.15	13629.38
873.393	13469.38
873.636	13484.38
873.879	13356.38
874.122	13302.38
874.366	13043.38
874.609	12952.38
874.852	12994.38
875.095	12886.38
875.337	12763.38
875.58	12688.38
875.823	12735.38
876.066	12663.38
876.309	12790.38
876.551	12618.38
876.794	12492.38
877.037	12501.38
877.279	12465.38
877.522	12582.38
877.764	12589.38
878.007	12540.38
878.249	12612.38
878.491	12526.38
878.734	12545.38
878.976	12445.38
879.218	12406.38
879.46	12364.38
879.702	12158.38
879.945	12158.38
880.187	11931.38
880.429	11996.38
880.671	11933.38
880.912	11808.38
881.154	11803.38
881.396	11718.38
881.638	11769.38
881.88	11702.38
882.121	11676.38
882.363	11619.38
882.605	11726.38
882.846	11682.38
883.088	11577.38
883.329	11553.38
883.571	11518.38
883.812	11410.38
884.053	11574.38
884.295	11584.38
884.536	11690.38
884.777	11633.38
885.018	11515.38
885.259	11519.38
885.5	11447.38
885.742	11568.38
885.982	11364.38
886.223	11259.38
886.464	11226.38
886.705	11214.38
886.946	11233.38
887.187	11021.38
887.428	11022.38
887.668	10868.38
887.909	10844.38
888.15	10699.38
888.39	10701.38
888.631	10628.38
888.871	10532.38
889.111	10553.38
889.352	10439.38
889.592	10374.38
889.833	10284.38
890.073	10210.38
890.313	10131.38
890.553	10027.38
890.793	10038.38
891.033	9982.38
891.273	9913.38
891.513	9858.38
891.753	9909.38
891.993	9876.38
892.233	9854.38
892.473	10001.38
892.713	9884.38
892.952	9819.38
893.192	9918.38
893.432	9849.38
893.671	9803.38
893.911	9687.38
894.15	9670.38
894.39	9569.38
894.629	9573.38
894.869	9560.38
895.108	9347.38
895.347	9355.38
895.587	9299.38
895.826	9309.38
896.065	9260.38
896.304	9301.38
896.543	9249.38
896.782	9162.38
897.021	9138.38
897.26	9096.38
897.499	9097.38
897.738	9141.38
897.977	9002.38
898.216	8984.38
898.454	8910.38
898.693	8839.38
898.932	8810.38
899.17	8711.38
899.409	8667.38
899.647	8636.38
899.886	8626.38
900.124	8675.38
900.363	8645.38
900.601	8645.38
900.839	8590.38
901.078	8640.38
901.316	8604.38
901.554	8602.38
901.792	8622.38
902.03	8558.38
902.268	8530.38
902.506	8606.38
902.744	8478.38
902.982	8553.38
903.22	8355.38
903.458	8327.38
903.695	8237.38
903.933	8264.38
904.171	8002.38
904.409	7971.38
904.646	7848.38
904.884	7768.38
905.121	7807.38
905.359	7657.38
905.596	7703.38
905.833	7526.38
906.071	7521.38
906.308	7574.38
906.545	7514.38
906.783	7487.38
907.02	7499.38
907.257	7419.38
907.494	7463.38
907.731	7447.38
907.968	7318.38
908.205	7325.38
908.442	7239.38
908.679	7211.38
908.915	7263.38
909.152	7110.38
909.389	7076.38
909.626	7073.38
909.862	6975.38
910.099	7030.38
910.335	6972.38
910.572	6798.38
910.808	6875.38
911.045	6864.38
911.281	6835.38
911.518	6884.38
911.754	6780.38
911.99	6822.38
912.226	6666.38
912.463	6599.38
912.699	6582.38
912.935	6541.38
913.171	6448.38
913.407	6434.38
913.643	6438.38
913.879	6349.38
914.114	6314.38
914.35	6208.38
914.586	6161.38
914.822	6039.38
915.057	6172.38
915.293	5944.38
915.529	5971.38
915.764	6031.38
916	6039.38
916.235	6003.38
916.471	5962.38
916.706	5879.38
916.941	5871.38
917.177	5878.38
917.412	5915.38
917.647	5891.38
917.882	5830.38
918.117	5899.38
918.352	5789.38
918.588	5910.38
918.823	5777.38
919.057	5747.38
919.292	5568.38
919.527	5658.38
919.762	5560.38
919.997	5530.38
920.232	5445.38
920.466	5439.38
920.701	5257.38
920.935	5378.38
921.17	5281.38
921.405	5197.38
921.639	5237.38
921.873	5201.38
922.108	5211.38
922.342	5246.38
922.576	5131.38
922.811	5123.38
923.045	5133.38
923.279	5176.38
923.513	5031.38
923.747	5091.38
923.981	5061.38
924.215	4952.38
924.449	4991.38
924.683	4882.38
924.917	4838.38
925.151	4890.38
925.385	4895.38
925.618	4815.38
925.852	4868.38
926.086	4760.38
926.319	4812.38
926.553	4800.38
926.786	4774.38
927.02	4818.38
927.253	4827.38
927.486	4797.38
927.72	4712.38
927.953	4740.38
928.186	4718.38
928.42	4731.38
928.653	4650.38
928.886	4633.38
929.119	4684.38
929.352	4609.38
929.585	4602.38
929.818	4541.38
930.051	4560.38
930.284	4541.38
930.516	4383.38
930.749	4386.38
930.982	4414.38
931.215	4353.38
931.447	4320.38
931.68	4280.38
931.912	4272.38
932.145	4320.38
932.377	4314.38
932.61	4443.38
932.842	4254.38
933.074	4261.38
933.307	4244.38
933.539	4351.38
933.771	4311.38
934.003	4284.38
934.236	4351.38
934.468	4351.38
934.7	4261.38
934.932	4268.38
935.164	4199.38
935.395	4142.38
935.627	4167.38
935.859	4185.38
936.091	4121.38
936.323	4176.38
936.554	4190.38
936.786	4122.38
937.017	4031.38
937.249	4119.38
937.481	4018.38
937.712	4075.38
937.943	4038.38
938.175	3975.38
938.406	4022.38
938.637	4079.38
938.869	3998.38
939.1	4038.38
939.331	3972.38
939.562	3970.38
939.793	3978.38
940.024	4014.38
940.255	4035.38
940.486	3894.38
940.717	3894.38
940.948	3901.38
941.179	3812.38
941.409	3821.38
941.64	3854.38
941.871	3843.38
942.102	3808.38
942.332	3836.38
942.563	3878.38
942.793	3844.38
943.024	3780.38
943.254	3848.38
943.484	3887.38
943.715	3879.38
943.945	3790.38
944.175	3798.38
944.405	3769.38
944.636	3763.38
944.866	3769.38
945.096	3762.38
945.326	3686.38
945.556	3758.38
945.786	3738.38
946.016	3699.38
946.245	3632.38
946.475	3604.38
946.705	3609.38
946.935	3629.38
947.164	3579.38
947.394	3560.38
947.624	3541.38
947.853	3594.38
948.083	3539.38
948.312	3495.38
948.542	3418.38
948.771	3441.38
949	3434.38
949.23	3452.38
949.459	3443.38
949.688	3525.38
949.917	3464.38
950.146	3422.38
950.375	3533.38
950.604	3394.38
950.833	3504.38
951.062	3476.38
951.291	3405.38
951.52	3414.38
951.749	3414.38
951.978	3393.38
952.206	3359.38
952.435	3349.38
952.664	3377.38
952.892	3369.38
953.121	3324.38
953.349	3339.38
953.578	3293.38
953.806	3336.38
954.035	3230.38
954.263	3281.38
954.491	3191.38
954.719	3245.38
954.948	3173.38
955.176	3168.38
955.404	3129.38
955.632	3166.38
955.86	3197.38
956.088	3123.38
956.316	3129.38
956.544	3152.38
956.772	3089.38
956.999	3048.38
957.227	3142.38
957.455	3065.38
957.683	3079.38
957.91	2992.38
958.138	2997.38
958.365	2970.38
958.593	2975.38
958.82	2900.38
959.048	2995.38
959.275	2947.38
959.502	2966.38
959.73	2908.38
959.957	2941.38
960.184	2986.38
960.411	2890.38
960.638	2956.38
960.865	2879.38
961.092	2915.38
961.319	2850.38
961.546	2926.38
961.773	2965.38
962	2867.38
962.227	2931.38
962.454	2858.38
962.68	2864.38
962.907	2859.38
963.134	2829.38
963.36	2804.38
963.587	2875.38
963.813	2769.38
964.04	2798.38
964.266	2724.38
964.493	2819.38
964.719	2744.38
964.945	2796.38
965.171	2670.38
965.398	2689.38
965.624	2712.38
965.85	2666.38
966.076	2655.38
966.302	2710.38
966.528	2659.38
966.754	2671.38
966.98	2631.38
967.206	2630.38
967.431	2584.38
967.657	2651.38
967.883	2627.38
968.109	2616.38
968.334	2537.38
968.56	2534.38
968.785	2559.38
969.011	2526.38
969.236	2619.38
969.462	2533.38
969.687	2555.38
969.912	2572.38
970.138	2582.38
970.363	2510.38
970.588	2469.38
970.813	2480.38
971.038	2475.38
971.263	2512.38
971.488	2506.38
971.713	2502.38
971.938	2479.38
972.163	2374.38
972.388	2415.38
972.613	2418.38
972.838	2398.38
973.062	2413.38
973.287	2348.38
973.512	2312.38
973.736	2359.38
973.961	2349.38
974.185	2317.38
974.41	2340.38
974.634	2241.38
974.858	2251.38
975.083	2294.38
975.307	2319.38
975.531	2238.38
975.755	2187.38
975.98	2202.38
976.204	2137.38
976.428	2146.38
976.652	2154.38
976.876	2142.38
977.1	2128.38
977.324	2142.38
977.547	2178.38
977.771	2185.38
977.995	2151.38
978.219	2093.38
978.442	2180.38
978.666	2131.38
978.89	2119.38
979.113	2134.38
979.337	2082.38
979.56	2077.38
979.783	2179.38
980.007	2035.38
980.23	2078.38
980.453	2031.38
980.677	2084.38
980.9	2038.38
981.123	1954.38
981.346	2060.38
981.569	2030.38
981.792	2047.38
982.015	2024.38
982.238	1967.38
982.461	2008.38
982.684	1938.38
982.907	1897.38
983.129	1944.38
983.352	1949.38
983.575	1924.38
983.797	1959.38
984.02	1919.38
984.242	1884.38
984.465	1898.38
984.687	1909.38
984.91	1952.38
985.132	1918.38
985.354	1951.38
985.577	1872.38
985.799	1875.38
986.021	1801.38
986.243	1833.38
986.465	1849.38
986.687	1887.38
986.909	1898.38
987.131	1866.38
987.353	1820.38
987.575	1862.38
987.797	1797.38
988.019	1754.38
988.241	1788.38
988.462	1766.38
988.684	1828.38
988.906	1849.38
989.127	1847.38
989.349	1749.38
989.57	1767.38
989.792	1810.38
990.013	1815.38
990.234	1801.38
990.456	1831.38
990.677	1816.38
990.898	1762.38
991.119	1767.38
991.341	1785.38
991.562	1695.38
991.783	1732.38
992.004	1699.38
992.225	1647.38
992.446	1715.38
992.667	1626.38
992.887	1715.38
993.108	1605.38
993.329	1740.38
993.55	1696.38
993.77	1610.38
993.991	1593.38
994.212	1639.38
994.432	1646.38
994.653	1645.38
994.873	1662.38
995.093	1533.38
995.314	1582.38
995.534	1626.38
995.754	1662.38
995.975	1689.38
996.195	1568.38
996.415	1614.38
996.635	1580.38
996.855	1603.38
997.075	1568.38
997.295	1561.38
997.515	1546.38
997.735	1599.38
997.955	1574.38
998.174	1533.38
998.394	1526.38
998.614	1570.38
998.834	1531.38
999.053	1602.38
999.273	1544.38
999.492	1604.38
999.712	1540.38
999.931	1505.38
1000.151	1569.38
1000.37	1529.38
1000.589	1603.38
1000.809	1527.38
1001.028	1616.38
1001.247	1579.38
1001.466	1459.38
1001.685	1578.38
1001.904	1520.38
1002.123	1521.38
1002.342	1508.38
1002.561	1504.38
1002.78	1522.38
1002.999	1539.38
1003.218	1505.38
1003.436	1465.38
1003.655	1499.38
1003.874	1447.38
1004.092	1457.38
1004.311	1521.38
1004.53	1510.38
1004.748	1553.38
1004.966	1470.38
1005.185	1530.38
1005.403	1512.38
1005.622	1466.38
1005.84	1537.38
1006.058	1453.38
1006.276	1470.38
1006.494	1814.38
1006.712	1468.38
1006.931	1503.38
1007.149	1423.38
1007.367	1423.38
1007.584	1452.38
1007.802	1479.38
1008.02	1396.38
1008.238	1537.38
1008.456	1516.38
1008.673	1362.38
1008.891	1472.38
1009.109	1435.38
1009.326	1467.38
1009.544	1549.38
1009.761	1430.38
1009.979	1508.38
1010.196	1456.38
1010.413	1548.38
1010.631	1584.38
1010.848	1574.38
1011.065	1559.38
1011.282	1513.38
1011.5	1482.38
1011.717	1581.38
1011.934	1498.38
1012.151	1554.38
1012.368	1516.38
1012.585	1442.38
1012.801	1516.38
1013.018	1472.38
1013.235	1412.38
1013.452	1475.38
1013.669	1444.38
1013.885	1425.38
1014.102	1464.38
1014.318	1448.38
1014.535	1374.38
1014.751	1405.38
1014.968	1413.38
1015.184	1486.38
1015.401	1349.38
1015.617	1402.38
1015.833	1357.38
1016.049	1356.38
1016.266	1342.38
1016.482	1356.38
1016.698	1259.38
1016.914	1332.38
1017.13	1287.38
1017.346	1267.38
1017.562	1337.38
1017.778	1284.38
1017.993	1240.38
1018.209	1326.38
1018.425	1273.38
1018.641	1240.38
1018.856	1225.38
1019.072	1236.38
1019.288	1288.38
1019.503	1260.38
1019.719	1174.38
1019.934	1166.38
1020.149	1277.38
1020.365	1186.38
1020.58	1167.38
1020.795	1190.38
1021.011	1140.38
1021.226	1124.38
1021.441	1155.38
1021.656	1092.38
1021.871	1039.38
1022.086	1060.38
1022.301	1034.38
1022.516	1022.38
1022.731	1116.38
1022.946	1030.38
1023.16	980.38
1023.375	959.38
1023.59	962.38
1023.804	934.38
1024.019	1043.38
1024.234	907.38
1024.448	951.38
1024.663	867.38
1024.877	900.38
1025.092	917.38
1025.306	938.38
1025.52	836.38
1025.734	923.38
1025.949	849.38
1026.163	836.38
1026.377	760.38
1026.591	850.38
1026.805	741.38
1027.019	773.38
1027.233	706.38
1027.447	683.38
1027.661	765.38
1027.875	724.38
1028.088	725.38
1028.302	653.38
1028.516	653.38
1028.73	651.38
1028.943	659.38
1029.157	607.38
1029.37	580.38
1029.584	-1.62
1029.797	-2.62
1030.011	-2.62
1030.224	-2.62
