Data from QEP037381__82__10-49-34-311.txt Node

Date: Fri Apr 28 10:49:34 EDT 2023
User: dcclab
Spectrometer: QEP03738
Trigger mode: 4
Integration Time (sec): 1.000000E1
Scans to average: 1
Electric dark correction enabled: true
Nonlinearity correction enabled: false
Boxcar width: 0
XAxis mode: Wavelengths
Number of Pixels in Spectrum: 1044
>>>>>Begin Spectral Data<<<<<
784.041	11.75
784.3	-0.25
784.558	-0.25
784.817	-4.25
785.075	84995.75
785.334	17614.75
785.592	9286.75
785.851	6563.75
786.109	4967.75
786.368	3861.75
786.626	3083.75
786.884	2545.75
787.143	2131.75
787.401	1752.75
787.659	1544.75
787.917	1330.75
788.175	1211.75
788.433	1056.75
788.691	962.75
788.949	876.75
789.207	800.75
789.465	720.75
789.723	669.75
789.98	610.75
790.238	664.75
790.496	593.75
790.753	586.75
791.011	629.75
791.268	558.75
791.526	543.75
791.783	553.75
792.041	514.75
792.298	447.75
792.556	507.75
792.813	482.75
793.07	453.75
793.327	425.75
793.584	531.75
793.841	434.75
794.099	464.75
794.356	524.75
794.613	409.75
794.869	462.75
795.126	426.75
795.383	393.75
795.64	413.75
795.897	372.75
796.153	431.75
796.41	416.75
796.667	394.75
796.923	397.75
797.18	401.75
797.436	431.75
797.693	390.75
797.949	447.75
798.206	471.75
798.462	381.75
798.718	446.75
798.974	409.75
799.231	453.75
799.487	421.75
799.743	447.75
799.999	467.75
800.255	455.75
800.511	428.75
800.767	475.75
801.023	461.75
801.279	476.75
801.534	513.75
801.79	537.75
802.046	552.75
802.302	655.75
802.557	705.75
802.813	886.75
803.068	1017.75
803.324	1401.75
803.579	1877.75
803.835	2507.75
804.09	3296.75
804.345	4118.75
804.601	4968.75
804.856	5701.75
805.111	6321.75
805.366	6645.75
805.621	6956.75
805.876	7218.75
806.131	7297.75
806.386	7466.75
806.641	7524.75
806.896	7626.75
807.151	7748.75
807.406	7795.75
807.661	7956.75
807.915	8093.75
808.17	8177.75
808.425	8273.75
808.679	8313.75
808.934	8434.75
809.188	8441.75
809.443	8568.75
809.697	8785.75
809.951	8729.75
810.206	8782.75
810.46	8922.75
810.714	8990.75
810.968	9105.75
811.223	9216.75
811.477	9246.75
811.731	9414.75
811.985	9263.75
812.239	9274.75
812.493	9260.75
812.747	9382.75
813	9361.75
813.254	9426.75
813.508	9555.75
813.762	9409.75
814.015	9495.75
814.269	9583.75
814.522	9616.75
814.776	9638.75
815.03	9781.75
815.283	9871.75
815.536	10041.75
815.79	10221.75
816.043	10322.75
816.296	10458.75
816.55	10517.75
816.803	10677.75
817.056	10881.75
817.309	10968.75
817.562	11050.75
817.815	11124.75
818.068	11137.75
818.321	11217.75
818.574	11365.75
818.827	11568.75
819.079	11675.75
819.332	12068.75
819.585	12268.75
819.838	12429.75
820.09	12244.75
820.343	12288.75
820.595	12298.75
820.848	12356.75
821.1	12524.75
821.353	12465.75
821.605	12440.75
821.857	12378.75
822.11	12313.75
822.362	12226.75
822.614	12236.75
822.866	12298.75
823.118	12378.75
823.37	12510.75
823.622	12622.75
823.874	12718.75
824.126	12715.75
824.378	12534.75
824.63	12685.75
824.882	12590.75
825.134	12536.75
825.385	12509.75
825.637	12420.75
825.888	12434.75
826.14	12275.75
826.392	12274.75
826.643	12208.75
826.895	12114.75
827.146	12036.75
827.397	11991.75
827.649	12090.75
827.9	11982.75
828.151	11988.75
828.402	12075.75
828.653	12076.75
828.905	12111.75
829.156	12203.75
829.407	12218.75
829.658	12349.75
829.909	12687.75
830.159	12820.75
830.41	12696.75
830.661	12416.75
830.912	12268.75
831.162	12289.75
831.413	12209.75
831.664	12373.75
831.914	12218.75
832.165	12197.75
832.415	12193.75
832.666	12170.75
832.916	12191.75
833.167	12225.75
833.417	12184.75
833.667	12130.75
833.917	12065.75
834.168	12038.75
834.418	12007.75
834.668	12002.75
834.918	11930.75
835.168	11905.75
835.418	11741.75
835.668	11797.75
835.918	11729.75
836.167	11695.75
836.417	11630.75
836.667	11680.75
836.917	11736.75
837.166	11783.75
837.416	11885.75
837.666	11895.75
837.915	11857.75
838.165	11853.75
838.414	11818.75
838.663	11761.75
838.913	11842.75
839.162	11873.75
839.411	11912.75
839.661	11827.75
839.91	11919.75
840.159	11880.75
840.408	11964.75
840.657	11903.75
840.906	11916.75
841.155	11878.75
841.404	11806.75
841.653	11889.75
841.902	11896.75
842.15	12074.75
842.399	12207.75
842.648	12183.75
842.897	12126.75
843.145	11998.75
843.394	11903.75
843.642	11754.75
843.891	11726.75
844.139	11516.75
844.388	11360.75
844.636	11183.75
844.884	11378.75
845.133	11464.75
845.381	11471.75
845.629	11447.75
845.877	11441.75
846.125	11457.75
846.373	11407.75
846.621	11261.75
846.869	11308.75
847.117	11138.75
847.365	11151.75
847.613	11173.75
847.861	11175.75
848.108	11299.75
848.356	11336.75
848.604	11221.75
848.851	11215.75
849.099	11228.75
849.346	11202.75
849.594	11253.75
849.841	11253.75
850.089	11247.75
850.336	11287.75
850.583	11336.75
850.831	11220.75
851.078	11274.75
851.325	11327.75
851.572	11609.75
851.819	11430.75
852.066	11064.75
852.313	10931.75
852.56	10664.75
852.807	10719.75
853.054	10771.75
853.301	10781.75
853.548	10864.75
853.794	10962.75
854.041	10963.75
854.288	11014.75
854.534	11171.75
854.781	11136.75
855.028	11241.75
855.274	11366.75
855.52	11532.75
855.767	11715.75
856.013	11947.75
856.26	12214.75
856.506	11529.75
856.752	11294.75
856.998	11325.75
857.244	11353.75
857.49	11499.75
857.736	11588.75
857.982	11525.75
858.228	11359.75
858.474	11051.75
858.72	10939.75
858.966	10793.75
859.212	10750.75
859.458	10589.75
859.703	10497.75
859.949	10344.75
860.195	10363.75
860.44	10375.75
860.686	10416.75
860.931	10549.75
861.177	10291.75
861.422	10072.75
861.667	9864.75
861.913	9808.75
862.158	9788.75
862.403	9778.75
862.648	9801.75
862.893	9808.75
863.138	9722.75
863.384	9724.75
863.629	9757.75
863.873	9654.75
864.118	9697.75
864.363	9630.75
864.608	9585.75
864.853	9596.75
865.098	9411.75
865.342	9442.75
865.587	9390.75
865.832	9371.75
866.076	9420.75
866.321	9337.75
866.565	9320.75
866.81	9310.75
867.054	9294.75
867.298	9263.75
867.543	9229.75
867.787	9363.75
868.031	9336.75
868.275	9277.75
868.519	9317.75
868.764	9289.75
869.008	9311.75
869.252	9374.75
869.496	9413.75
869.739	9439.75
869.983	9610.75
870.227	9684.75
870.471	9679.75
870.715	9845.75
870.958	9935.75
871.202	9943.75
871.446	9982.75
871.689	10007.75
871.933	9977.75
872.176	9930.75
872.42	10024.75
872.663	9975.75
872.906	10230.75
873.15	10600.75
873.393	10914.75
873.636	10968.75
873.879	10705.75
874.122	10326.75
874.366	9956.75
874.609	9706.75
874.852	9521.75
875.095	9324.75
875.337	9168.75
875.58	9046.75
875.823	9000.75
876.066	9069.75
876.309	9091.75
876.551	8907.75
876.794	8790.75
877.037	8800.75
877.279	8712.75
877.522	8706.75
877.764	8689.75
878.007	8589.75
878.249	8624.75
878.491	8555.75
878.734	8505.75
878.976	8419.75
879.218	8363.75
879.46	8348.75
879.702	8319.75
879.945	8166.75
880.187	7950.75
880.429	7942.75
880.671	7920.75
880.912	7806.75
881.154	7850.75
881.396	7788.75
881.638	7826.75
881.88	7831.75
882.121	7821.75
882.363	7909.75
882.605	7969.75
882.846	8039.75
883.088	8177.75
883.329	8370.75
883.571	8839.75
883.812	9510.75
884.053	10414.75
884.295	11297.75
884.536	11521.75
884.777	11280.75
885.018	10961.75
885.259	10671.75
885.5	10384.75
885.742	10458.75
885.982	10188.75
886.223	9987.75
886.464	9747.75
886.705	9430.75
886.946	9089.75
887.187	8600.75
887.428	8289.75
887.668	7903.75
887.909	7599.75
888.15	7415.75
888.39	7294.75
888.631	7200.75
888.871	7107.75
889.111	6971.75
889.352	6841.75
889.592	6774.75
889.833	6727.75
890.073	6613.75
890.313	6653.75
890.553	6504.75
890.793	6461.75
891.033	6491.75
891.273	6406.75
891.513	6387.75
891.753	6442.75
891.993	6388.75
892.233	6403.75
892.473	6468.75
892.713	6447.75
892.952	6381.75
893.192	6405.75
893.432	6374.75
893.671	6378.75
893.911	6375.75
894.15	6346.75
894.39	6165.75
894.629	6247.75
894.869	6157.75
895.108	6172.75
895.347	6161.75
895.587	6176.75
895.826	6101.75
896.065	6112.75
896.304	6085.75
896.543	6150.75
896.782	6035.75
897.021	6093.75
897.26	6090.75
897.499	6214.75
897.738	6209.75
897.977	6067.75
898.216	6075.75
898.454	6038.75
898.693	5967.75
898.932	6037.75
899.17	5932.75
899.409	5988.75
899.647	6000.75
899.886	6022.75
900.124	6059.75
900.363	6034.75
900.601	6177.75
900.839	6296.75
901.078	6393.75
901.316	6503.75
901.554	6707.75
901.792	6795.75
902.03	6860.75
902.268	6836.75
902.506	6799.75
902.744	6739.75
902.982	6730.75
903.22	6438.75
903.458	6246.75
903.695	6035.75
903.933	5831.75
904.171	5605.75
904.409	5492.75
904.646	5395.75
904.884	5327.75
905.121	5267.75
905.359	5122.75
905.596	5064.75
905.833	5046.75
906.071	5033.75
906.308	5093.75
906.545	5013.75
906.783	4915.75
907.02	4961.75
907.257	4918.75
907.494	4912.75
907.731	4974.75
907.968	4906.75
908.205	4872.75
908.442	4774.75
908.679	4788.75
908.915	4713.75
909.152	4748.75
909.389	4636.75
909.626	4632.75
909.862	4566.75
910.099	4544.75
910.335	4599.75
910.572	4436.75
910.808	4518.75
911.045	4479.75
911.281	4446.75
911.518	4492.75
911.754	4352.75
911.99	4366.75
912.226	4363.75
912.463	4295.75
912.699	4248.75
912.935	4279.75
913.171	4212.75
913.407	4168.75
913.643	4176.75
913.879	4108.75
914.114	4073.75
914.35	4068.75
914.586	4044.75
914.822	3966.75
915.057	4036.75
915.293	3931.75
915.529	3889.75
915.764	3946.75
916	3929.75
916.235	3894.75
916.471	3916.75
916.706	3857.75
916.941	3905.75
917.177	3840.75
917.412	3891.75
917.647	3883.75
917.882	3851.75
918.117	3901.75
918.352	3844.75
918.588	3875.75
918.823	3792.75
919.057	3773.75
919.292	3635.75
919.527	3777.75
919.762	3652.75
919.997	3678.75
920.232	3599.75
920.466	3619.75
920.701	3481.75
920.935	3528.75
921.17	3472.75
921.405	3470.75
921.639	3520.75
921.873	3462.75
922.108	3498.75
922.342	3453.75
922.576	3431.75
922.811	3391.75
923.045	3414.75
923.279	3457.75
923.513	3298.75
923.747	3391.75
923.981	3384.75
924.215	3373.75
924.449	3278.75
924.683	3249.75
924.917	3285.75
925.151	3236.75
925.385	3357.75
925.618	3297.75
925.852	3242.75
926.086	3188.75
926.319	3214.75
926.553	3224.75
926.786	3267.75
927.02	3191.75
927.253	3221.75
927.486	3250.75
927.72	3193.75
927.953	3245.75
928.186	3177.75
928.42	3225.75
928.653	3138.75
928.886	3125.75
929.119	3145.75
929.352	3110.75
929.585	3109.75
929.818	3053.75
930.051	3052.75
930.284	3045.75
930.516	2956.75
930.749	3007.75
930.982	3007.75
931.215	2956.75
931.447	2928.75
931.68	2944.75
931.912	2934.75
932.145	2937.75
932.377	2966.75
932.61	3091.75
932.842	2857.75
933.074	2953.75
933.307	2915.75
933.539	2970.75
933.771	2993.75
934.003	2943.75
934.236	3007.75
934.468	3013.75
934.7	2930.75
934.932	2981.75
935.164	2869.75
935.395	2873.75
935.627	2919.75
935.859	2913.75
936.091	2817.75
936.323	2899.75
936.554	2908.75
936.786	2852.75
937.017	2777.75
937.249	2889.75
937.481	2784.75
937.712	2853.75
937.943	2825.75
938.175	2811.75
938.406	2808.75
938.637	2876.75
938.869	2771.75
939.1	2810.75
939.331	2740.75
939.562	2781.75
939.793	2744.75
940.024	2772.75
940.255	2804.75
940.486	2722.75
940.717	2714.75
940.948	2732.75
941.179	2705.75
941.409	2713.75
941.64	2729.75
941.871	2708.75
942.102	2681.75
942.332	2676.75
942.563	2718.75
942.793	2756.75
943.024	2677.75
943.254	2684.75
943.484	2697.75
943.715	2717.75
943.945	2732.75
944.175	2652.75
944.405	2635.75
944.636	2659.75
944.866	2675.75
945.096	2670.75
945.326	2600.75
945.556	2668.75
945.786	2710.75
946.016	2627.75
946.245	2568.75
946.475	2622.75
946.705	2588.75
946.935	2582.75
947.164	2600.75
947.394	2579.75
947.624	2589.75
947.853	2569.75
948.083	2545.75
948.312	2536.75
948.542	2458.75
948.771	2466.75
949	2461.75
949.23	2478.75
949.459	2474.75
949.688	2549.75
949.917	2466.75
950.146	2487.75
950.375	2538.75
950.604	2409.75
950.833	2548.75
951.062	2504.75
951.291	2441.75
951.52	2428.75
951.749	2448.75
951.978	2401.75
952.206	2424.75
952.435	2394.75
952.664	2442.75
952.892	2452.75
953.121	2409.75
953.349	2463.75
953.578	2426.75
953.806	2434.75
954.035	2351.75
954.263	2382.75
954.491	2307.75
954.719	2333.75
954.948	2281.75
955.176	2318.75
955.404	2230.75
955.632	2303.75
955.86	2327.75
956.088	2274.75
956.316	2284.75
956.544	2330.75
956.772	2251.75
956.999	2222.75
957.227	2288.75
957.455	2211.75
957.683	2246.75
957.91	2163.75
958.138	2193.75
958.365	2177.75
958.593	2195.75
958.82	2187.75
959.048	2190.75
959.275	2156.75
959.502	2162.75
959.73	2144.75
959.957	2141.75
960.184	2182.75
960.411	2115.75
960.638	2184.75
960.865	2190.75
961.092	2157.75
961.319	2090.75
961.546	2183.75
961.773	2187.75
962	2106.75
962.227	2163.75
962.454	2107.75
962.68	2099.75
962.907	2144.75
963.134	2076.75
963.36	2112.75
963.587	2114.75
963.813	2008.75
964.04	2076.75
964.266	2031.75
964.493	2076.75
964.719	2060.75
964.945	2087.75
965.171	1961.75
965.398	2030.75
965.624	2062.75
965.85	1970.75
966.076	1963.75
966.302	2038.75
966.528	1976.75
966.754	1985.75
966.98	2017.75
967.206	1942.75
967.431	1926.75
967.657	2022.75
967.883	1935.75
968.109	1952.75
968.334	1914.75
968.56	1911.75
968.785	1920.75
969.011	1894.75
969.236	1961.75
969.462	1879.75
969.687	1907.75
969.912	1946.75
970.138	2000.75
970.363	1887.75
970.588	1918.75
970.813	1872.75
971.038	1860.75
971.263	1899.75
971.488	1904.75
971.713	1918.75
971.938	1903.75
972.163	1796.75
972.388	1833.75
972.613	1823.75
972.838	1813.75
973.062	1807.75
973.287	1837.75
973.512	1745.75
973.736	1785.75
973.961	1791.75
974.185	1779.75
974.41	1804.75
974.634	1711.75
974.858	1706.75
975.083	1752.75
975.307	1808.75
975.531	1719.75
975.755	1685.75
975.98	1695.75
976.204	1629.75
976.428	1635.75
976.652	1684.75
976.876	1620.75
977.1	1655.75
977.324	1653.75
977.547	1679.75
977.771	1660.75
977.995	1658.75
978.219	1581.75
978.442	1734.75
978.666	1669.75
978.89	1654.75
979.113	1641.75
979.337	1653.75
979.56	1605.75
979.783	1702.75
980.007	1592.75
980.23	1592.75
980.453	1605.75
980.677	1633.75
980.9	1652.75
981.123	1517.75
981.346	1599.75
981.569	1603.75
981.792	1611.75
982.015	1591.75
982.238	1574.75
982.461	1565.75
982.684	1535.75
982.907	1547.75
983.129	1557.75
983.352	1586.75
983.575	1538.75
983.797	1552.75
984.02	1530.75
984.242	1524.75
984.465	1548.75
984.687	1588.75
984.91	1602.75
985.132	1548.75
985.354	1579.75
985.577	1540.75
985.799	1542.75
986.021	1467.75
986.243	1510.75
986.465	1532.75
986.687	1552.75
986.909	1611.75
987.131	1544.75
987.353	1519.75
987.575	1538.75
987.797	1485.75
988.019	1440.75
988.241	1520.75
988.462	1471.75
988.684	1525.75
988.906	1553.75
989.127	1586.75
989.349	1457.75
989.57	1505.75
989.792	1563.75
990.013	1592.75
990.234	1573.75
990.456	1595.75
990.677	1556.75
990.898	1529.75
991.119	1519.75
991.341	1567.75
991.562	1475.75
991.783	1526.75
992.004	1435.75
992.225	1449.75
992.446	1485.75
992.667	1452.75
992.887	1514.75
993.108	1421.75
993.329	1515.75
993.55	1477.75
993.77	1395.75
993.991	1431.75
994.212	1450.75
994.432	1455.75
994.653	1476.75
994.873	1473.75
995.093	1373.75
995.314	1411.75
995.534	1501.75
995.754	1516.75
995.975	1564.75
996.195	1457.75
996.415	1523.75
996.635	1475.75
996.855	1552.75
997.075	1505.75
997.295	1528.75
997.515	1511.75
997.735	1573.75
997.955	1539.75
998.174	1521.75
998.394	1510.75
998.614	1571.75
998.834	1479.75
999.053	1598.75
999.273	1536.75
999.492	1556.75
999.712	1484.75
999.931	1446.75
1000.151	1513.75
1000.37	1460.75
1000.589	1505.75
1000.809	1408.75
1001.028	1523.75
1001.247	1471.75
1001.466	1357.75
1001.685	1513.75
1001.904	1430.75
1002.123	1415.75
1002.342	1424.75
1002.561	1381.75
1002.78	1401.75
1002.999	1467.75
1003.218	1393.75
1003.436	1382.75
1003.655	1428.75
1003.874	1370.75
1004.092	1418.75
1004.311	1475.75
1004.53	1443.75
1004.748	1480.75
1004.966	1411.75
1005.185	1483.75
1005.403	1468.75
1005.622	1451.75
1005.84	1551.75
1006.058	1450.75
1006.276	1500.75
1006.494	1862.75
1006.712	1516.75
1006.931	1616.75
1007.149	1512.75
1007.367	1544.75
1007.584	1604.75
1007.802	1691.75
1008.02	1672.75
1008.238	1799.75
1008.456	1841.75
1008.673	1764.75
1008.891	1981.75
1009.109	1964.75
1009.326	2119.75
1009.544	2303.75
1009.761	2346.75
1009.979	2575.75
1010.196	2789.75
1010.413	3069.75
1010.631	3292.75
1010.848	3417.75
1011.065	3531.75
1011.282	3449.75
1011.5	3353.75
1011.717	3433.75
1011.934	3393.75
1012.151	3384.75
1012.368	3343.75
1012.585	3294.75
1012.801	3371.75
1013.018	3354.75
1013.235	3341.75
1013.452	3355.75
1013.669	3454.75
1013.885	3435.75
1014.102	3531.75
1014.318	3584.75
1014.535	3562.75
1014.751	3498.75
1014.968	3434.75
1015.184	3437.75
1015.401	3286.75
1015.617	3264.75
1015.833	3212.75
1016.049	3158.75
1016.266	3086.75
1016.482	3068.75
1016.698	2938.75
1016.914	2968.75
1017.13	2880.75
1017.346	2855.75
1017.562	2875.75
1017.778	2776.75
1017.993	2762.75
1018.209	2767.75
1018.425	2745.75
1018.641	2724.75
1018.856	2700.75
1019.072	2745.75
1019.288	2724.75
1019.503	2678.75
1019.719	2579.75
1019.934	2571.75
1020.149	2612.75
1020.365	2482.75
1020.58	2371.75
1020.795	2361.75
1021.011	2247.75
1021.226	2166.75
1021.441	2108.75
1021.656	2022.75
1021.871	1929.75
1022.086	1906.75
1022.301	1866.75
1022.516	1838.75
1022.731	1818.75
1022.946	1729.75
1023.16	1687.75
1023.375	1623.75
1023.59	1575.75
1023.804	1521.75
1024.019	1592.75
1024.234	1426.75
1024.448	1433.75
1024.663	1283.75
1024.877	1299.75
1025.092	1295.75
1025.306	1284.75
1025.52	1150.75
1025.734	1248.75
1025.949	1147.75
1026.163	1086.75
1026.377	1022.75
1026.591	1053.75
1026.805	971.75
1027.019	969.75
1027.233	929.75
1027.447	878.75
1027.661	991.75
1027.875	902.75
1028.088	906.75
1028.302	813.75
1028.516	800.75
1028.73	780.75
1028.943	765.75
1029.157	700.75
1029.37	670.75
1029.584	-1.25
1029.797	-2.25
1030.011	-1.25
1030.224	-2.25
