Data from QEP037381__34__14-34-23-471.txt Node

Date: Wed Dec 21 14:34:23 EST 2022
User: dcclab
Spectrometer: QEP03738
Trigger mode: 4
Integration Time (sec): 1.000000E1
Scans to average: 1
Electric dark correction enabled: true
Nonlinearity correction enabled: false
Boxcar width: 0
XAxis mode: Wavelengths
Number of Pixels in Spectrum: 1044
>>>>>Begin Spectral Data<<<<<
784.041	11
784.3	-2
784.558	-4
784.817	-1
785.075	103492
785.334	16420
785.592	7177
785.851	4897
786.109	3715
786.368	2905
786.626	2325
786.884	1954
787.143	1638
787.401	1355
787.659	1231
787.917	1070
788.175	993
788.433	860
788.691	766
788.949	717
789.207	707
789.465	600
789.723	592
789.98	535
790.238	570
790.496	545
790.753	529
791.011	568
791.268	502
791.526	487
791.783	508
792.041	484
792.298	404
792.556	473
792.813	442
793.07	426
793.327	425
793.584	484
793.841	428
794.099	449
794.356	511
794.613	424
794.869	443
795.126	400
795.383	391
795.64	413
795.897	367
796.153	428
796.41	403
796.667	391
796.923	398
797.18	396
797.436	412
797.693	385
797.949	433
798.206	472
798.462	375
798.718	437
798.974	398
799.231	440
799.487	423
799.743	436
799.999	452
800.255	446
800.511	419
800.767	454
801.023	441
801.279	468
801.534	493
801.79	516
802.046	508
802.302	602
802.557	660
802.813	764
803.068	868
803.324	1175
803.579	1495
803.835	1982
804.09	2652
804.345	3404
804.601	4301
804.856	5142
805.111	5932
805.366	6478
805.621	6895
805.876	7283
806.131	7465
806.386	7600
806.641	7734
806.896	7845
807.151	8006
807.406	8114
807.661	8310
807.915	8467
808.17	8571
808.425	8703
808.679	8800
808.934	8965
809.188	8956
809.443	9070
809.697	9249
809.951	9290
810.206	9332
810.46	9480
810.714	9550
810.968	9699
811.223	9672
811.477	9862
811.731	9874
811.985	9892
812.239	9877
812.493	9997
812.747	10015
813	10037
813.254	10169
813.508	10264
813.762	10275
814.015	10323
814.269	10358
814.522	10462
814.776	10674
815.03	10794
815.283	10858
815.536	11111
815.79	11333
816.043	11408
816.296	11588
816.55	11704
816.803	11889
817.056	12136
817.309	12226
817.562	12303
817.815	12417
818.068	12497
818.321	12678
818.574	12772
818.827	13041
819.079	13069
819.332	13452
819.585	13566
819.838	13857
820.09	13825
820.343	13927
820.595	13884
820.848	14092
821.1	14156
821.353	14105
821.605	14118
821.857	14108
822.11	14005
822.362	14038
822.614	13940
822.866	14074
823.118	13917
823.37	14060
823.622	14150
823.874	14186
824.126	14334
824.378	14294
824.63	14297
824.882	14382
825.134	14284
825.385	14250
825.637	14209
825.888	14236
826.14	14165
826.392	14029
826.643	14104
826.895	14100
827.146	13945
827.397	13874
827.649	13952
827.9	13876
828.151	13887
828.402	13882
828.653	14005
828.905	14107
829.156	14045
829.407	14139
829.658	14164
829.909	14200
830.159	14251
830.41	14118
830.661	14113
830.912	13977
831.162	13936
831.413	14045
831.664	14110
831.914	14018
832.165	13968
832.415	14021
832.666	13890
832.916	13963
833.167	13908
833.417	14004
833.667	14009
833.917	13934
834.168	13868
834.418	13939
834.668	13806
834.918	13773
835.168	13689
835.418	13572
835.668	13652
835.918	13541
836.167	13550
836.417	13496
836.667	13516
836.917	13474
837.166	13474
837.416	13461
837.666	13540
837.915	13481
838.165	13461
838.414	13356
838.663	13403
838.913	13542
839.162	13483
839.411	13477
839.661	13418
839.91	13480
840.159	13421
840.408	13478
840.657	13493
840.906	13449
841.155	13583
841.404	13548
841.653	13503
841.902	13438
842.15	13535
842.399	13591
842.648	13566
842.897	13580
843.145	13394
843.394	13377
843.642	13302
843.891	13264
844.139	13110
844.388	12993
844.636	12925
844.884	13000
845.133	12907
845.381	12835
845.629	13059
845.877	12926
846.125	13062
846.373	13024
846.621	12943
846.869	12967
847.117	12783
847.365	12744
847.613	12689
847.861	12642
848.108	12748
848.356	12706
848.604	12696
848.851	12788
849.099	12814
849.346	12784
849.594	12884
849.841	12930
850.089	12973
850.336	12968
850.583	13112
850.831	13094
851.078	13134
851.325	13098
851.572	13371
851.819	13047
852.066	12685
852.313	12281
852.56	12155
852.807	12062
853.054	12183
853.301	12116
853.548	12193
853.794	12393
854.041	12372
854.288	12319
854.534	12544
854.781	12484
855.028	12458
855.274	12470
855.52	12386
855.767	12408
856.013	12457
856.26	12751
856.506	12352
856.752	12292
856.998	12177
857.244	12228
857.49	12393
857.736	12445
857.982	12482
858.228	12322
858.474	12248
858.72	12162
858.966	12028
859.212	11881
859.458	11719
859.703	11551
859.949	11428
860.195	11397
860.44	11355
860.686	11406
860.931	11464
861.177	11403
861.422	11292
861.667	11170
861.913	11115
862.158	11143
862.403	11237
862.648	11293
862.893	11288
863.138	11252
863.384	11124
863.629	11244
863.873	11220
864.118	11166
864.363	11097
864.608	11158
864.853	11076
865.098	10998
865.342	10996
865.587	10900
865.832	10958
866.076	11002
866.321	10933
866.565	10914
866.81	10805
867.054	10860
867.298	10821
867.543	10753
867.787	10798
868.031	10821
868.275	10784
868.519	10772
868.764	10675
869.008	10692
869.252	10751
869.496	10780
869.739	10896
869.983	10924
870.227	10892
870.471	10846
870.715	10996
870.958	11048
871.202	11097
871.446	11126
871.689	11093
871.933	11026
872.176	11049
872.42	10971
872.663	10974
872.906	10957
873.15	10960
873.393	10955
873.636	10993
873.879	10892
874.122	10818
874.366	10623
874.609	10519
874.852	10396
875.095	10360
875.337	10243
875.58	10178
875.823	10196
876.066	10149
876.309	10213
876.551	10135
876.794	10016
877.037	10084
877.279	9957
877.522	9955
877.764	9889
878.007	9833
878.249	9890
878.491	9752
878.734	9819
878.976	9752
879.218	9658
879.46	9616
879.702	9573
879.945	9505
880.187	9361
880.429	9325
880.671	9249
880.912	9382
881.154	9310
881.396	9177
881.638	9331
881.88	9340
882.121	9193
882.363	9244
882.605	9263
882.846	9234
883.088	9352
883.329	9335
883.571	9414
883.812	9640
884.053	9847
884.295	10271
884.536	10498
884.777	10382
885.018	10373
885.259	10319
885.5	10203
885.742	10414
885.982	10078
886.223	9945
886.464	9854
886.705	9690
886.946	9484
887.187	9217
887.428	9172
887.668	8916
887.909	8734
888.15	8631
888.39	8529
888.631	8498
888.871	8427
889.111	8323
889.352	8261
889.592	8197
889.833	8065
890.073	8037
890.313	8071
890.553	7863
890.793	7883
891.033	7884
891.273	7861
891.513	7805
891.753	7881
891.993	7761
892.233	7820
892.473	7872
892.713	7868
892.952	7832
893.192	7909
893.432	7845
893.671	7911
893.911	7806
894.15	7864
894.39	7722
894.629	7702
894.869	7743
895.108	7632
895.347	7652
895.587	7694
895.826	7564
896.065	7586
896.304	7583
896.543	7626
896.782	7528
897.021	7630
897.26	7580
897.499	7653
897.738	7737
897.977	7551
898.216	7556
898.454	7437
898.693	7476
898.932	7462
899.17	7418
899.409	7411
899.647	7422
899.886	7368
900.124	7482
900.363	7517
900.601	7498
900.839	7548
901.078	7618
901.316	7783
901.554	7804
901.792	7900
902.03	7949
902.268	7937
902.506	8004
902.744	7883
902.982	7808
903.22	7540
903.458	7425
903.695	7220
903.933	7118
904.171	6925
904.409	6820
904.646	6733
904.884	6607
905.121	6552
905.359	6490
905.596	6392
905.833	6247
906.071	6273
906.308	6280
906.545	6226
906.783	6110
907.02	6180
907.257	6089
907.494	6111
907.731	6039
907.968	6060
908.205	6041
908.442	5964
908.679	5957
908.915	5933
909.152	5889
909.389	5780
909.626	5752
909.862	5705
910.099	5706
910.335	5700
910.572	5609
910.808	5619
911.045	5576
911.281	5565
911.518	5606
911.754	5515
911.99	5532
912.226	5423
912.463	5382
912.699	5346
912.935	5312
913.171	5308
913.407	5216
913.643	5281
913.879	5137
914.114	5142
914.35	5098
914.586	5074
914.822	4991
915.057	5049
915.293	4926
915.529	4925
915.764	5013
916	4969
916.235	4933
916.471	4924
916.706	4788
916.941	4837
917.177	4831
917.412	4882
917.647	4896
917.882	4836
918.117	4878
918.352	4836
918.588	4892
918.823	4761
919.057	4726
919.292	4638
919.527	4717
919.762	4614
919.997	4619
920.232	4556
920.466	4550
920.701	4425
920.935	4484
921.17	4412
921.405	4364
921.639	4454
921.873	4377
922.108	4396
922.342	4389
922.576	4292
922.811	4250
923.045	4354
923.279	4296
923.513	4213
923.747	4274
923.981	4226
924.215	4181
924.449	4178
924.683	4137
924.917	4148
925.151	4104
925.385	4200
925.618	4110
925.852	4082
926.086	4049
926.319	4071
926.553	4068
926.786	4095
927.02	4099
927.253	4141
927.486	4088
927.72	4031
927.953	4048
928.186	4045
928.42	4058
928.653	3984
928.886	3932
929.119	3992
929.352	3992
929.585	3931
929.818	3928
930.051	3873
930.284	3890
930.516	3752
930.749	3763
930.982	3799
931.215	3849
931.447	3717
931.68	3727
931.912	3708
932.145	3697
932.377	3778
932.61	3888
932.842	3701
933.074	3740
933.307	3730
933.539	3802
933.771	3805
934.003	3725
934.236	3791
934.468	3819
934.7	3705
934.932	3737
935.164	3723
935.395	3654
935.627	3695
935.859	3704
936.091	3624
936.323	3660
936.554	3702
936.786	3609
937.017	3591
937.249	3649
937.481	3545
937.712	3636
937.943	3557
938.175	3583
938.406	3571
938.637	3616
938.869	3531
939.1	3572
939.331	3520
939.562	3573
939.793	3531
940.024	3571
940.255	3540
940.486	3506
940.717	3457
940.948	3450
941.179	3429
941.409	3436
941.64	3461
941.871	3472
942.102	3423
942.332	3438
942.563	3484
942.793	3490
943.024	3391
943.254	3436
943.484	3472
943.715	3448
943.945	3482
944.175	3397
944.405	3357
944.636	3333
944.866	3399
945.096	3424
945.326	3397
945.556	3431
945.786	3425
946.016	3339
946.245	3270
946.475	3298
946.705	3237
946.935	3329
947.164	3244
947.394	3216
947.624	3225
947.853	3276
948.083	3251
948.312	3199
948.542	3114
948.771	3124
949	3129
949.23	3135
949.459	3161
949.688	3214
949.917	3161
950.146	3171
950.375	3231
950.604	3092
950.833	3188
951.062	3192
951.291	3125
951.52	3086
951.749	3091
951.978	3041
952.206	3073
952.435	3055
952.664	3076
952.892	3112
953.121	3055
953.349	3079
953.578	3090
953.806	3048
954.035	2942
954.263	3031
954.491	2988
954.719	2948
954.948	2967
955.176	2926
955.404	2852
955.632	2919
955.86	2891
956.088	2942
956.316	2925
956.544	2948
956.772	2824
956.999	2844
957.227	2905
957.455	2821
957.683	2827
957.91	2785
958.138	2773
958.365	2773
958.593	2760
958.82	2708
959.048	2803
959.275	2734
959.502	2775
959.73	2711
959.957	2742
960.184	2787
960.411	2730
960.638	2790
960.865	2724
961.092	2744
961.319	2656
961.546	2760
961.773	2722
962	2697
962.227	2736
962.454	2687
962.68	2666
962.907	2650
963.134	2624
963.36	2673
963.587	2656
963.813	2619
964.04	2623
964.266	2541
964.493	2638
964.719	2597
964.945	2643
965.171	2506
965.398	2595
965.624	2589
965.85	2504
966.076	2482
966.302	2545
966.528	2489
966.754	2508
966.98	2530
967.206	2500
967.431	2416
967.657	2531
967.883	2477
968.109	2438
968.334	2384
968.56	2407
968.785	2440
969.011	2375
969.236	2451
969.462	2382
969.687	2397
969.912	2411
970.138	2420
970.363	2355
970.588	2383
970.813	2350
971.038	2334
971.263	2382
971.488	2371
971.713	2352
971.938	2378
972.163	2273
972.388	2314
972.613	2281
972.838	2314
973.062	2279
973.287	2237
973.512	2215
973.736	2246
973.961	2225
974.185	2171
974.41	2258
974.634	2155
974.858	2155
975.083	2227
975.307	2194
975.531	2160
975.755	2118
975.98	2092
976.204	2032
976.428	2078
976.652	2080
976.876	2028
977.1	2094
977.324	2036
977.547	2080
977.771	2084
977.995	2058
978.219	1989
978.442	2100
978.666	2086
978.89	2035
979.113	2040
979.337	2024
979.56	2001
979.783	2093
980.007	1942
980.23	1996
980.453	1957
980.677	2000
980.9	2001
981.123	1935
981.346	2001
981.569	1985
981.792	1995
982.015	1972
982.238	1921
982.461	1947
982.684	1925
982.907	1869
983.129	1872
983.352	1926
983.575	1933
983.797	1895
984.02	1847
984.242	1862
984.465	1879
984.687	1884
984.91	1912
985.132	1856
985.354	1905
985.577	1868
985.799	1849
986.021	1771
986.243	1821
986.465	1824
986.687	1871
986.909	1893
987.131	1852
987.353	1801
987.575	1832
987.797	1789
988.019	1708
988.241	1775
988.462	1757
988.684	1776
988.906	1823
989.127	1869
989.349	1721
989.57	1780
989.792	1820
990.013	1776
990.234	1803
990.456	1844
990.677	1795
990.898	1783
991.119	1740
991.341	1795
991.562	1718
991.783	1780
992.004	1694
992.225	1679
992.446	1744
992.667	1617
992.887	1715
993.108	1628
993.329	1752
993.55	1670
993.77	1649
993.991	1627
994.212	1687
994.432	1647
994.653	1679
994.873	1643
995.093	1521
995.314	1596
995.534	1677
995.754	1680
995.975	1709
996.195	1600
996.415	1683
996.635	1622
996.855	1632
997.075	1613
997.295	1620
997.515	1594
997.735	1663
997.955	1648
998.174	1643
998.394	1597
998.614	1639
998.834	1589
999.053	1660
999.273	1647
999.492	1679
999.712	1628
999.931	1581
1000.151	1624
1000.37	1588
1000.589	1606
1000.809	1568
1001.028	1692
1001.247	1609
1001.466	1491
1001.685	1613
1001.904	1595
1002.123	1539
1002.342	1551
1002.561	1529
1002.78	1546
1002.999	1599
1003.218	1551
1003.436	1508
1003.655	1538
1003.874	1522
1004.092	1538
1004.311	1585
1004.53	1511
1004.748	1606
1004.966	1525
1005.185	1594
1005.403	1567
1005.622	1536
1005.84	1609
1006.058	1533
1006.276	1564
1006.494	2040
1006.712	1563
1006.931	1607
1007.149	1526
1007.367	1560
1007.584	1566
1007.802	1630
1008.02	1599
1008.238	1704
1008.456	1705
1008.673	1587
1008.891	1723
1009.109	1685
1009.326	1739
1009.544	1866
1009.761	1798
1009.979	1900
1010.196	1982
1010.413	2105
1010.631	2207
1010.848	2280
1011.065	2304
1011.282	2282
1011.5	2211
1011.717	2337
1011.934	2266
1012.151	2299
1012.368	2272
1012.585	2192
1012.801	2272
1013.018	2268
1013.235	2253
1013.452	2303
1013.669	2300
1013.885	2288
1014.102	2337
1014.318	2295
1014.535	2255
1014.751	2284
1014.968	2304
1015.184	2285
1015.401	2204
1015.617	2264
1015.833	2202
1016.049	2173
1016.266	2169
1016.482	2156
1016.698	2106
1016.914	2130
1017.13	2086
1017.346	2090
1017.562	2169
1017.778	2056
1017.993	2043
1018.209	2132
1018.425	2085
1018.641	2059
1018.856	2029
1019.072	2066
1019.288	2121
1019.503	2070
1019.719	1987
1019.934	1961
1020.149	2044
1020.365	1978
1020.58	1914
1020.795	1934
1021.011	1833
1021.226	1813
1021.441	1795
1021.656	1712
1021.871	1654
1022.086	1631
1022.301	1615
1022.516	1568
1022.731	1627
1022.946	1503
1023.16	1490
1023.375	1438
1023.59	1421
1023.804	1385
1024.019	1459
1024.234	1327
1024.448	1342
1024.663	1257
1024.877	1271
1025.092	1269
1025.306	1288
1025.52	1135
1025.734	1219
1025.949	1132
1026.163	1097
1026.377	1043
1026.591	1075
1026.805	1009
1027.019	991
1027.233	947
1027.447	906
1027.661	986
1027.875	932
1028.088	941
1028.302	874
1028.516	821
1028.73	853
1028.943	807
1029.157	778
1029.37	712
1029.584	-1
1029.797	-1
1030.011	-2
1030.224	0
