Data from QEP037381__37__14-34-53-471.txt Node

Date: Wed Dec 21 14:34:53 EST 2022
User: dcclab
Spectrometer: QEP03738
Trigger mode: 4
Integration Time (sec): 1.000000E1
Scans to average: 1
Electric dark correction enabled: true
Nonlinearity correction enabled: false
Boxcar width: 0
XAxis mode: Wavelengths
Number of Pixels in Spectrum: 1044
>>>>>Begin Spectral Data<<<<<
784.041	12.12
784.3	1.12
784.558	-2.88
784.817	-4.88
785.075	91005.12
785.334	15564.12
785.592	7213.12
785.851	4991.12
786.109	3732.12
786.368	2944.12
786.626	2349.12
786.884	1939.12
787.143	1690.12
787.401	1401.12
787.659	1263.12
787.917	1069.12
788.175	1012.12
788.433	878.12
788.691	776.12
788.949	714.12
789.207	701.12
789.465	616.12
789.723	598.12
789.98	528.12
790.238	573.12
790.496	538.12
790.753	517.12
791.011	560.12
791.268	493.12
791.526	497.12
791.783	513.12
792.041	475.12
792.298	382.12
792.556	460.12
792.813	441.12
793.07	433.12
793.327	418.12
793.584	498.12
793.841	401.12
794.099	434.12
794.356	489.12
794.613	381.12
794.869	447.12
795.126	391.12
795.383	382.12
795.64	402.12
795.897	346.12
796.153	411.12
796.41	408.12
796.667	378.12
796.923	392.12
797.18	381.12
797.436	427.12
797.693	377.12
797.949	445.12
798.206	453.12
798.462	357.12
798.718	427.12
798.974	397.12
799.231	436.12
799.487	431.12
799.743	440.12
799.999	463.12
800.255	447.12
800.511	416.12
800.767	457.12
801.023	436.12
801.279	471.12
801.534	487.12
801.79	491.12
802.046	520.12
802.302	602.12
802.557	623.12
802.813	736.12
803.068	818.12
803.324	1097.12
803.579	1406.12
803.835	1883.12
804.09	2620.12
804.345	3363.12
804.601	4210.12
804.856	5162.12
805.111	5930.12
805.366	6537.12
805.621	6968.12
805.876	7349.12
806.131	7519.12
806.386	7598.12
806.641	7721.12
806.896	7905.12
807.151	8082.12
807.406	8178.12
807.661	8404.12
807.915	8571.12
808.17	8674.12
808.425	8752.12
808.679	8887.12
808.934	8964.12
809.188	9015.12
809.443	9199.12
809.697	9331.12
809.951	9346.12
810.206	9462.12
810.46	9641.12
810.714	9698.12
810.968	9780.12
811.223	9718.12
811.477	9933.12
811.731	10042.12
811.985	10074.12
812.239	10082.12
812.493	10136.12
812.747	10172.12
813	10178.12
813.254	10334.12
813.508	10455.12
813.762	10415.12
814.015	10489.12
814.269	10564.12
814.522	10691.12
814.776	10757.12
815.03	11026.12
815.283	11157.12
815.536	11321.12
815.79	11499.12
816.043	11617.12
816.296	11782.12
816.55	12001.12
816.803	12150.12
817.056	12407.12
817.309	12447.12
817.562	12599.12
817.815	12710.12
818.068	12825.12
818.321	12985.12
818.574	13094.12
818.827	13366.12
819.079	13460.12
819.332	13877.12
819.585	13911.12
819.838	14190.12
820.09	14255.12
820.343	14442.12
820.595	14371.12
820.848	14585.12
821.1	14617.12
821.353	14510.12
821.605	14568.12
821.857	14607.12
822.11	14448.12
822.362	14411.12
822.614	14457.12
822.866	14494.12
823.118	14454.12
823.37	14639.12
823.622	14611.12
823.874	14697.12
824.126	14793.12
824.378	14703.12
824.63	14824.12
824.882	14899.12
825.134	14840.12
825.385	14804.12
825.637	14820.12
825.888	14768.12
826.14	14811.12
826.392	14604.12
826.643	14603.12
826.895	14613.12
827.146	14512.12
827.397	14608.12
827.649	14644.12
827.9	14532.12
828.151	14535.12
828.402	14525.12
828.653	14674.12
828.905	14664.12
829.156	14735.12
829.407	14704.12
829.658	14767.12
829.909	14872.12
830.159	14843.12
830.41	14826.12
830.661	14697.12
830.912	14626.12
831.162	14591.12
831.413	14639.12
831.664	14628.12
831.914	14640.12
832.165	14607.12
832.415	14569.12
832.666	14640.12
832.916	14594.12
833.167	14716.12
833.417	14708.12
833.667	14703.12
833.917	14610.12
834.168	14515.12
834.418	14579.12
834.668	14519.12
834.918	14418.12
835.168	14392.12
835.418	14367.12
835.668	14279.12
835.918	14356.12
836.167	14349.12
836.417	14232.12
836.667	14290.12
836.917	14292.12
837.166	14323.12
837.416	14302.12
837.666	14329.12
837.915	14260.12
838.165	14203.12
838.414	14085.12
838.663	14113.12
838.913	14158.12
839.162	14204.12
839.411	14231.12
839.661	14162.12
839.91	14181.12
840.159	14078.12
840.408	14159.12
840.657	14146.12
840.906	14152.12
841.155	14220.12
841.404	14203.12
841.653	14241.12
841.902	14215.12
842.15	14277.12
842.399	14325.12
842.648	14325.12
842.897	14206.12
843.145	14207.12
843.394	14086.12
843.642	14003.12
843.891	13999.12
844.139	13846.12
844.388	13801.12
844.636	13697.12
844.884	13760.12
845.133	13715.12
845.381	13786.12
845.629	13766.12
845.877	13739.12
846.125	13686.12
846.373	13850.12
846.621	13720.12
846.869	13656.12
847.117	13650.12
847.365	13537.12
847.613	13441.12
847.861	13596.12
848.108	13528.12
848.356	13492.12
848.604	13431.12
848.851	13521.12
849.099	13579.12
849.346	13666.12
849.594	13638.12
849.841	13722.12
850.089	13852.12
850.336	13919.12
850.583	14039.12
850.831	13962.12
851.078	13967.12
851.325	13991.12
851.572	14159.12
851.819	13891.12
852.066	13472.12
852.313	13233.12
852.56	13098.12
852.807	12986.12
853.054	13071.12
853.301	12975.12
853.548	13093.12
853.794	13304.12
854.041	13245.12
854.288	13359.12
854.534	13429.12
854.781	13357.12
855.028	13265.12
855.274	13412.12
855.52	13262.12
855.767	13223.12
856.013	13252.12
856.26	13615.12
856.506	13167.12
856.752	13120.12
856.998	13138.12
857.244	13062.12
857.49	13208.12
857.736	13167.12
857.982	13228.12
858.228	13254.12
858.474	13175.12
858.72	13007.12
858.966	12909.12
859.212	12846.12
859.458	12623.12
859.703	12506.12
859.949	12434.12
860.195	12437.12
860.44	12360.12
860.686	12283.12
860.931	12293.12
861.177	12224.12
861.422	12154.12
861.667	12176.12
861.913	12092.12
862.158	12098.12
862.403	12238.12
862.648	12210.12
862.893	12281.12
863.138	12244.12
863.384	12227.12
863.629	12254.12
863.873	12242.12
864.118	12124.12
864.363	12203.12
864.608	12163.12
864.853	12154.12
865.098	12075.12
865.342	12063.12
865.587	11983.12
865.832	12038.12
866.076	11995.12
866.321	11931.12
866.565	11993.12
866.81	11911.12
867.054	11808.12
867.298	11783.12
867.543	11827.12
867.787	11844.12
868.031	11830.12
868.275	11838.12
868.519	11805.12
868.764	11735.12
869.008	11807.12
869.252	11797.12
869.496	11777.12
869.739	11738.12
869.983	11802.12
870.227	11831.12
870.471	11835.12
870.715	11954.12
870.958	11992.12
871.202	11939.12
871.446	11974.12
871.689	11979.12
871.933	11989.12
872.176	12008.12
872.42	11967.12
872.663	11910.12
872.906	11993.12
873.15	11881.12
873.393	11882.12
873.636	11925.12
873.879	11877.12
874.122	11672.12
874.366	11483.12
874.609	11431.12
874.852	11353.12
875.095	11289.12
875.337	11253.12
875.58	11181.12
875.823	11261.12
876.066	11235.12
876.309	11133.12
876.551	10997.12
876.794	10917.12
877.037	11081.12
877.279	10903.12
877.522	10923.12
877.764	10957.12
878.007	10956.12
878.249	10948.12
878.491	10895.12
878.734	10976.12
878.976	10965.12
879.218	10821.12
879.46	10781.12
879.702	10762.12
879.945	10562.12
880.187	10534.12
880.429	10471.12
880.671	10413.12
880.912	10396.12
881.154	10371.12
881.396	10306.12
881.638	10372.12
881.88	10380.12
882.121	10348.12
882.363	10382.12
882.605	10349.12
882.846	10298.12
883.088	10417.12
883.329	10309.12
883.571	10518.12
883.812	10445.12
884.053	10795.12
884.295	11058.12
884.536	11201.12
884.777	11268.12
885.018	11095.12
885.259	11059.12
885.5	11062.12
885.742	11253.12
885.982	10898.12
886.223	10808.12
886.464	10721.12
886.705	10601.12
886.946	10529.12
887.187	10336.12
887.428	10161.12
887.668	9999.12
887.909	9863.12
888.15	9784.12
888.39	9781.12
888.631	9675.12
888.871	9574.12
889.111	9514.12
889.352	9440.12
889.592	9321.12
889.833	9292.12
890.073	9205.12
890.313	9225.12
890.553	9091.12
890.793	9105.12
891.033	9075.12
891.273	9040.12
891.513	9048.12
891.753	9064.12
891.993	9028.12
892.233	9128.12
892.473	9145.12
892.713	9137.12
892.952	9011.12
893.192	9145.12
893.432	9079.12
893.671	9159.12
893.911	9069.12
894.15	9049.12
894.39	8944.12
894.629	8940.12
894.869	8917.12
895.108	8881.12
895.347	8817.12
895.587	8797.12
895.826	8788.12
896.065	8884.12
896.304	8860.12
896.543	8873.12
896.782	8822.12
897.021	8814.12
897.26	8807.12
897.499	8893.12
897.738	8894.12
897.977	8760.12
898.216	8755.12
898.454	8668.12
898.693	8577.12
898.932	8618.12
899.17	8561.12
899.409	8562.12
899.647	8578.12
899.886	8577.12
900.124	8691.12
900.363	8648.12
900.601	8776.12
900.839	8753.12
901.078	8726.12
901.316	8763.12
901.554	8855.12
901.792	8958.12
902.03	8973.12
902.268	9016.12
902.506	9036.12
902.744	8900.12
902.982	8861.12
903.22	8610.12
903.458	8507.12
903.695	8384.12
903.933	8245.12
904.171	8150.12
904.409	7935.12
904.646	7859.12
904.884	7655.12
905.121	7630.12
905.359	7557.12
905.596	7479.12
905.833	7332.12
906.071	7265.12
906.308	7323.12
906.545	7324.12
906.783	7251.12
907.02	7296.12
907.257	7192.12
907.494	7279.12
907.731	7184.12
907.968	7209.12
908.205	7081.12
908.442	7114.12
908.679	7050.12
908.915	7015.12
909.152	6991.12
909.389	6825.12
909.626	6810.12
909.862	6746.12
910.099	6819.12
910.335	6760.12
910.572	6649.12
910.808	6738.12
911.045	6693.12
911.281	6604.12
911.518	6668.12
911.754	6611.12
911.99	6614.12
912.226	6526.12
912.463	6368.12
912.699	6466.12
912.935	6409.12
913.171	6322.12
913.407	6307.12
913.643	6301.12
913.879	6268.12
914.114	6146.12
914.35	6081.12
914.586	6036.12
914.822	6034.12
915.057	6085.12
915.293	5900.12
915.529	5909.12
915.764	5988.12
916	5999.12
916.235	5913.12
916.471	5860.12
916.706	5832.12
916.941	5858.12
917.177	5841.12
917.412	5853.12
917.647	5851.12
917.882	5819.12
918.117	5844.12
918.352	5831.12
918.588	5909.12
918.823	5736.12
919.057	5766.12
919.292	5596.12
919.527	5677.12
919.762	5558.12
919.997	5585.12
920.232	5469.12
920.466	5527.12
920.701	5359.12
920.935	5373.12
921.17	5386.12
921.405	5295.12
921.639	5343.12
921.873	5249.12
922.108	5289.12
922.342	5283.12
922.576	5219.12
922.811	5223.12
923.045	5232.12
923.279	5257.12
923.513	5141.12
923.747	5164.12
923.981	5130.12
924.215	5058.12
924.449	5116.12
924.683	4993.12
924.917	5035.12
925.151	5035.12
925.385	5047.12
925.618	4948.12
925.852	4959.12
926.086	4920.12
926.319	4963.12
926.553	4942.12
926.786	4971.12
927.02	4932.12
927.253	5014.12
927.486	5000.12
927.72	4852.12
927.953	5003.12
928.186	4891.12
928.42	4906.12
928.653	4856.12
928.886	4825.12
929.119	4862.12
929.352	4878.12
929.585	4864.12
929.818	5181.12
930.051	4974.12
930.284	4759.12
930.516	4635.12
930.749	4586.12
930.982	4665.12
931.215	4658.12
931.447	4536.12
931.68	4597.12
931.912	4564.12
932.145	4577.12
932.377	4594.12
932.61	4739.12
932.842	4560.12
933.074	4597.12
933.307	4532.12
933.539	4649.12
933.771	4651.12
934.003	4606.12
934.236	4725.12
934.468	4634.12
934.7	4555.12
934.932	4623.12
935.164	4558.12
935.395	4503.12
935.627	4510.12
935.859	4561.12
936.091	4480.12
936.323	4543.12
936.554	4543.12
936.786	4465.12
937.017	4420.12
937.249	4463.12
937.481	4415.12
937.712	4453.12
937.943	4422.12
938.175	4387.12
938.406	4418.12
938.637	4484.12
938.869	4344.12
939.1	4440.12
939.331	4359.12
939.562	4382.12
939.793	4401.12
940.024	4404.12
940.255	4410.12
940.486	4338.12
940.717	4347.12
940.948	4324.12
941.179	4252.12
941.409	4243.12
941.64	4249.12
941.871	4294.12
942.102	4254.12
942.332	4272.12
942.563	4304.12
942.793	4321.12
943.024	4237.12
943.254	4271.12
943.484	4336.12
943.715	4324.12
943.945	4297.12
944.175	4187.12
944.405	4189.12
944.636	4247.12
944.866	4183.12
945.096	4248.12
945.326	4173.12
945.556	4245.12
945.786	4209.12
946.016	4204.12
946.245	4112.12
946.475	4129.12
946.705	4141.12
946.935	4091.12
947.164	4052.12
947.394	3997.12
947.624	4059.12
947.853	4046.12
948.083	4037.12
948.312	3983.12
948.542	3941.12
948.771	3926.12
949	3918.12
949.23	3922.12
949.459	3965.12
949.688	4025.12
949.917	3954.12
950.146	3968.12
950.375	3958.12
950.604	3852.12
950.833	3974.12
951.062	3948.12
951.291	3898.12
951.52	3892.12
951.749	3910.12
951.978	3847.12
952.206	3873.12
952.435	3864.12
952.664	3900.12
952.892	3881.12
953.121	3848.12
953.349	3870.12
953.578	3797.12
953.806	3767.12
954.035	3744.12
954.263	3797.12
954.491	3709.12
954.719	3757.12
954.948	3708.12
955.176	3706.12
955.404	3626.12
955.632	3678.12
955.86	3665.12
956.088	3669.12
956.316	3686.12
956.544	3667.12
956.772	3620.12
956.999	3615.12
957.227	3642.12
957.455	3577.12
957.683	3595.12
957.91	3531.12
958.138	3501.12
958.365	3486.12
958.593	3485.12
958.82	3433.12
959.048	3474.12
959.275	3467.12
959.502	3414.12
959.73	3438.12
959.957	3451.12
960.184	3517.12
960.411	3472.12
960.638	3458.12
960.865	3431.12
961.092	3471.12
961.319	3340.12
961.546	3464.12
961.773	3478.12
962	3394.12
962.227	3435.12
962.454	3395.12
962.68	3408.12
962.907	3388.12
963.134	3345.12
963.36	3372.12
963.587	3400.12
963.813	3239.12
964.04	3358.12
964.266	3250.12
964.493	3298.12
964.719	3315.12
964.945	3279.12
965.171	3216.12
965.398	3249.12
965.624	3250.12
965.85	3167.12
966.076	3132.12
966.302	3207.12
966.528	3171.12
966.754	3152.12
966.98	3174.12
967.206	3140.12
967.431	3085.12
967.657	3160.12
967.883	3098.12
968.109	3077.12
968.334	3068.12
968.56	3025.12
968.785	3057.12
969.011	3013.12
969.236	3075.12
969.462	3010.12
969.687	3031.12
969.912	3082.12
970.138	3059.12
970.363	3003.12
970.588	3044.12
970.813	3002.12
971.038	2947.12
971.263	2993.12
971.488	3004.12
971.713	3009.12
971.938	2984.12
972.163	2876.12
972.388	2893.12
972.613	2910.12
972.838	2908.12
973.062	2889.12
973.287	2920.12
973.512	2869.12
973.736	2865.12
973.961	2822.12
974.185	2797.12
974.41	2839.12
974.634	2702.12
974.858	2725.12
975.083	2775.12
975.307	2815.12
975.531	2725.12
975.755	2684.12
975.98	2722.12
976.204	2614.12
976.428	2633.12
976.652	2599.12
976.876	2626.12
977.1	2633.12
977.324	2604.12
977.547	2655.12
977.771	2637.12
977.995	2617.12
978.219	2583.12
978.442	2702.12
978.666	2583.12
978.89	2570.12
979.113	2586.12
979.337	2577.12
979.56	2532.12
979.783	2595.12
980.007	2482.12
980.23	2544.12
980.453	2503.12
980.677	2551.12
980.9	2550.12
981.123	2470.12
981.346	2517.12
981.569	2544.12
981.792	2500.12
982.015	2447.12
982.238	2466.12
982.461	2470.12
982.684	2458.12
982.907	2406.12
983.129	2377.12
983.352	2424.12
983.575	2401.12
983.797	2409.12
984.02	2356.12
984.242	2308.12
984.465	2360.12
984.687	2347.12
984.91	2385.12
985.132	2307.12
985.354	2390.12
985.577	2342.12
985.799	2340.12
986.021	2254.12
986.243	2267.12
986.465	2302.12
986.687	2336.12
986.909	2316.12
987.131	2271.12
987.353	2248.12
987.575	2288.12
987.797	2259.12
988.019	2217.12
988.241	2234.12
988.462	2200.12
988.684	2254.12
988.906	2255.12
989.127	2309.12
989.349	2181.12
989.57	2232.12
989.792	2250.12
990.013	2262.12
990.234	2257.12
990.456	2306.12
990.677	2236.12
990.898	2187.12
991.119	2193.12
991.341	2241.12
991.562	2125.12
991.783	2184.12
992.004	2141.12
992.225	2044.12
992.446	2131.12
992.667	2080.12
992.887	2106.12
993.108	2027.12
993.329	2171.12
993.55	2092.12
993.77	2028.12
993.991	2030.12
994.212	2087.12
994.432	2004.12
994.653	2054.12
994.873	2044.12
995.093	1909.12
995.314	1970.12
995.534	2058.12
995.754	2087.12
995.975	2064.12
996.195	1930.12
996.415	2028.12
996.635	2014.12
996.855	1981.12
997.075	1998.12
997.295	1977.12
997.515	1967.12
997.735	2014.12
997.955	1996.12
998.174	1982.12
998.394	1963.12
998.614	2011.12
998.834	1944.12
999.053	2002.12
999.273	1986.12
999.492	2018.12
999.712	1957.12
999.931	1898.12
1000.151	1975.12
1000.37	1935.12
1000.589	1978.12
1000.809	1904.12
1001.028	2034.12
1001.247	1951.12
1001.466	1821.12
1001.685	1994.12
1001.904	1927.12
1002.123	1935.12
1002.342	1886.12
1002.561	1854.12
1002.78	1867.12
1002.999	1924.12
1003.218	1906.12
1003.436	1857.12
1003.655	1877.12
1003.874	1796.12
1004.092	1849.12
1004.311	1868.12
1004.53	1840.12
1004.748	1923.12
1004.966	1831.12
1005.185	1883.12
1005.403	1899.12
1005.622	1876.12
1005.84	1929.12
1006.058	1816.12
1006.276	1853.12
1006.494	2371.12
1006.712	1819.12
1006.931	1883.12
1007.149	1830.12
1007.367	1822.12
1007.584	1861.12
1007.802	1915.12
1008.02	1869.12
1008.238	1980.12
1008.456	2009.12
1008.673	1860.12
1008.891	1983.12
1009.109	1968.12
1009.326	1989.12
1009.544	2114.12
1009.761	2040.12
1009.979	2150.12
1010.196	2208.12
1010.413	2316.12
1010.631	2434.12
1010.848	2474.12
1011.065	2492.12
1011.282	2480.12
1011.5	2440.12
1011.717	2547.12
1011.934	2467.12
1012.151	2491.12
1012.368	2452.12
1012.585	2419.12
1012.801	2461.12
1013.018	2437.12
1013.235	2412.12
1013.452	2471.12
1013.669	2451.12
1013.885	2431.12
1014.102	2471.12
1014.318	2470.12
1014.535	2415.12
1014.751	2443.12
1014.968	2476.12
1015.184	2467.12
1015.401	2409.12
1015.617	2409.12
1015.833	2358.12
1016.049	2318.12
1016.266	2307.12
1016.482	2290.12
1016.698	2260.12
1016.914	2302.12
1017.13	2243.12
1017.346	2265.12
1017.562	2329.12
1017.778	2252.12
1017.993	2195.12
1018.209	2266.12
1018.425	2241.12
1018.641	2238.12
1018.856	2172.12
1019.072	2232.12
1019.288	2294.12
1019.503	2221.12
1019.719	2159.12
1019.934	2150.12
1020.149	2224.12
1020.365	2153.12
1020.58	2087.12
1020.795	2092.12
1021.011	2038.12
1021.226	1979.12
1021.441	1965.12
1021.656	1865.12
1021.871	1826.12
1022.086	1795.12
1022.301	1776.12
1022.516	1766.12
1022.731	1816.12
1022.946	1709.12
1023.16	1667.12
1023.375	1662.12
1023.59	1603.12
1023.804	1547.12
1024.019	1615.12
1024.234	1518.12
1024.448	1535.12
1024.663	1438.12
1024.877	1436.12
1025.092	1439.12
1025.306	1438.12
1025.52	1317.12
1025.734	1397.12
1025.949	1327.12
1026.163	1279.12
1026.377	1232.12
1026.591	1256.12
1026.805	1170.12
1027.019	1163.12
1027.233	1102.12
1027.447	1067.12
1027.661	1155.12
1027.875	1109.12
1028.088	1111.12
1028.302	1022.12
1028.516	989.12
1028.73	1004.12
1028.943	953.12
1029.157	907.12
1029.37	852.12
1029.584	-2.88
1029.797	0.12
1030.011	-1.88
1030.224	-0.88
