Data from QEP037381__57__14-45-25-877.txt Node

Date: Wed Dec 21 14:45:25 EST 2022
User: dcclab
Spectrometer: QEP03738
Trigger mode: 4
Integration Time (sec): 1.000000E1
Scans to average: 1
Electric dark correction enabled: true
Nonlinearity correction enabled: false
Boxcar width: 0
XAxis mode: Wavelengths
Number of Pixels in Spectrum: 1044
>>>>>Begin Spectral Data<<<<<
784.041	10.12
784.3	5.12
784.558	-5.88
784.817	-0.88
785.075	101713.12
785.334	18015.12
785.592	8456.12
785.851	5841.12
786.109	4381.12
786.368	3384.12
786.626	2753.12
786.884	2276.12
787.143	1906.12
787.401	1554.12
787.659	1459.12
787.917	1247.12
788.175	1133.12
788.433	982.12
788.691	913.12
788.949	816.12
789.207	768.12
789.465	675.12
789.723	651.12
789.98	606.12
790.238	644.12
790.496	601.12
790.753	569.12
791.011	617.12
791.268	561.12
791.526	532.12
791.783	548.12
792.041	514.12
792.298	448.12
792.556	514.12
792.813	489.12
793.07	470.12
793.327	457.12
793.584	541.12
793.841	450.12
794.099	483.12
794.356	523.12
794.613	431.12
794.869	461.12
795.126	431.12
795.383	413.12
795.64	438.12
795.897	388.12
796.153	454.12
796.41	427.12
796.667	424.12
796.923	421.12
797.18	432.12
797.436	460.12
797.693	398.12
797.949	477.12
798.206	486.12
798.462	414.12
798.718	481.12
798.974	451.12
799.231	500.12
799.487	465.12
799.743	487.12
799.999	506.12
800.255	528.12
800.511	503.12
800.767	537.12
801.023	545.12
801.279	563.12
801.534	602.12
801.79	658.12
802.046	681.12
802.302	806.12
802.557	910.12
802.813	1159.12
803.068	1398.12
803.324	1925.12
803.579	2602.12
803.835	3627.12
804.09	4953.12
804.345	6502.12
804.601	8208.12
804.856	10066.12
805.111	11688.12
805.366	12820.12
805.621	13798.12
805.876	14468.12
806.131	14911.12
806.386	15135.12
806.641	15398.12
806.896	15648.12
807.151	16004.12
807.406	16207.12
807.661	16530.12
807.915	16734.12
808.17	16983.12
808.425	17186.12
808.679	17250.12
808.934	17517.12
809.188	17618.12
809.443	17832.12
809.697	18023.12
809.951	18075.12
810.206	18274.12
810.46	18404.12
810.714	18479.12
810.968	18660.12
811.223	18894.12
811.477	19006.12
811.731	19108.12
811.985	19183.12
812.239	19301.12
812.493	19343.12
812.747	19442.12
813	19363.12
813.254	19412.12
813.508	19620.12
813.762	19674.12
814.015	19874.12
814.269	19875.12
814.522	20105.12
814.776	20348.12
815.03	20475.12
815.283	20807.12
815.536	21087.12
815.79	21467.12
816.043	21763.12
816.296	21995.12
816.55	22272.12
816.803	22450.12
817.056	22756.12
817.309	22836.12
817.562	23256.12
817.815	23284.12
818.068	23447.12
818.321	23694.12
818.574	23996.12
818.827	24295.12
819.079	24489.12
819.332	25036.12
819.585	25417.12
819.838	25614.12
820.09	25635.12
820.343	25890.12
820.595	25927.12
820.848	26169.12
821.1	26193.12
821.353	26152.12
821.605	26076.12
821.857	26021.12
822.11	26138.12
822.362	25948.12
822.614	26011.12
822.866	26007.12
823.118	25945.12
823.37	26043.12
823.622	26140.12
823.874	26109.12
824.126	26228.12
824.378	26235.12
824.63	26335.12
824.882	26337.12
825.134	26153.12
825.385	26276.12
825.637	26189.12
825.888	26167.12
826.14	26102.12
826.392	25932.12
826.643	25711.12
826.895	25659.12
827.146	25639.12
827.397	25479.12
827.649	25646.12
827.9	25416.12
828.151	25550.12
828.402	25579.12
828.653	25703.12
828.905	25661.12
829.156	25643.12
829.407	25594.12
829.658	25641.12
829.909	25844.12
830.159	25899.12
830.41	25584.12
830.661	25467.12
830.912	25358.12
831.162	25239.12
831.413	25124.12
831.664	25068.12
831.914	25136.12
832.165	25042.12
832.415	25060.12
832.666	25024.12
832.916	25161.12
833.167	24986.12
833.417	24949.12
833.667	24923.12
833.917	24848.12
834.168	24743.12
834.418	24670.12
834.668	24594.12
834.918	24425.12
835.168	24360.12
835.418	24258.12
835.668	24157.12
835.918	24094.12
836.167	23989.12
836.417	24014.12
836.667	24000.12
836.917	24012.12
837.166	23968.12
837.416	23985.12
837.666	23921.12
837.915	23879.12
838.165	23842.12
838.414	23680.12
838.663	23611.12
838.913	23588.12
839.162	23621.12
839.411	23618.12
839.661	23418.12
839.91	23378.12
840.159	23412.12
840.408	23432.12
840.657	23450.12
840.906	23315.12
841.155	23336.12
841.404	23208.12
841.653	23269.12
841.902	23297.12
842.15	23348.12
842.399	23438.12
842.648	23346.12
842.897	23269.12
843.145	23005.12
843.394	22944.12
843.642	22779.12
843.891	22741.12
844.139	22606.12
844.388	22423.12
844.636	22321.12
844.884	22289.12
845.133	22332.12
845.381	22244.12
845.629	22312.12
845.877	22245.12
846.125	22187.12
846.373	22268.12
846.621	22127.12
846.869	21918.12
847.117	21902.12
847.365	21701.12
847.613	21684.12
847.861	21508.12
848.108	21553.12
848.356	21440.12
848.604	21429.12
848.851	21486.12
849.099	21413.12
849.346	21571.12
849.594	21610.12
849.841	21728.12
850.089	21684.12
850.336	21747.12
850.583	21806.12
850.831	21687.12
851.078	21500.12
851.325	21480.12
851.572	21560.12
851.819	21160.12
852.066	20850.12
852.313	20619.12
852.56	20487.12
852.807	20334.12
853.054	20259.12
853.301	20274.12
853.548	20313.12
853.794	20373.12
854.041	20494.12
854.288	20419.12
854.534	20603.12
854.781	20682.12
855.028	20531.12
855.274	20609.12
855.52	20377.12
855.767	20252.12
856.013	20362.12
856.26	20605.12
856.506	20188.12
856.752	20066.12
856.998	20038.12
857.244	20190.12
857.49	20255.12
857.736	20318.12
857.982	20288.12
858.228	20163.12
858.474	19960.12
858.72	19726.12
858.966	19671.12
859.212	19526.12
859.458	19285.12
859.703	19075.12
859.949	18911.12
860.195	18848.12
860.44	18722.12
860.686	18587.12
860.931	18732.12
861.177	18495.12
861.422	18442.12
861.667	18446.12
861.913	18307.12
862.158	18317.12
862.403	18388.12
862.648	18442.12
862.893	18389.12
863.138	18335.12
863.384	18366.12
863.629	18329.12
863.873	18319.12
864.118	18241.12
864.363	18123.12
864.608	18128.12
864.853	18032.12
865.098	17931.12
865.342	17817.12
865.587	17696.12
865.832	17789.12
866.076	17713.12
866.321	17568.12
866.565	17532.12
866.81	17400.12
867.054	17465.12
867.298	17409.12
867.543	17342.12
867.787	17316.12
868.031	17268.12
868.275	17230.12
868.519	17125.12
868.764	17059.12
869.008	17069.12
869.252	17116.12
869.496	16985.12
869.739	17012.12
869.983	16964.12
870.227	16979.12
870.471	16897.12
870.715	17030.12
870.958	17079.12
871.202	17041.12
871.446	17071.12
871.689	16998.12
871.933	17037.12
872.176	17088.12
872.42	16960.12
872.663	16950.12
872.906	17022.12
873.15	16966.12
873.393	16914.12
873.636	16846.12
873.879	16686.12
874.122	16455.12
874.366	16200.12
874.609	16069.12
874.852	15945.12
875.095	15977.12
875.337	15820.12
875.58	15680.12
875.823	15698.12
876.066	15652.12
876.309	15625.12
876.551	15410.12
876.794	15349.12
877.037	15341.12
877.279	15278.12
877.522	15316.12
877.764	15355.12
878.007	15243.12
878.249	15277.12
878.491	15237.12
878.734	15167.12
878.976	15112.12
879.218	15052.12
879.46	14939.12
879.702	14842.12
879.945	14640.12
880.187	14605.12
880.429	14513.12
880.671	14352.12
880.912	14408.12
881.154	14313.12
881.396	14207.12
881.638	14195.12
881.88	14242.12
882.121	14194.12
882.363	14219.12
882.605	14072.12
882.846	14137.12
883.088	14106.12
883.329	14116.12
883.571	14103.12
883.812	14272.12
884.053	14610.12
884.295	14876.12
884.536	14997.12
884.777	14907.12
885.018	14814.12
885.259	14625.12
885.5	14600.12
885.742	14782.12
885.982	14527.12
886.223	14455.12
886.464	14253.12
886.705	14110.12
886.946	14018.12
887.187	13751.12
887.428	13642.12
887.668	13401.12
887.909	13153.12
888.15	12984.12
888.39	12958.12
888.631	12904.12
888.871	12823.12
889.111	12735.12
889.352	12635.12
889.592	12500.12
889.833	12445.12
890.073	12327.12
890.313	12375.12
890.553	12100.12
890.793	11982.12
891.033	12002.12
891.273	11931.12
891.513	11907.12
891.753	11912.12
891.993	11848.12
892.233	11870.12
892.473	11932.12
892.713	11877.12
892.952	11880.12
893.192	11827.12
893.432	11828.12
893.671	11865.12
893.911	11710.12
894.15	11719.12
894.39	11571.12
894.629	11568.12
894.869	11418.12
895.108	11417.12
895.347	11288.12
895.587	11276.12
895.826	11227.12
896.065	11277.12
896.304	11245.12
896.543	11223.12
896.782	11192.12
897.021	11156.12
897.26	11095.12
897.499	11035.12
897.738	11038.12
897.977	10866.12
898.216	10863.12
898.454	10826.12
898.693	10633.12
898.932	10627.12
899.17	10584.12
899.409	10532.12
899.647	10499.12
899.886	10489.12
900.124	10544.12
900.363	10520.12
900.601	10454.12
900.839	10511.12
901.078	10485.12
901.316	10634.12
901.554	10610.12
901.792	10688.12
902.03	10607.12
902.268	10637.12
902.506	10705.12
902.744	10542.12
902.982	10531.12
903.22	10393.12
903.458	10195.12
903.695	10086.12
903.933	10005.12
904.171	9769.12
904.409	9655.12
904.646	9472.12
904.884	9358.12
905.121	9368.12
905.359	9239.12
905.596	9194.12
905.833	9013.12
906.071	9036.12
906.308	9099.12
906.545	9047.12
906.783	9014.12
907.02	8980.12
907.257	8926.12
907.494	8901.12
907.731	8863.12
907.968	8826.12
908.205	8752.12
908.442	8703.12
908.679	8679.12
908.915	8692.12
909.152	8510.12
909.389	8408.12
909.626	8325.12
909.862	8292.12
910.099	8284.12
910.335	8339.12
910.572	8190.12
910.808	8222.12
911.045	8139.12
911.281	8132.12
911.518	8185.12
911.754	8050.12
911.99	8023.12
912.226	7930.12
912.463	7864.12
912.699	7857.12
912.935	7758.12
913.171	7689.12
913.407	7662.12
913.643	7640.12
913.879	7562.12
914.114	7483.12
914.35	7448.12
914.586	7358.12
914.822	7257.12
915.057	7329.12
915.293	7157.12
915.529	7131.12
915.764	7216.12
916	7157.12
916.235	7056.12
916.471	7126.12
916.706	7012.12
916.941	7002.12
917.177	7010.12
917.412	7021.12
917.647	7014.12
917.882	6927.12
918.117	6986.12
918.352	6927.12
918.588	6977.12
918.823	6857.12
919.057	6762.12
919.292	6701.12
919.527	6733.12
919.762	6581.12
919.997	6577.12
920.232	6452.12
920.466	6435.12
920.701	6318.12
920.935	6286.12
921.17	6268.12
921.405	6287.12
921.639	6254.12
921.873	6195.12
922.108	6161.12
922.342	6173.12
922.576	6090.12
922.811	6090.12
923.045	6063.12
923.279	6096.12
923.513	5942.12
923.747	6053.12
923.981	6000.12
924.215	5889.12
924.449	5894.12
924.683	5794.12
924.917	5785.12
925.151	5783.12
925.385	5825.12
925.618	5728.12
925.852	5746.12
926.086	5671.12
926.319	5695.12
926.553	5726.12
926.786	5678.12
927.02	5667.12
927.253	5709.12
927.486	5686.12
927.72	5614.12
927.953	5706.12
928.186	5611.12
928.42	5602.12
928.653	5544.12
928.886	5485.12
929.119	5495.12
929.352	5457.12
929.585	5412.12
929.818	5319.12
930.051	5315.12
930.284	5344.12
930.516	5301.12
930.749	5176.12
930.982	5232.12
931.215	5230.12
931.447	5149.12
931.68	5182.12
931.912	5087.12
932.145	5114.12
932.377	5079.12
932.61	5261.12
932.842	5056.12
933.074	5152.12
933.307	5020.12
933.539	5090.12
933.771	5112.12
934.003	5105.12
934.236	5108.12
934.468	5161.12
934.7	5042.12
934.932	5088.12
935.164	5022.12
935.395	4961.12
935.627	4948.12
935.859	4991.12
936.091	4922.12
936.323	4930.12
936.554	4930.12
936.786	4870.12
937.017	4787.12
937.249	4817.12
937.481	4767.12
937.712	4852.12
937.943	4814.12
938.175	4801.12
938.406	4767.12
938.637	4852.12
938.869	4740.12
939.1	4824.12
939.331	4740.12
939.562	4765.12
939.793	4729.12
940.024	4660.12
940.255	4744.12
940.486	4639.12
940.717	4616.12
940.948	4629.12
941.179	4549.12
941.409	4548.12
941.64	4525.12
941.871	4541.12
942.102	4537.12
942.332	4538.12
942.563	4582.12
942.793	4595.12
943.024	4499.12
943.254	4580.12
943.484	4558.12
943.715	4597.12
943.945	4534.12
944.175	4455.12
944.405	4450.12
944.636	4439.12
944.866	4514.12
945.096	4520.12
945.326	4414.12
945.556	4500.12
945.786	4517.12
946.016	4387.12
946.245	4305.12
946.475	4316.12
946.705	4330.12
946.935	4290.12
947.164	4257.12
947.394	4232.12
947.624	4257.12
947.853	4215.12
948.083	4201.12
948.312	4171.12
948.542	4102.12
948.771	4083.12
949	4083.12
949.23	4124.12
949.459	4118.12
949.688	4167.12
949.917	4133.12
950.146	4120.12
950.375	4144.12
950.604	4092.12
950.833	4148.12
951.062	4131.12
951.291	4064.12
951.52	4043.12
951.749	4020.12
951.978	3991.12
952.206	3988.12
952.435	3960.12
952.664	4039.12
952.892	4026.12
953.121	3980.12
953.349	3992.12
953.578	3941.12
953.806	3906.12
954.035	3852.12
954.263	3869.12
954.491	3808.12
954.719	3863.12
954.948	3823.12
955.176	3814.12
955.404	3732.12
955.632	3803.12
955.86	3785.12
956.088	3742.12
956.316	3767.12
956.544	3760.12
956.772	3680.12
956.999	3671.12
957.227	3711.12
957.455	3626.12
957.683	3647.12
957.91	3593.12
958.138	3516.12
958.365	3573.12
958.593	3510.12
958.82	3455.12
959.048	3568.12
959.275	3533.12
959.502	3507.12
959.73	3459.12
959.957	3545.12
960.184	3525.12
960.411	3438.12
960.638	3533.12
960.865	3480.12
961.092	3492.12
961.319	3381.12
961.546	3463.12
961.773	3460.12
962	3385.12
962.227	3452.12
962.454	3384.12
962.68	3405.12
962.907	3344.12
963.134	3364.12
963.36	3356.12
963.587	3357.12
963.813	3301.12
964.04	3330.12
964.266	3263.12
964.493	3289.12
964.719	3290.12
964.945	3275.12
965.171	3155.12
965.398	3191.12
965.624	3227.12
965.85	3136.12
966.076	3156.12
966.302	3195.12
966.528	3154.12
966.754	3184.12
966.98	3140.12
967.206	3096.12
967.431	3054.12
967.657	3140.12
967.883	3106.12
968.109	3073.12
968.334	3008.12
968.56	2988.12
968.785	3046.12
969.011	2971.12
969.236	3024.12
969.462	2976.12
969.687	3002.12
969.912	3052.12
970.138	3025.12
970.363	2955.12
970.588	2957.12
970.813	2927.12
971.038	2908.12
971.263	2954.12
971.488	2928.12
971.713	2973.12
971.938	2905.12
972.163	2812.12
972.388	2862.12
972.613	2836.12
972.838	2850.12
973.062	2818.12
973.287	2808.12
973.512	2752.12
973.736	2781.12
973.961	2794.12
974.185	2717.12
974.41	2748.12
974.634	2681.12
974.858	2673.12
975.083	2730.12
975.307	2709.12
975.531	2641.12
975.755	2613.12
975.98	2584.12
976.204	2557.12
976.428	2573.12
976.652	2563.12
976.876	2536.12
977.1	2558.12
977.324	2536.12
977.547	2554.12
977.771	2537.12
977.995	2530.12
978.219	2450.12
978.442	2571.12
978.666	2496.12
978.89	2477.12
979.113	2492.12
979.337	2505.12
979.56	2461.12
979.783	2512.12
980.007	2412.12
980.23	2447.12
980.453	2392.12
980.677	2418.12
980.9	2409.12
981.123	2343.12
981.346	2436.12
981.569	2374.12
981.792	2380.12
982.015	2352.12
982.238	2322.12
982.461	2343.12
982.684	2287.12
982.907	2292.12
983.129	2281.12
983.352	2297.12
983.575	2293.12
983.797	2285.12
984.02	2234.12
984.242	2210.12
984.465	2239.12
984.687	2242.12
984.91	2282.12
985.132	2231.12
985.354	2238.12
985.577	2223.12
985.799	2177.12
986.021	2112.12
986.243	2126.12
986.465	2141.12
986.687	2223.12
986.909	2249.12
987.131	2145.12
987.353	2111.12
987.575	2170.12
987.797	2117.12
988.019	2045.12
988.241	2140.12
988.462	2095.12
988.684	2103.12
988.906	2145.12
989.127	2166.12
989.349	2023.12
989.57	2078.12
989.792	2105.12
990.013	2170.12
990.234	2117.12
990.456	2151.12
990.677	2075.12
990.898	2050.12
991.119	2028.12
991.341	2085.12
991.562	2019.12
991.783	2023.12
992.004	1983.12
992.225	1936.12
992.446	2018.12
992.667	1925.12
992.887	2004.12
993.108	1882.12
993.329	1997.12
993.55	1944.12
993.77	1877.12
993.991	1911.12
994.212	1925.12
994.432	1912.12
994.653	1918.12
994.873	1930.12
995.093	1805.12
995.314	1840.12
995.534	1917.12
995.754	1900.12
995.975	1930.12
996.195	1800.12
996.415	1878.12
996.635	1842.12
996.855	1865.12
997.075	1847.12
997.295	1842.12
997.515	1821.12
997.735	1860.12
997.955	1835.12
998.174	1843.12
998.394	1806.12
998.614	1848.12
998.834	1774.12
999.053	1861.12
999.273	1820.12
999.492	1878.12
999.712	1818.12
999.931	1752.12
1000.151	1824.12
1000.37	1786.12
1000.589	1817.12
1000.809	1742.12
1001.028	1853.12
1001.247	1758.12
1001.466	1680.12
1001.685	1809.12
1001.904	1731.12
1002.123	1704.12
1002.342	1736.12
1002.561	1674.12
1002.78	1705.12
1002.999	1756.12
1003.218	1685.12
1003.436	1682.12
1003.655	1745.12
1003.874	1652.12
1004.092	1685.12
1004.311	1730.12
1004.53	1664.12
1004.748	1737.12
1004.966	1670.12
1005.185	1719.12
1005.403	1707.12
1005.622	1705.12
1005.84	1766.12
1006.058	1680.12
1006.276	1658.12
1006.494	2146.12
1006.712	1669.12
1006.931	1736.12
1007.149	1649.12
1007.367	1621.12
1007.584	1687.12
1007.802	1721.12
1008.02	1677.12
1008.238	1771.12
1008.456	1771.12
1008.673	1646.12
1008.891	1750.12
1009.109	1722.12
1009.326	1763.12
1009.544	1867.12
1009.761	1791.12
1009.979	1916.12
1010.196	1935.12
1010.413	2041.12
1010.631	2089.12
1010.848	2157.12
1011.065	2150.12
1011.282	2113.12
1011.5	2046.12
1011.717	2167.12
1011.934	2102.12
1012.151	2126.12
1012.368	2074.12
1012.585	2040.12
1012.801	2084.12
1013.018	2021.12
1013.235	2027.12
1013.452	2049.12
1013.669	2100.12
1013.885	2055.12
1014.102	2095.12
1014.318	2032.12
1014.535	2001.12
1014.751	2009.12
1014.968	2028.12
1015.184	2060.12
1015.401	1930.12
1015.617	1974.12
1015.833	1906.12
1016.049	1896.12
1016.266	1884.12
1016.482	1889.12
1016.698	1790.12
1016.914	1846.12
1017.13	1783.12
1017.346	1758.12
1017.562	1815.12
1017.778	1749.12
1017.993	1750.12
1018.209	1806.12
1018.425	1752.12
1018.641	1692.12
1018.856	1711.12
1019.072	1732.12
1019.288	1779.12
1019.503	1712.12
1019.719	1646.12
1019.934	1635.12
1020.149	1722.12
1020.365	1671.12
1020.58	1587.12
1020.795	1652.12
1021.011	1542.12
1021.226	1539.12
1021.441	1526.12
1021.656	1456.12
1021.871	1386.12
1022.086	1380.12
1022.301	1371.12
1022.516	1344.12
1022.731	1412.12
1022.946	1279.12
1023.16	1276.12
1023.375	1232.12
1023.59	1246.12
1023.804	1178.12
1024.019	1264.12
1024.234	1144.12
1024.448	1166.12
1024.663	1092.12
1024.877	1098.12
1025.092	1130.12
1025.306	1111.12
1025.52	992.12
1025.734	1082.12
1025.949	1007.12
1026.163	1007.12
1026.377	938.12
1026.591	974.12
1026.805	893.12
1027.019	894.12
1027.233	853.12
1027.447	778.12
1027.661	891.12
1027.875	841.12
1028.088	836.12
1028.302	761.12
1028.516	751.12
1028.73	774.12
1028.943	747.12
1029.157	690.12
1029.37	638.12
1029.584	-1.88
1029.797	0.12
1030.011	-2.88
1030.224	-3.88
