Data from QEP037381__61__14-46-05-874.txt Node

Date: Wed Dec 21 14:46:05 EST 2022
User: dcclab
Spectrometer: QEP03738
Trigger mode: 4
Integration Time (sec): 1.000000E1
Scans to average: 1
Electric dark correction enabled: true
Nonlinearity correction enabled: false
Boxcar width: 0
XAxis mode: Wavelengths
Number of Pixels in Spectrum: 1044
>>>>>Begin Spectral Data<<<<<
784.041	10.12
784.3	0.12
784.558	-0.88
784.817	-4.88
785.075	100055.12
785.334	17554.12
785.592	8177.12
785.851	5660.12
786.109	4205.12
786.368	3298.12
786.626	2642.12
786.884	2191.12
787.143	1841.12
787.401	1516.12
787.659	1378.12
787.917	1177.12
788.175	1089.12
788.433	940.12
788.691	853.12
788.949	793.12
789.207	770.12
789.465	687.12
789.723	640.12
789.98	588.12
790.238	619.12
790.496	591.12
790.753	558.12
791.011	600.12
791.268	531.12
791.526	519.12
791.783	539.12
792.041	528.12
792.298	445.12
792.556	494.12
792.813	487.12
793.07	456.12
793.327	463.12
793.584	542.12
793.841	443.12
794.099	478.12
794.356	505.12
794.613	423.12
794.869	479.12
795.126	430.12
795.383	405.12
795.64	416.12
795.897	396.12
796.153	448.12
796.41	416.12
796.667	406.12
796.923	431.12
797.18	436.12
797.436	448.12
797.693	403.12
797.949	467.12
798.206	487.12
798.462	396.12
798.718	453.12
798.974	442.12
799.231	482.12
799.487	467.12
799.743	477.12
799.999	493.12
800.255	504.12
800.511	485.12
800.767	538.12
801.023	503.12
801.279	546.12
801.534	587.12
801.79	633.12
802.046	650.12
802.302	791.12
802.557	887.12
802.813	1097.12
803.068	1364.12
803.324	1843.12
803.579	2486.12
803.835	3449.12
804.09	4714.12
804.345	6159.12
804.601	7665.12
804.856	9339.12
805.111	10779.12
805.366	11794.12
805.621	12559.12
805.876	13205.12
806.131	13479.12
806.386	13760.12
806.641	13996.12
806.896	14239.12
807.151	14481.12
807.406	14725.12
807.661	15033.12
807.915	15293.12
808.17	15480.12
808.425	15673.12
808.679	15720.12
808.934	15950.12
809.188	16045.12
809.443	16224.12
809.697	16393.12
809.951	16465.12
810.206	16521.12
810.46	16795.12
810.714	16843.12
810.968	17078.12
811.223	17171.12
811.477	17192.12
811.731	17471.12
811.985	17453.12
812.239	17616.12
812.493	17688.12
812.747	17780.12
813	17583.12
813.254	17888.12
813.508	17909.12
813.762	17846.12
814.015	17977.12
814.269	18072.12
814.522	18279.12
814.776	18365.12
815.03	18732.12
815.283	18941.12
815.536	19296.12
815.79	19482.12
816.043	19807.12
816.296	20064.12
816.55	20332.12
816.803	20540.12
817.056	20640.12
817.309	21002.12
817.562	21126.12
817.815	21333.12
818.068	21466.12
818.321	21684.12
818.574	21891.12
818.827	22206.12
819.079	22477.12
819.332	22821.12
819.585	23052.12
819.838	23406.12
820.09	23461.12
820.343	23582.12
820.595	23701.12
820.848	23914.12
821.1	23913.12
821.353	23863.12
821.605	23909.12
821.857	23918.12
822.11	23792.12
822.362	23645.12
822.614	23627.12
822.866	23758.12
823.118	23640.12
823.37	23976.12
823.622	23905.12
823.874	23939.12
824.126	23978.12
824.378	23936.12
824.63	24043.12
824.882	24083.12
825.134	23997.12
825.385	24045.12
825.637	23922.12
825.888	23900.12
826.14	23774.12
826.392	23777.12
826.643	23712.12
826.895	23589.12
827.146	23392.12
827.397	23370.12
827.649	23516.12
827.9	23308.12
828.151	23307.12
828.402	23410.12
828.653	23452.12
828.905	23422.12
829.156	23593.12
829.407	23560.12
829.658	23591.12
829.909	23715.12
830.159	23760.12
830.41	23508.12
830.661	23381.12
830.912	23134.12
831.162	23189.12
831.413	23076.12
831.664	23133.12
831.914	23028.12
832.165	23004.12
832.415	23025.12
832.666	23008.12
832.916	23071.12
833.167	22924.12
833.417	22943.12
833.667	22759.12
833.917	22861.12
834.168	22742.12
834.418	22652.12
834.668	22632.12
834.918	22464.12
835.168	22387.12
835.418	22303.12
835.668	22355.12
835.918	22184.12
836.167	22230.12
836.417	22053.12
836.667	22107.12
836.917	22037.12
837.166	22053.12
837.416	22172.12
837.666	22091.12
837.915	22063.12
838.165	21994.12
838.414	21824.12
838.663	21806.12
838.913	21733.12
839.162	21761.12
839.411	21771.12
839.661	21628.12
839.91	21558.12
840.159	21597.12
840.408	21461.12
840.657	21616.12
840.906	21577.12
841.155	21591.12
841.404	21572.12
841.653	21490.12
841.902	21565.12
842.15	21493.12
842.399	21574.12
842.648	21518.12
842.897	21471.12
843.145	21223.12
843.394	21172.12
843.642	21124.12
843.891	20991.12
844.139	20840.12
844.388	20683.12
844.636	20576.12
844.884	20654.12
845.133	20687.12
845.381	20460.12
845.629	20533.12
845.877	20543.12
846.125	20557.12
846.373	20484.12
846.621	20405.12
846.869	20296.12
847.117	20160.12
847.365	20054.12
847.613	20074.12
847.861	20055.12
848.108	19947.12
848.356	19913.12
848.604	19877.12
848.851	19884.12
849.099	19924.12
849.346	19976.12
849.594	20007.12
849.841	20111.12
850.089	20056.12
850.336	20211.12
850.583	20189.12
850.831	20049.12
851.078	19909.12
851.325	19962.12
851.572	19917.12
851.819	19763.12
852.066	19325.12
852.313	19199.12
852.56	18968.12
852.807	18824.12
853.054	18855.12
853.301	18825.12
853.548	18874.12
853.794	18876.12
854.041	19058.12
854.288	19021.12
854.534	19223.12
854.781	19149.12
855.028	19034.12
855.274	19079.12
855.52	18894.12
855.767	18855.12
856.013	18956.12
856.26	19211.12
856.506	18641.12
856.752	18648.12
856.998	18719.12
857.244	18645.12
857.49	18781.12
857.736	18806.12
857.982	18828.12
858.228	18735.12
858.474	18543.12
858.72	18373.12
858.966	18343.12
859.212	18182.12
859.458	17906.12
859.703	17805.12
859.949	17607.12
860.195	17525.12
860.44	17488.12
860.686	17370.12
860.931	17316.12
861.177	17192.12
861.422	17209.12
861.667	16983.12
861.913	17038.12
862.158	17024.12
862.403	17145.12
862.648	17156.12
862.893	17149.12
863.138	17146.12
863.384	17123.12
863.629	17104.12
863.873	17081.12
864.118	17012.12
864.363	16925.12
864.608	16814.12
864.853	16821.12
865.098	16646.12
865.342	16671.12
865.587	16561.12
865.832	16510.12
866.076	16506.12
866.321	16302.12
866.565	16409.12
866.81	16221.12
867.054	16257.12
867.298	16220.12
867.543	16136.12
867.787	16117.12
868.031	16121.12
868.275	16001.12
868.519	16015.12
868.764	16022.12
869.008	15985.12
869.252	15892.12
869.496	15803.12
869.739	15846.12
869.983	15856.12
870.227	15854.12
870.471	15900.12
870.715	15869.12
870.958	15967.12
871.202	15899.12
871.446	15904.12
871.689	15929.12
871.933	15878.12
872.176	15901.12
872.42	15869.12
872.663	15738.12
872.906	15860.12
873.15	15738.12
873.393	15776.12
873.636	15747.12
873.879	15575.12
874.122	15401.12
874.366	15235.12
874.609	15082.12
874.852	14983.12
875.095	14850.12
875.337	14789.12
875.58	14674.12
875.823	14710.12
876.066	14592.12
876.309	14613.12
876.551	14480.12
876.794	14329.12
877.037	14330.12
877.279	14274.12
877.522	14268.12
877.764	14325.12
878.007	14303.12
878.249	14222.12
878.491	14237.12
878.734	14179.12
878.976	14202.12
879.218	14028.12
879.46	13929.12
879.702	13868.12
879.945	13768.12
880.187	13624.12
880.429	13541.12
880.671	13493.12
880.912	13459.12
881.154	13494.12
881.396	13239.12
881.638	13374.12
881.88	13398.12
882.121	13218.12
882.363	13370.12
882.605	13337.12
882.846	13228.12
883.088	13204.12
883.329	13214.12
883.571	13124.12
883.812	13363.12
884.053	13555.12
884.295	13842.12
884.536	13978.12
884.777	13931.12
885.018	13863.12
885.259	13736.12
885.5	13618.12
885.742	13896.12
885.982	13617.12
886.223	13478.12
886.464	13257.12
886.705	13204.12
886.946	13084.12
887.187	12820.12
887.428	12768.12
887.668	12528.12
887.909	12379.12
888.15	12244.12
888.39	12172.12
888.631	12183.12
888.871	11947.12
889.111	11873.12
889.352	11880.12
889.592	11750.12
889.833	11672.12
890.073	11608.12
890.313	11614.12
890.553	11391.12
890.793	11367.12
891.033	11282.12
891.273	11224.12
891.513	11245.12
891.753	11188.12
891.993	11084.12
892.233	11151.12
892.473	11233.12
892.713	11188.12
892.952	11116.12
893.192	11210.12
893.432	11107.12
893.671	11130.12
893.911	11118.12
894.15	11009.12
894.39	10878.12
894.629	10927.12
894.869	10831.12
895.108	10755.12
895.347	10652.12
895.587	10645.12
895.826	10636.12
896.065	10628.12
896.304	10568.12
896.543	10544.12
896.782	10447.12
897.021	10451.12
897.26	10463.12
897.499	10444.12
897.738	10471.12
897.977	10319.12
898.216	10227.12
898.454	10103.12
898.693	10067.12
898.932	10071.12
899.17	9995.12
899.409	9965.12
899.647	9900.12
899.886	9968.12
900.124	9988.12
900.363	9846.12
900.601	9966.12
900.839	9927.12
901.078	9958.12
901.316	9987.12
901.554	10005.12
901.792	10080.12
902.03	10044.12
902.268	10058.12
902.506	9990.12
902.744	9961.12
902.982	9971.12
903.22	9746.12
903.458	9630.12
903.695	9649.12
903.933	9438.12
904.171	9281.12
904.409	9104.12
904.646	9052.12
904.884	8841.12
905.121	8909.12
905.359	8732.12
905.596	8666.12
905.833	8559.12
906.071	8611.12
906.308	8550.12
906.545	8519.12
906.783	8473.12
907.02	8418.12
907.257	8379.12
907.494	8443.12
907.731	8362.12
907.968	8343.12
908.205	8304.12
908.442	8230.12
908.679	8169.12
908.915	8210.12
909.152	8087.12
909.389	8002.12
909.626	7963.12
909.862	7860.12
910.099	7859.12
910.335	7906.12
910.572	7726.12
910.808	7795.12
911.045	7717.12
911.281	7666.12
911.518	7761.12
911.754	7563.12
911.99	7680.12
912.226	7495.12
912.463	7424.12
912.699	7420.12
912.935	7392.12
913.171	7285.12
913.407	7177.12
913.643	7183.12
913.879	7157.12
914.114	7150.12
914.35	7037.12
914.586	6942.12
914.822	6869.12
915.057	6897.12
915.293	6700.12
915.529	6690.12
915.764	6801.12
916	6727.12
916.235	6670.12
916.471	6711.12
916.706	6643.12
916.941	6709.12
917.177	6659.12
917.412	6685.12
917.647	6689.12
917.882	6580.12
918.117	6614.12
918.352	6588.12
918.588	6605.12
918.823	6470.12
919.057	6473.12
919.292	6312.12
919.527	6358.12
919.762	6248.12
919.997	6278.12
920.232	6096.12
920.466	6136.12
920.701	6028.12
920.935	5989.12
921.17	6003.12
921.405	5888.12
921.639	5954.12
921.873	5898.12
922.108	5886.12
922.342	5832.12
922.576	5792.12
922.811	5766.12
923.045	5781.12
923.279	5796.12
923.513	5637.12
923.747	5717.12
923.981	5631.12
924.215	5578.12
924.449	5594.12
924.683	5531.12
924.917	5511.12
925.151	5469.12
925.385	5504.12
925.618	5471.12
925.852	5436.12
926.086	5392.12
926.319	5400.12
926.553	5411.12
926.786	5443.12
927.02	5375.12
927.253	5465.12
927.486	5385.12
927.72	5322.12
927.953	5363.12
928.186	5316.12
928.42	5311.12
928.653	5247.12
928.886	5232.12
929.119	5296.12
929.352	5238.12
929.585	5216.12
929.818	5130.12
930.051	5108.12
930.284	5110.12
930.516	4968.12
930.749	4963.12
930.982	4983.12
931.215	4927.12
931.447	4862.12
931.68	4870.12
931.912	4864.12
932.145	4836.12
932.377	4888.12
932.61	4979.12
932.842	4789.12
933.074	4881.12
933.307	4783.12
933.539	4891.12
933.771	4846.12
934.003	4809.12
934.236	4880.12
934.468	4865.12
934.7	4809.12
934.932	4853.12
935.164	4762.12
935.395	4730.12
935.627	4771.12
935.859	4740.12
936.091	4670.12
936.323	4709.12
936.554	4691.12
936.786	4653.12
937.017	4558.12
937.249	4631.12
937.481	4573.12
937.712	4638.12
937.943	4587.12
938.175	4545.12
938.406	4580.12
938.637	4635.12
938.869	4516.12
939.1	4567.12
939.331	4497.12
939.562	4547.12
939.793	4501.12
940.024	4505.12
940.255	4501.12
940.486	4428.12
940.717	4417.12
940.948	4399.12
941.179	4341.12
941.409	4374.12
941.64	4337.12
941.871	4363.12
942.102	4303.12
942.332	4311.12
942.563	4316.12
942.793	4415.12
943.024	4214.12
943.254	4312.12
943.484	4330.12
943.715	4331.12
943.945	4312.12
944.175	4273.12
944.405	4226.12
944.636	4227.12
944.866	4294.12
945.096	4319.12
945.326	4201.12
945.556	4269.12
945.786	4261.12
946.016	4191.12
946.245	4126.12
946.475	4110.12
946.705	4104.12
946.935	4092.12
947.164	4116.12
947.394	4044.12
947.624	4065.12
947.853	4057.12
948.083	3998.12
948.312	3967.12
948.542	3945.12
948.771	3881.12
949	3928.12
949.23	3911.12
949.459	3916.12
949.688	4049.12
949.917	3920.12
950.146	3931.12
950.375	3945.12
950.604	3906.12
950.833	3934.12
951.062	3907.12
951.291	3884.12
951.52	3853.12
951.749	3861.12
951.978	3808.12
952.206	3785.12
952.435	3782.12
952.664	3838.12
952.892	3882.12
953.121	3778.12
953.349	3811.12
953.578	3818.12
953.806	3758.12
954.035	3666.12
954.263	3734.12
954.491	3661.12
954.719	3653.12
954.948	3587.12
955.176	3629.12
955.404	3580.12
955.632	3571.12
955.86	3599.12
956.088	3561.12
956.316	3563.12
956.544	3608.12
956.772	3530.12
956.999	3474.12
957.227	3560.12
957.455	3505.12
957.683	3464.12
957.91	3442.12
958.138	3420.12
958.365	3419.12
958.593	3326.12
958.82	3321.12
959.048	3376.12
959.275	3407.12
959.502	3363.12
959.73	3342.12
959.957	3372.12
960.184	3364.12
960.411	3289.12
960.638	3362.12
960.865	3330.12
961.092	3324.12
961.319	3252.12
961.546	3326.12
961.773	3338.12
962	3287.12
962.227	3309.12
962.454	3259.12
962.68	3262.12
962.907	3304.12
963.134	3203.12
963.36	3202.12
963.587	3227.12
963.813	3151.12
964.04	3185.12
964.266	3089.12
964.493	3182.12
964.719	3161.12
964.945	3162.12
965.171	3011.12
965.398	3128.12
965.624	3062.12
965.85	3021.12
966.076	3002.12
966.302	2987.12
966.528	3004.12
966.754	3009.12
966.98	2992.12
967.206	3022.12
967.431	2899.12
967.657	2989.12
967.883	2988.12
968.109	2982.12
968.334	2914.12
968.56	2902.12
968.785	2918.12
969.011	2828.12
969.236	2924.12
969.462	2867.12
969.687	2880.12
969.912	2906.12
970.138	2889.12
970.363	2840.12
970.588	2822.12
970.813	2806.12
971.038	2789.12
971.263	2803.12
971.488	2801.12
971.713	2848.12
971.938	2821.12
972.163	2730.12
972.388	2731.12
972.613	2716.12
972.838	2719.12
973.062	2724.12
973.287	2692.12
973.512	2615.12
973.736	2663.12
973.961	2631.12
974.185	2616.12
974.41	2674.12
974.634	2574.12
974.858	2589.12
975.083	2550.12
975.307	2633.12
975.531	2548.12
975.755	2457.12
975.98	2477.12
976.204	2433.12
976.428	2438.12
976.652	2453.12
976.876	2438.12
977.1	2476.12
977.324	2448.12
977.547	2431.12
977.771	2439.12
977.995	2407.12
978.219	2347.12
978.442	2483.12
978.666	2438.12
978.89	2415.12
979.113	2396.12
979.337	2395.12
979.56	2319.12
979.783	2432.12
980.007	2340.12
980.23	2318.12
980.453	2285.12
980.677	2366.12
980.9	2301.12
981.123	2229.12
981.346	2327.12
981.569	2330.12
981.792	2319.12
982.015	2251.12
982.238	2253.12
982.461	2261.12
982.684	2218.12
982.907	2193.12
983.129	2171.12
983.352	2238.12
983.575	2187.12
983.797	2221.12
984.02	2131.12
984.242	2112.12
984.465	2147.12
984.687	2153.12
984.91	2197.12
985.132	2147.12
985.354	2146.12
985.577	2153.12
985.799	2114.12
986.021	2020.12
986.243	2074.12
986.465	2099.12
986.687	2116.12
986.909	2150.12
987.131	2114.12
987.353	2031.12
987.575	2087.12
987.797	2039.12
988.019	1983.12
988.241	2048.12
988.462	1981.12
988.684	2044.12
988.906	2098.12
989.127	2080.12
989.349	1948.12
989.57	1984.12
989.792	2023.12
990.013	2070.12
990.234	2053.12
990.456	2080.12
990.677	2031.12
990.898	1981.12
991.119	1944.12
991.341	1983.12
991.562	1909.12
991.783	1969.12
992.004	1899.12
992.225	1876.12
992.446	1925.12
992.667	1836.12
992.887	1907.12
993.108	1808.12
993.329	1922.12
993.55	1871.12
993.77	1824.12
993.991	1822.12
994.212	1872.12
994.432	1818.12
994.653	1835.12
994.873	1860.12
995.093	1732.12
995.314	1788.12
995.534	1860.12
995.754	1837.12
995.975	1846.12
996.195	1753.12
996.415	1806.12
996.635	1771.12
996.855	1797.12
997.075	1761.12
997.295	1750.12
997.515	1751.12
997.735	1823.12
997.955	1766.12
998.174	1745.12
998.394	1729.12
998.614	1787.12
998.834	1735.12
999.053	1764.12
999.273	1755.12
999.492	1794.12
999.712	1740.12
999.931	1724.12
1000.151	1721.12
1000.37	1710.12
1000.589	1756.12
1000.809	1694.12
1001.028	1803.12
1001.247	1737.12
1001.466	1618.12
1001.685	1743.12
1001.904	1684.12
1002.123	1697.12
1002.342	1679.12
1002.561	1636.12
1002.78	1661.12
1002.999	1705.12
1003.218	1659.12
1003.436	1608.12
1003.655	1682.12
1003.874	1635.12
1004.092	1647.12
1004.311	1676.12
1004.53	1592.12
1004.748	1715.12
1004.966	1609.12
1005.185	1661.12
1005.403	1659.12
1005.622	1615.12
1005.84	1708.12
1006.058	1603.12
1006.276	1647.12
1006.494	2107.12
1006.712	1586.12
1006.931	1650.12
1007.149	1604.12
1007.367	1608.12
1007.584	1640.12
1007.802	1664.12
1008.02	1623.12
1008.238	1700.12
1008.456	1694.12
1008.673	1596.12
1008.891	1688.12
1009.109	1646.12
1009.326	1727.12
1009.544	1799.12
1009.761	1718.12
1009.979	1839.12
1010.196	1822.12
1010.413	1922.12
1010.631	1973.12
1010.848	2011.12
1011.065	2045.12
1011.282	1979.12
1011.5	1923.12
1011.717	2015.12
1011.934	1958.12
1012.151	2018.12
1012.368	1988.12
1012.585	1939.12
1012.801	1975.12
1013.018	1948.12
1013.235	1904.12
1013.452	1916.12
1013.669	1928.12
1013.885	1919.12
1014.102	1965.12
1014.318	1923.12
1014.535	1903.12
1014.751	1907.12
1014.968	1930.12
1015.184	1937.12
1015.401	1829.12
1015.617	1842.12
1015.833	1801.12
1016.049	1789.12
1016.266	1759.12
1016.482	1783.12
1016.698	1688.12
1016.914	1754.12
1017.13	1696.12
1017.346	1694.12
1017.562	1782.12
1017.778	1653.12
1017.993	1657.12
1018.209	1680.12
1018.425	1677.12
1018.641	1651.12
1018.856	1609.12
1019.072	1631.12
1019.288	1677.12
1019.503	1629.12
1019.719	1543.12
1019.934	1565.12
1020.149	1616.12
1020.365	1549.12
1020.58	1489.12
1020.795	1558.12
1021.011	1467.12
1021.226	1448.12
1021.441	1462.12
1021.656	1379.12
1021.871	1311.12
1022.086	1316.12
1022.301	1313.12
1022.516	1299.12
1022.731	1341.12
1022.946	1267.12
1023.16	1230.12
1023.375	1194.12
1023.59	1190.12
1023.804	1149.12
1024.019	1224.12
1024.234	1085.12
1024.448	1116.12
1024.663	1046.12
1024.877	1067.12
1025.092	1074.12
1025.306	1071.12
1025.52	974.12
1025.734	1056.12
1025.949	977.12
1026.163	932.12
1026.377	878.12
1026.591	939.12
1026.805	887.12
1027.019	855.12
1027.233	825.12
1027.447	751.12
1027.661	872.12
1027.875	805.12
1028.088	817.12
1028.302	739.12
1028.516	740.12
1028.73	729.12
1028.943	712.12
1029.157	657.12
1029.37	625.12
1029.584	-1.88
1029.797	-0.88
1030.011	-1.88
1030.224	0.12
