Data from QEP037381__55__14-45-05-875.txt Node

Date: Wed Dec 21 14:45:05 EST 2022
User: dcclab
Spectrometer: QEP03738
Trigger mode: 4
Integration Time (sec): 1.000000E1
Scans to average: 1
Electric dark correction enabled: true
Nonlinearity correction enabled: false
Boxcar width: 0
XAxis mode: Wavelengths
Number of Pixels in Spectrum: 1044
>>>>>Begin Spectral Data<<<<<
784.041	12.38
784.3	1.38
784.558	-0.62
784.817	-1.62
785.075	103220.38
785.334	18285.38
785.592	8704.38
785.851	6021.38
786.109	4533.38
786.368	3536.38
786.626	2823.38
786.884	2351.38
787.143	1952.38
787.401	1613.38
787.659	1463.38
787.917	1237.38
788.175	1134.38
788.433	987.38
788.691	886.38
788.949	823.38
789.207	793.38
789.465	688.38
789.723	682.38
789.98	615.38
790.238	657.38
790.496	633.38
790.753	575.38
791.011	626.38
791.268	564.38
791.526	566.38
791.783	566.38
792.041	552.38
792.298	463.38
792.556	530.38
792.813	504.38
793.07	499.38
793.327	477.38
793.584	562.38
793.841	472.38
794.099	502.38
794.356	548.38
794.613	465.38
794.869	489.38
795.126	448.38
795.383	435.38
795.64	456.38
795.897	414.38
796.153	476.38
796.41	455.38
796.667	448.38
796.923	457.38
797.18	456.38
797.436	485.38
797.693	467.38
797.949	508.38
798.206	538.38
798.462	458.38
798.718	512.38
798.974	486.38
799.231	546.38
799.487	532.38
799.743	537.38
799.999	557.38
800.255	564.38
800.511	550.38
800.767	606.38
801.023	609.38
801.279	647.38
801.534	705.38
801.79	775.38
802.046	820.38
802.302	975.38
802.557	1171.38
802.813	1476.38
803.068	1856.38
803.324	2579.38
803.579	3629.38
803.835	5062.38
804.09	7115.38
804.345	9417.38
804.601	12073.38
804.856	14686.38
805.111	17158.38
805.366	19055.38
805.621	20304.38
805.876	21257.38
806.131	21947.38
806.386	22263.38
806.641	22730.38
806.896	23008.38
807.151	23510.38
807.406	23801.38
807.661	24368.38
807.915	24700.38
808.17	24959.38
808.425	25343.38
808.679	25495.38
808.934	25825.38
809.188	26006.38
809.443	26242.38
809.697	26554.38
809.951	26605.38
810.206	26759.38
810.46	27154.38
810.714	27299.38
810.968	27561.38
811.223	27848.38
811.477	28028.38
811.731	28238.38
811.985	28241.38
812.239	28441.38
812.493	28629.38
812.747	28742.38
813	28743.38
813.254	28780.38
813.508	29073.38
813.762	29019.38
814.015	29111.38
814.269	29471.38
814.522	29725.38
814.776	30012.38
815.03	30308.38
815.283	30708.38
815.536	31254.38
815.79	31741.38
816.043	32093.38
816.296	32571.38
816.55	32849.38
816.803	33364.38
817.056	33663.38
817.309	34089.38
817.562	34212.38
817.815	34524.38
818.068	34906.38
818.321	35197.38
818.574	35577.38
818.827	36112.38
819.079	36437.38
819.332	37065.38
819.585	37442.38
819.838	37859.38
820.09	38172.38
820.343	38540.38
820.595	38530.38
820.848	38773.38
821.1	38870.38
821.353	38890.38
821.605	38759.38
821.857	38727.38
822.11	38668.38
822.362	38515.38
822.614	38580.38
822.866	38451.38
823.118	38304.38
823.37	38598.38
823.622	38716.38
823.874	38715.38
824.126	38905.38
824.378	38802.38
824.63	38850.38
824.882	39023.38
825.134	38887.38
825.385	38976.38
825.637	38715.38
825.888	38568.38
826.14	38603.38
826.392	38498.38
826.643	38081.38
826.895	38184.38
827.146	37863.38
827.397	37871.38
827.649	37848.38
827.9	37703.38
828.151	37821.38
828.402	37805.38
828.653	37904.38
828.905	38014.38
829.156	38115.38
829.407	38105.38
829.658	38028.38
829.909	37927.38
830.159	37764.38
830.41	37808.38
830.661	37436.38
830.912	37241.38
831.162	37001.38
831.413	36957.38
831.664	37085.38
831.914	36959.38
832.165	36915.38
832.415	36843.38
832.666	36783.38
832.916	36821.38
833.167	36654.38
833.417	36572.38
833.667	36549.38
833.917	36391.38
834.168	36270.38
834.418	36131.38
834.668	36023.38
834.918	35860.38
835.168	35645.38
835.418	35612.38
835.668	35554.38
835.918	35360.38
836.167	35223.38
836.417	35301.38
836.667	35129.38
836.917	34919.38
837.166	35102.38
837.416	35152.38
837.666	34947.38
837.915	34729.38
838.165	34723.38
838.414	34518.38
838.663	34381.38
838.913	34457.38
839.162	34318.38
839.411	34373.38
839.661	34231.38
839.91	34055.38
840.159	33838.38
840.408	33836.38
840.657	33902.38
840.906	33895.38
841.155	33804.38
841.404	33756.38
841.653	33691.38
841.902	33709.38
842.15	34000.38
842.399	33702.38
842.648	33677.38
842.897	33644.38
843.145	33371.38
843.394	33053.38
843.642	33083.38
843.891	32859.38
844.139	32721.38
844.388	32496.38
844.636	32198.38
844.884	32374.38
845.133	32169.38
845.381	32143.38
845.629	32181.38
845.877	32052.38
846.125	32132.38
846.373	31989.38
846.621	31782.38
846.869	31771.38
847.117	31504.38
847.365	31293.38
847.613	31102.38
847.861	30990.38
848.108	30889.38
848.356	30898.38
848.604	30876.38
848.851	30746.38
849.099	30970.38
849.346	30879.38
849.594	30992.38
849.841	31118.38
850.089	31206.38
850.336	31226.38
850.583	31212.38
850.831	30942.38
851.078	30839.38
851.325	30579.38
851.572	30507.38
851.819	30229.38
852.066	29767.38
852.313	29402.38
852.56	29269.38
852.807	28959.38
853.054	29042.38
853.301	29003.38
853.548	29015.38
853.794	29187.38
854.041	29085.38
854.288	29291.38
854.534	29548.38
854.781	29402.38
855.028	29158.38
855.274	29284.38
855.52	28917.38
855.767	28770.38
856.013	28828.38
856.26	29091.38
856.506	28393.38
856.752	28349.38
856.998	28447.38
857.244	28598.38
857.49	28657.38
857.736	28509.38
857.982	28604.38
858.228	28597.38
858.474	28393.38
858.72	28145.38
858.966	27924.38
859.212	27688.38
859.458	27482.38
859.703	27123.38
859.949	26874.38
860.195	26605.38
860.44	26438.38
860.686	26272.38
860.931	26352.38
861.177	26174.38
861.422	26067.38
861.667	25922.38
861.913	25955.38
862.158	26073.38
862.403	26097.38
862.648	26159.38
862.893	26128.38
863.138	26120.38
863.384	26043.38
863.629	26088.38
863.873	25919.38
864.118	25924.38
864.363	25676.38
864.608	25658.38
864.853	25498.38
865.098	25275.38
865.342	25288.38
865.587	25094.38
865.832	25166.38
866.076	24992.38
866.321	24844.38
866.565	24762.38
866.81	24680.38
867.054	24570.38
867.298	24481.38
867.543	24366.38
867.787	24392.38
868.031	24334.38
868.275	24195.38
868.519	24217.38
868.764	24111.38
869.008	24021.38
869.252	24052.38
869.496	23855.38
869.739	23716.38
869.983	23758.38
870.227	23659.38
870.471	23727.38
870.715	23591.38
870.958	23807.38
871.202	23850.38
871.446	23847.38
871.689	23899.38
871.933	23914.38
872.176	23766.38
872.42	23683.38
872.663	23543.38
872.906	23643.38
873.15	23371.38
873.393	23256.38
873.636	23230.38
873.879	23046.38
874.122	22849.38
874.366	22512.38
874.609	22342.38
874.852	22220.38
875.095	22141.38
875.337	21932.38
875.58	21900.38
875.823	21759.38
876.066	21735.38
876.309	21639.38
876.551	21466.38
876.794	21424.38
877.037	21290.38
877.279	21229.38
877.522	21230.38
877.764	21316.38
878.007	21301.38
878.249	21261.38
878.491	21164.38
878.734	21214.38
878.976	21078.38
879.218	20969.38
879.46	20885.38
879.702	20692.38
879.945	20489.38
880.187	20421.38
880.429	20288.38
880.671	20050.38
880.912	20110.38
881.154	19924.38
881.396	19827.38
881.638	19949.38
881.88	19842.38
882.121	19795.38
882.363	19737.38
882.605	19698.38
882.846	19559.38
883.088	19589.38
883.329	19387.38
883.571	19403.38
883.812	19498.38
884.053	19696.38
884.295	19933.38
884.536	20125.38
884.777	19955.38
885.018	19847.38
885.259	19712.38
885.5	19507.38
885.742	19812.38
885.982	19511.38
886.223	19409.38
886.464	19295.38
886.705	19167.38
886.946	19050.38
887.187	18777.38
887.428	18746.38
887.668	18528.38
887.909	18357.38
888.15	18014.38
888.39	18044.38
888.631	17917.38
888.871	17853.38
889.111	17655.38
889.352	17562.38
889.592	17381.38
889.833	17240.38
890.073	17102.38
890.313	17172.38
890.553	16775.38
890.793	16870.38
891.033	16703.38
891.273	16575.38
891.513	16565.38
891.753	16573.38
891.993	16439.38
892.233	16573.38
892.473	16572.38
892.713	16574.38
892.952	16504.38
893.192	16512.38
893.432	16471.38
893.671	16536.38
893.911	16324.38
894.15	16252.38
894.39	16077.38
894.629	16066.38
894.869	16011.38
895.108	15874.38
895.347	15666.38
895.587	15709.38
895.826	15524.38
896.065	15580.38
896.304	15479.38
896.543	15542.38
896.782	15229.38
897.021	15410.38
897.26	15304.38
897.499	15268.38
897.738	15323.38
897.977	15174.38
898.216	14975.38
898.454	14834.38
898.693	14713.38
898.932	14694.38
899.17	14525.38
899.409	14609.38
899.647	14455.38
899.886	14372.38
900.124	14445.38
900.363	14380.38
900.601	14415.38
900.839	14398.38
901.078	14313.38
901.316	14426.38
901.554	14436.38
901.792	14503.38
902.03	14376.38
902.268	14340.38
902.506	14429.38
902.744	14342.38
902.982	14270.38
903.22	14031.38
903.458	13900.38
903.695	13802.38
903.933	13568.38
904.171	13412.38
904.409	13203.38
904.646	13119.38
904.884	12902.38
905.121	12843.38
905.359	12709.38
905.596	12517.38
905.833	12455.38
906.071	12367.38
906.308	12445.38
906.545	12365.38
906.783	12300.38
907.02	12303.38
907.257	12199.38
907.494	12259.38
907.731	12187.38
907.968	12151.38
908.205	12048.38
908.442	11993.38
908.679	11915.38
908.915	11737.38
909.152	11739.38
909.389	11522.38
909.626	11560.38
909.862	11409.38
910.099	11463.38
910.335	11409.38
910.572	11141.38
910.808	11190.38
911.045	11210.38
911.281	11130.38
911.518	11211.38
911.754	11017.38
911.99	11031.38
912.226	10907.38
912.463	10749.38
912.699	10720.38
912.935	10656.38
913.171	10608.38
913.407	10494.38
913.643	10504.38
913.879	10307.38
914.114	10227.38
914.35	10080.38
914.586	10025.38
914.822	9925.38
915.057	9945.38
915.293	9719.38
915.529	9673.38
915.764	9756.38
916	9736.38
916.235	9712.38
916.471	9686.38
916.706	9559.38
916.941	9617.38
917.177	9575.38
917.412	9553.38
917.647	9558.38
917.882	9560.38
918.117	9503.38
918.352	9533.38
918.588	9487.38
918.823	9354.38
919.057	9246.38
919.292	9104.38
919.527	9115.38
919.762	8974.38
919.997	8924.38
920.232	8793.38
920.466	8794.38
920.701	8539.38
920.935	8586.38
921.17	8544.38
921.405	8490.38
921.639	8429.38
921.873	8448.38
922.108	8387.38
922.342	8351.38
922.576	8333.38
922.811	8226.38
923.045	8382.38
923.279	8331.38
923.513	8079.38
923.747	8227.38
923.981	8056.38
924.215	8005.38
924.449	8012.38
924.683	7919.38
924.917	7828.38
925.151	7836.38
925.385	7782.38
925.618	7799.38
925.852	7739.38
926.086	7583.38
926.319	7712.38
926.553	7670.38
926.786	7658.38
927.02	7635.38
927.253	7617.38
927.486	7607.38
927.72	7565.38
927.953	7602.38
928.186	7547.38
928.42	7558.38
928.653	7511.38
928.886	7440.38
929.119	7389.38
929.352	7366.38
929.585	7345.38
929.818	7230.38
930.051	7160.38
930.284	7203.38
930.516	7050.38
930.749	7022.38
930.982	7036.38
931.215	6969.38
931.447	6900.38
931.68	6859.38
931.912	6924.38
932.145	6886.38
932.377	6857.38
932.61	6979.38
932.842	6741.38
933.074	6873.38
933.307	6776.38
933.539	6852.38
933.771	6874.38
934.003	6816.38
934.236	6871.38
934.468	6875.38
934.7	6730.38
934.932	6787.38
935.164	6730.38
935.395	6632.38
935.627	6706.38
935.859	6709.38
936.091	6536.38
936.323	6628.38
936.554	6594.38
936.786	6564.38
937.017	6458.38
937.249	6505.38
937.481	6402.38
937.712	6513.38
937.943	6467.38
938.175	6387.38
938.406	6382.38
938.637	6439.38
938.869	6336.38
939.1	6371.38
939.331	6320.38
939.562	6378.38
939.793	6320.38
940.024	6278.38
940.255	6292.38
940.486	6260.38
940.717	6179.38
940.948	6151.38
941.179	6114.38
941.409	6103.38
941.64	6100.38
941.871	6082.38
942.102	6092.38
942.332	6071.38
942.563	6101.38
942.793	6093.38
943.024	6019.38
943.254	6041.38
943.484	6042.38
943.715	6038.38
943.945	6049.38
944.175	5996.38
944.405	5970.38
944.636	5997.38
944.866	5946.38
945.096	5997.38
945.326	5905.38
945.556	5935.38
945.786	5931.38
946.016	5880.38
946.245	5822.38
946.475	5792.38
946.705	5712.38
946.935	5670.38
947.164	5644.38
947.394	5616.38
947.624	5578.38
947.853	5666.38
948.083	5576.38
948.312	5529.38
948.542	5454.38
948.771	5436.38
949	5461.38
949.23	5435.38
949.459	5500.38
949.688	5495.38
949.917	5418.38
950.146	5417.38
950.375	5452.38
950.604	5390.38
950.833	5443.38
951.062	5479.38
951.291	5409.38
951.52	5345.38
951.749	5338.38
951.978	5296.38
952.206	5266.38
952.435	5271.38
952.664	5293.38
952.892	5309.38
953.121	5270.38
953.349	5254.38
953.578	5236.38
953.806	5210.38
954.035	5086.38
954.263	5115.38
954.491	5065.38
954.719	5117.38
954.948	5020.38
955.176	5012.38
955.404	4930.38
955.632	4970.38
955.86	4975.38
956.088	4910.38
956.316	4962.38
956.544	4921.38
956.772	4833.38
956.999	4813.38
957.227	4881.38
957.455	4766.38
957.683	4786.38
957.91	4696.38
958.138	4722.38
958.365	4668.38
958.593	4688.38
958.82	4572.38
959.048	4671.38
959.275	4624.38
959.502	4562.38
959.73	4563.38
959.957	4634.38
960.184	4574.38
960.411	4494.38
960.638	4600.38
960.865	4511.38
961.092	4540.38
961.319	4473.38
961.546	4531.38
961.773	4565.38
962	4518.38
962.227	4557.38
962.454	4519.38
962.68	4486.38
962.907	4465.38
963.134	4396.38
963.36	4394.38
963.587	4405.38
963.813	4270.38
964.04	4325.38
964.266	4272.38
964.493	4319.38
964.719	4253.38
964.945	4238.38
965.171	4119.38
965.398	4169.38
965.624	4147.38
965.85	4077.38
966.076	4064.38
966.302	4126.38
966.528	4075.38
966.754	4090.38
966.98	4062.38
967.206	4039.38
967.431	3996.38
967.657	4048.38
967.883	4020.38
968.109	4002.38
968.334	3950.38
968.56	3916.38
968.785	3933.38
969.011	3872.38
969.236	3948.38
969.462	3881.38
969.687	3896.38
969.912	3905.38
970.138	3892.38
970.363	3823.38
970.588	3862.38
970.813	3785.38
971.038	3725.38
971.263	3823.38
971.488	3824.38
971.713	3805.38
971.938	3752.38
972.163	3690.38
972.388	3707.38
972.613	3616.38
972.838	3724.38
973.062	3658.38
973.287	3619.38
973.512	3557.38
973.736	3589.38
973.961	3539.38
974.185	3536.38
974.41	3549.38
974.634	3425.38
974.858	3488.38
975.083	3470.38
975.307	3450.38
975.531	3399.38
975.755	3331.38
975.98	3345.38
976.204	3286.38
976.428	3263.38
976.652	3314.38
976.876	3212.38
977.1	3290.38
977.324	3234.38
977.547	3330.38
977.771	3305.38
977.995	3248.38
978.219	3179.38
978.442	3287.38
978.666	3206.38
978.89	3193.38
979.113	3150.38
979.337	3178.38
979.56	3140.38
979.783	3239.38
980.007	3132.38
980.23	3098.38
980.453	3069.38
980.677	3078.38
980.9	3110.38
981.123	3014.38
981.346	3075.38
981.569	3041.38
981.792	3064.38
982.015	3010.38
982.238	2958.38
982.461	3000.38
982.684	2905.38
982.907	2900.38
983.129	2889.38
983.352	2935.38
983.575	2911.38
983.797	2893.38
984.02	2804.38
984.242	2833.38
984.465	2837.38
984.687	2839.38
984.91	2853.38
985.132	2833.38
985.354	2809.38
985.577	2828.38
985.799	2745.38
986.021	2661.38
986.243	2739.38
986.465	2724.38
986.687	2757.38
986.909	2818.38
987.131	2704.38
987.353	2695.38
987.575	2713.38
987.797	2678.38
988.019	2615.38
988.241	2690.38
988.462	2614.38
988.684	2655.38
988.906	2700.38
989.127	2715.38
989.349	2576.38
989.57	2588.38
989.792	2599.38
990.013	2618.38
990.234	2617.38
990.456	2666.38
990.677	2637.38
990.898	2564.38
991.119	2555.38
991.341	2613.38
991.562	2497.38
991.783	2505.38
992.004	2473.38
992.225	2456.38
992.446	2500.38
992.667	2401.38
992.887	2462.38
993.108	2351.38
993.329	2468.38
993.55	2425.38
993.77	2345.38
993.991	2376.38
994.212	2376.38
994.432	2327.38
994.653	2355.38
994.873	2334.38
995.093	2200.38
995.314	2247.38
995.534	2332.38
995.754	2320.38
995.975	2359.38
996.195	2236.38
996.415	2284.38
996.635	2249.38
996.855	2243.38
997.075	2240.38
997.295	2209.38
997.515	2222.38
997.735	2244.38
997.955	2219.38
998.174	2196.38
998.394	2184.38
998.614	2246.38
998.834	2185.38
999.053	2241.38
999.273	2202.38
999.492	2246.38
999.712	2164.38
999.931	2163.38
1000.151	2139.38
1000.37	2146.38
1000.589	2200.38
1000.809	2120.38
1001.028	2234.38
1001.247	2117.38
1001.466	2027.38
1001.685	2185.38
1001.904	2084.38
1002.123	2076.38
1002.342	2088.38
1002.561	2041.38
1002.78	2046.38
1002.999	2099.38
1003.218	2067.38
1003.436	1997.38
1003.655	2034.38
1003.874	1989.38
1004.092	2014.38
1004.311	2037.38
1004.53	1992.38
1004.748	2074.38
1004.966	1979.38
1005.185	2028.38
1005.403	2030.38
1005.622	1985.38
1005.84	2060.38
1006.058	1948.38
1006.276	1982.38
1006.494	2449.38
1006.712	1962.38
1006.931	2023.38
1007.149	1923.38
1007.367	1937.38
1007.584	1993.38
1007.802	1990.38
1008.02	1930.38
1008.238	2029.38
1008.456	2040.38
1008.673	1904.38
1008.891	2016.38
1009.109	1990.38
1009.326	2013.38
1009.544	2102.38
1009.761	2009.38
1009.979	2092.38
1010.196	2088.38
1010.413	2195.38
1010.631	2241.38
1010.848	2256.38
1011.065	2270.38
1011.282	2223.38
1011.5	2173.38
1011.717	2279.38
1011.934	2215.38
1012.151	2248.38
1012.368	2217.38
1012.585	2188.38
1012.801	2182.38
1013.018	2188.38
1013.235	2129.38
1013.452	2116.38
1013.669	2149.38
1013.885	2145.38
1014.102	2169.38
1014.318	2129.38
1014.535	2094.38
1014.751	2132.38
1014.968	2140.38
1015.184	2104.38
1015.401	2058.38
1015.617	2074.38
1015.833	2032.38
1016.049	2039.38
1016.266	1996.38
1016.482	1987.38
1016.698	1891.38
1016.914	1949.38
1017.13	1864.38
1017.346	1899.38
1017.562	1958.38
1017.778	1873.38
1017.993	1863.38
1018.209	1867.38
1018.425	1851.38
1018.641	1857.38
1018.856	1831.38
1019.072	1834.38
1019.288	1862.38
1019.503	1806.38
1019.719	1740.38
1019.934	1748.38
1020.149	1854.38
1020.365	1749.38
1020.58	1702.38
1020.795	1735.38
1021.011	1663.38
1021.226	1638.38
1021.441	1665.38
1021.656	1569.38
1021.871	1502.38
1022.086	1492.38
1022.301	1507.38
1022.516	1470.38
1022.731	1523.38
1022.946	1400.38
1023.16	1404.38
1023.375	1357.38
1023.59	1345.38
1023.804	1321.38
1024.019	1402.38
1024.234	1288.38
1024.448	1297.38
1024.663	1194.38
1024.877	1234.38
1025.092	1247.38
1025.306	1230.38
1025.52	1152.38
1025.734	1205.38
1025.949	1110.38
1026.163	1105.38
1026.377	1017.38
1026.591	1069.38
1026.805	988.38
1027.019	1007.38
1027.233	964.38
1027.447	896.38
1027.661	1002.38
1027.875	922.38
1028.088	934.38
1028.302	858.38
1028.516	846.38
1028.73	848.38
1028.943	831.38
1029.157	777.38
1029.37	710.38
1029.584	-1.62
1029.797	-5.62
1030.011	-3.62
1030.224	-0.62
