Data from QEP037381__163__11-16-35-919.txt Node

Date: Fri Apr 28 11:16:35 EDT 2023
User: dcclab
Spectrometer: QEP03738
Trigger mode: 4
Integration Time (sec): 1.000000E1
Scans to average: 1
Electric dark correction enabled: true
Nonlinearity correction enabled: false
Boxcar width: 0
XAxis mode: Wavelengths
Number of Pixels in Spectrum: 1044
>>>>>Begin Spectral Data<<<<<
784.041	10.12
784.3	1.12
784.558	-3.88
784.817	-3.88
785.075	79231.12
785.334	16021.12
785.592	8360.12
785.851	5927.12
786.109	4490.12
786.368	3511.12
786.626	2849.12
786.884	2362.12
787.143	1978.12
787.401	1653.12
787.659	1465.12
787.917	1285.12
788.175	1141.12
788.433	1025.12
788.691	878.12
788.949	830.12
789.207	800.12
789.465	686.12
789.723	674.12
789.98	604.12
790.238	634.12
790.496	608.12
790.753	559.12
791.011	616.12
791.268	570.12
791.526	534.12
791.783	545.12
792.041	528.12
792.298	446.12
792.556	506.12
792.813	486.12
793.07	461.12
793.327	456.12
793.584	523.12
793.841	461.12
794.099	471.12
794.356	535.12
794.613	442.12
794.869	471.12
795.126	427.12
795.383	417.12
795.64	436.12
795.897	394.12
796.153	440.12
796.41	437.12
796.667	415.12
796.923	431.12
797.18	442.12
797.436	458.12
797.693	414.12
797.949	484.12
798.206	504.12
798.462	406.12
798.718	452.12
798.974	455.12
799.231	496.12
799.487	485.12
799.743	490.12
799.999	502.12
800.255	523.12
800.511	509.12
800.767	535.12
801.023	556.12
801.279	587.12
801.534	623.12
801.79	675.12
802.046	725.12
802.302	885.12
802.557	1030.12
802.813	1324.12
803.068	1699.12
803.324	2392.12
803.579	3284.12
803.835	4594.12
804.09	6328.12
804.345	7984.12
804.601	9717.12
804.856	11302.12
805.111	12532.12
805.366	13327.12
805.621	13976.12
805.876	14433.12
806.131	14759.12
806.386	14958.12
806.641	15174.12
806.896	15368.12
807.151	15743.12
807.406	15944.12
807.661	16198.12
807.915	16409.12
808.17	16710.12
808.425	16909.12
808.679	17026.12
808.934	17329.12
809.188	17432.12
809.443	17666.12
809.697	17898.12
809.951	18033.12
810.206	18101.12
810.46	18364.12
810.714	18392.12
810.968	18548.12
811.223	18792.12
811.477	18894.12
811.731	18891.12
811.985	19044.12
812.239	19089.12
812.493	19178.12
812.747	19309.12
813	19334.12
813.254	19436.12
813.508	19565.12
813.762	19494.12
814.015	19645.12
814.269	19801.12
814.522	19927.12
814.776	20212.12
815.03	20367.12
815.283	20721.12
815.536	20912.12
815.79	21294.12
816.043	21559.12
816.296	21796.12
816.55	22043.12
816.803	22378.12
817.056	22654.12
817.309	22875.12
817.562	23014.12
817.815	23331.12
818.068	23564.12
818.321	23796.12
818.574	24119.12
818.827	24328.12
819.079	24774.12
819.332	25273.12
819.585	25568.12
819.838	25902.12
820.09	25878.12
820.343	26241.12
820.595	26214.12
820.848	26468.12
821.1	26554.12
821.353	26638.12
821.605	26508.12
821.857	26472.12
822.11	26240.12
822.362	26336.12
822.614	26235.12
822.866	26315.12
823.118	26185.12
823.37	26361.12
823.622	26484.12
823.874	26624.12
824.126	26842.12
824.378	26534.12
824.63	26813.12
824.882	26729.12
825.134	26753.12
825.385	26760.12
825.637	26692.12
825.888	26556.12
826.14	26523.12
826.392	26368.12
826.643	26197.12
826.895	26267.12
827.146	26076.12
827.397	26081.12
827.649	26032.12
827.9	25998.12
828.151	25957.12
828.402	26069.12
828.653	26170.12
828.905	26198.12
829.156	26319.12
829.407	26180.12
829.658	26218.12
829.909	26347.12
830.159	26329.12
830.41	26000.12
830.661	25954.12
830.912	25805.12
831.162	25738.12
831.413	25677.12
831.664	25714.12
831.914	25762.12
832.165	25717.12
832.415	25563.12
832.666	25653.12
832.916	25652.12
833.167	25604.12
833.417	25505.12
833.667	25396.12
833.917	25355.12
834.168	25442.12
834.418	25194.12
834.668	25075.12
834.918	24955.12
835.168	24938.12
835.418	24775.12
835.668	24747.12
835.918	24666.12
836.167	24573.12
836.417	24371.12
836.667	24392.12
836.917	24521.12
837.166	24389.12
837.416	24557.12
837.666	24394.12
837.915	24358.12
838.165	24237.12
838.414	24222.12
838.663	24193.12
838.913	24109.12
839.162	24156.12
839.411	24226.12
839.661	24026.12
839.91	23840.12
840.159	23909.12
840.408	23883.12
840.657	23973.12
840.906	23943.12
841.155	24036.12
841.404	23890.12
841.653	23879.12
841.902	23879.12
842.15	23888.12
842.399	23950.12
842.648	23948.12
842.897	23822.12
843.145	23607.12
843.394	23410.12
843.642	23258.12
843.891	23283.12
844.139	23120.12
844.388	22998.12
844.636	22751.12
844.884	22866.12
845.133	22773.12
845.381	22806.12
845.629	22789.12
845.877	22714.12
846.125	22749.12
846.373	22716.12
846.621	22686.12
846.869	22526.12
847.117	22477.12
847.365	22185.12
847.613	22265.12
847.861	22248.12
848.108	22106.12
848.356	22153.12
848.604	22152.12
848.851	22137.12
849.099	22114.12
849.346	22176.12
849.594	22173.12
849.841	22351.12
850.089	22294.12
850.336	22267.12
850.583	22256.12
850.831	22195.12
851.078	22120.12
851.325	22041.12
851.572	22027.12
851.819	21802.12
852.066	21416.12
852.313	21041.12
852.56	20911.12
852.807	20865.12
853.054	20867.12
853.301	20824.12
853.548	20789.12
853.794	20969.12
854.041	21023.12
854.288	21068.12
854.534	21249.12
854.781	21274.12
855.028	21141.12
855.274	21091.12
855.52	21069.12
855.767	20987.12
856.013	20998.12
856.26	21195.12
856.506	20637.12
856.752	20706.12
856.998	20651.12
857.244	20596.12
857.49	20902.12
857.736	20836.12
857.982	20769.12
858.228	20749.12
858.474	20595.12
858.72	20461.12
858.966	20131.12
859.212	19982.12
859.458	19790.12
859.703	19675.12
859.949	19356.12
860.195	19303.12
860.44	19285.12
860.686	19218.12
860.931	19144.12
861.177	19017.12
861.422	18909.12
861.667	18772.12
861.913	18934.12
862.158	18848.12
862.403	18886.12
862.648	18958.12
862.893	18924.12
863.138	18910.12
863.384	18786.12
863.629	18808.12
863.873	18725.12
864.118	18646.12
864.363	18513.12
864.608	18508.12
864.853	18409.12
865.098	18118.12
865.342	18194.12
865.587	18264.12
865.832	18124.12
866.076	18078.12
866.321	17956.12
866.565	17983.12
866.81	17883.12
867.054	17825.12
867.298	17844.12
867.543	17670.12
867.787	17860.12
868.031	17787.12
868.275	17643.12
868.519	17695.12
868.764	17675.12
869.008	17570.12
869.252	17624.12
869.496	17535.12
869.739	17544.12
869.983	17542.12
870.227	17577.12
870.471	17559.12
870.715	17610.12
870.958	17671.12
871.202	17674.12
871.446	17813.12
871.689	17658.12
871.933	17642.12
872.176	17681.12
872.42	17599.12
872.663	17521.12
872.906	17602.12
873.15	17562.12
873.393	17489.12
873.636	17415.12
873.879	17139.12
874.122	17018.12
874.366	16830.12
874.609	16594.12
874.852	16453.12
875.095	16347.12
875.337	16338.12
875.58	16274.12
875.823	16226.12
876.066	16194.12
876.309	16093.12
876.551	16012.12
876.794	15938.12
877.037	15945.12
877.279	15906.12
877.522	15836.12
877.764	15872.12
878.007	15856.12
878.249	15829.12
878.491	15780.12
878.734	15779.12
878.976	15660.12
879.218	15470.12
879.46	15488.12
879.702	15361.12
879.945	15272.12
880.187	15106.12
880.429	14899.12
880.671	14854.12
880.912	14796.12
881.154	14793.12
881.396	14732.12
881.638	14786.12
881.88	14697.12
882.121	14738.12
882.363	14692.12
882.605	14701.12
882.846	14661.12
883.088	14667.12
883.329	14621.12
883.571	14782.12
883.812	14914.12
884.053	15202.12
884.295	15487.12
884.536	15677.12
884.777	15549.12
885.018	15407.12
885.259	15210.12
885.5	15124.12
885.742	15254.12
885.982	15049.12
886.223	14962.12
886.464	14856.12
886.705	14612.12
886.946	14441.12
887.187	14275.12
887.428	14095.12
887.668	13830.12
887.909	13652.12
888.15	13489.12
888.39	13352.12
888.631	13343.12
888.871	13197.12
889.111	13023.12
889.352	13036.12
889.592	12895.12
889.833	12828.12
890.073	12698.12
890.313	12619.12
890.553	12502.12
890.793	12508.12
891.033	12436.12
891.273	12332.12
891.513	12238.12
891.753	12279.12
891.993	12263.12
892.233	12269.12
892.473	12401.12
892.713	12282.12
892.952	12278.12
893.192	12312.12
893.432	12174.12
893.671	12261.12
893.911	12119.12
894.15	12063.12
894.39	11924.12
894.629	12015.12
894.869	11865.12
895.108	11656.12
895.347	11679.12
895.587	11701.12
895.826	11534.12
896.065	11607.12
896.304	11530.12
896.543	11563.12
896.782	11473.12
897.021	11453.12
897.26	11400.12
897.499	11541.12
897.738	11435.12
897.977	11382.12
898.216	11191.12
898.454	11193.12
898.693	11099.12
898.932	11063.12
899.17	11017.12
899.409	10982.12
899.647	10978.12
899.886	10958.12
900.124	11025.12
900.363	10850.12
900.601	10990.12
900.839	11060.12
901.078	11037.12
901.316	11116.12
901.554	11130.12
901.792	11242.12
902.03	11187.12
902.268	11181.12
902.506	11157.12
902.744	11047.12
902.982	10912.12
903.22	10786.12
903.458	10617.12
903.695	10531.12
903.933	10331.12
904.171	10082.12
904.409	9999.12
904.646	9974.12
904.884	9763.12
905.121	9740.12
905.359	9610.12
905.596	9511.12
905.833	9410.12
906.071	9398.12
906.308	9385.12
906.545	9360.12
906.783	9292.12
907.02	9332.12
907.257	9206.12
907.494	9232.12
907.731	9239.12
907.968	9129.12
908.205	9073.12
908.442	8980.12
908.679	9040.12
908.915	8878.12
909.152	8868.12
909.389	8805.12
909.626	8704.12
909.862	8643.12
910.099	8652.12
910.335	8592.12
910.572	8401.12
910.808	8485.12
911.045	8507.12
911.281	8390.12
911.518	8492.12
911.754	8320.12
911.99	8297.12
912.226	8251.12
912.463	8164.12
912.699	8061.12
912.935	8087.12
913.171	7954.12
913.407	7903.12
913.643	7923.12
913.879	7834.12
914.114	7759.12
914.35	7624.12
914.586	7581.12
914.822	7505.12
915.057	7526.12
915.293	7414.12
915.529	7347.12
915.764	7457.12
916	7419.12
916.235	7298.12
916.471	7416.12
916.706	7223.12
916.941	7247.12
917.177	7295.12
917.412	7267.12
917.647	7267.12
917.882	7253.12
918.117	7295.12
918.352	7188.12
918.588	7216.12
918.823	7071.12
919.057	7047.12
919.292	6887.12
919.527	6958.12
919.762	6860.12
919.997	6783.12
920.232	6683.12
920.466	6652.12
920.701	6556.12
920.935	6544.12
921.17	6439.12
921.405	6508.12
921.639	6499.12
921.873	6407.12
922.108	6452.12
922.342	6425.12
922.576	6315.12
922.811	6275.12
923.045	6353.12
923.279	6309.12
923.513	6233.12
923.747	6255.12
923.981	6236.12
924.215	6139.12
924.449	6104.12
924.683	6046.12
924.917	5992.12
925.151	5953.12
925.385	6082.12
925.618	5982.12
925.852	5917.12
926.086	5870.12
926.319	5964.12
926.553	5865.12
926.786	5910.12
927.02	5880.12
927.253	5900.12
927.486	5874.12
927.72	5793.12
927.953	5866.12
928.186	5778.12
928.42	5866.12
928.653	5764.12
928.886	5704.12
929.119	5764.12
929.352	5669.12
929.585	5638.12
929.818	5564.12
930.051	5555.12
930.284	5485.12
930.516	5420.12
930.749	5406.12
930.982	5468.12
931.215	5425.12
931.447	5389.12
931.68	5303.12
931.912	5283.12
932.145	5282.12
932.377	5306.12
932.61	5451.12
932.842	5251.12
933.074	5330.12
933.307	5276.12
933.539	5291.12
933.771	5344.12
934.003	5214.12
934.236	5353.12
934.468	5368.12
934.7	5212.12
934.932	5254.12
935.164	5169.12
935.395	5174.12
935.627	5171.12
935.859	5162.12
936.091	5058.12
936.323	5153.12
936.554	5094.12
936.786	5105.12
937.017	5070.12
937.249	5082.12
937.481	5007.12
937.712	5043.12
937.943	4999.12
938.175	4988.12
938.406	5011.12
938.637	4981.12
938.869	4908.12
939.1	4973.12
939.331	4904.12
939.562	4934.12
939.793	4977.12
940.024	4961.12
940.255	4828.12
940.486	4850.12
940.717	4819.12
940.948	4780.12
941.179	4776.12
941.409	4763.12
941.64	4691.12
941.871	4710.12
942.102	4747.12
942.332	4752.12
942.563	4739.12
942.793	4734.12
943.024	4668.12
943.254	4726.12
943.484	4719.12
943.715	4791.12
943.945	4752.12
944.175	4644.12
944.405	4657.12
944.636	4640.12
944.866	4705.12
945.096	4674.12
945.326	4628.12
945.556	4673.12
945.786	4612.12
946.016	4604.12
946.245	4494.12
946.475	4517.12
946.705	4484.12
946.935	4456.12
947.164	4439.12
947.394	4424.12
947.624	4421.12
947.853	4390.12
948.083	4380.12
948.312	4370.12
948.542	4316.12
948.771	4237.12
949	4319.12
949.23	4328.12
949.459	4289.12
949.688	4365.12
949.917	4246.12
950.146	4279.12
950.375	4344.12
950.604	4233.12
950.833	4277.12
951.062	4299.12
951.291	4251.12
951.52	4161.12
951.749	4264.12
951.978	4198.12
952.206	4170.12
952.435	4140.12
952.664	4177.12
952.892	4174.12
953.121	4196.12
953.349	4153.12
953.578	4100.12
953.806	4055.12
954.035	4056.12
954.263	4056.12
954.491	3977.12
954.719	4047.12
954.948	3989.12
955.176	3972.12
955.404	3844.12
955.632	3949.12
955.86	3903.12
956.088	3880.12
956.316	3874.12
956.544	3901.12
956.772	3873.12
956.999	3810.12
957.227	3881.12
957.455	3746.12
957.683	3766.12
957.91	3682.12
958.138	3722.12
958.365	3691.12
958.593	3696.12
958.82	3652.12
959.048	3678.12
959.275	3677.12
959.502	3643.12
959.73	3604.12
959.957	3644.12
960.184	3653.12
960.411	3626.12
960.638	3688.12
960.865	3621.12
961.092	3628.12
961.319	3529.12
961.546	3652.12
961.773	3610.12
962	3583.12
962.227	3612.12
962.454	3573.12
962.68	3531.12
962.907	3590.12
963.134	3459.12
963.36	3489.12
963.587	3532.12
963.813	3405.12
964.04	3474.12
964.266	3360.12
964.493	3454.12
964.719	3403.12
964.945	3437.12
965.171	3307.12
965.398	3348.12
965.624	3347.12
965.85	3295.12
966.076	3266.12
966.302	3285.12
966.528	3226.12
966.754	3293.12
966.98	3216.12
967.206	3226.12
967.431	3196.12
967.657	3244.12
967.883	3232.12
968.109	3183.12
968.334	3156.12
968.56	3168.12
968.785	3149.12
969.011	3134.12
969.236	3202.12
969.462	3100.12
969.687	3102.12
969.912	3153.12
970.138	3153.12
970.363	3104.12
970.588	3097.12
970.813	3074.12
971.038	3076.12
971.263	3047.12
971.488	3013.12
971.713	3055.12
971.938	3051.12
972.163	2980.12
972.388	2966.12
972.613	2925.12
972.838	2921.12
973.062	2939.12
973.287	2906.12
973.512	2877.12
973.736	2901.12
973.961	2867.12
974.185	2874.12
974.41	2883.12
974.634	2784.12
974.858	2835.12
975.083	2815.12
975.307	2835.12
975.531	2734.12
975.755	2664.12
975.98	2705.12
976.204	2648.12
976.428	2641.12
976.652	2653.12
976.876	2618.12
977.1	2658.12
977.324	2639.12
977.547	2680.12
977.771	2621.12
977.995	2630.12
978.219	2544.12
978.442	2692.12
978.666	2639.12
978.89	2619.12
979.113	2617.12
979.337	2586.12
979.56	2533.12
979.783	2659.12
980.007	2507.12
980.23	2536.12
980.453	2503.12
980.677	2527.12
980.9	2529.12
981.123	2409.12
981.346	2539.12
981.569	2487.12
981.792	2528.12
982.015	2482.12
982.238	2410.12
982.461	2437.12
982.684	2392.12
982.907	2356.12
983.129	2353.12
983.352	2384.12
983.575	2396.12
983.797	2360.12
984.02	2325.12
984.242	2299.12
984.465	2295.12
984.687	2347.12
984.91	2359.12
985.132	2350.12
985.354	2360.12
985.577	2319.12
985.799	2297.12
986.021	2227.12
986.243	2285.12
986.465	2285.12
986.687	2304.12
986.909	2324.12
987.131	2266.12
987.353	2215.12
987.575	2269.12
987.797	2216.12
988.019	2177.12
988.241	2230.12
988.462	2180.12
988.684	2197.12
988.906	2246.12
989.127	2265.12
989.349	2120.12
989.57	2163.12
989.792	2190.12
990.013	2224.12
990.234	2186.12
990.456	2218.12
990.677	2196.12
990.898	2100.12
991.119	2158.12
991.341	2151.12
991.562	2087.12
991.783	2142.12
992.004	2078.12
992.225	2018.12
992.446	2057.12
992.667	2004.12
992.887	2059.12
993.108	1969.12
993.329	2082.12
993.55	2054.12
993.77	1958.12
993.991	1975.12
994.212	2000.12
994.432	2028.12
994.653	1971.12
994.873	1969.12
995.093	1889.12
995.314	1895.12
995.534	1962.12
995.754	1983.12
995.975	2020.12
996.195	1894.12
996.415	1934.12
996.635	1899.12
996.855	1920.12
997.075	1905.12
997.295	1905.12
997.515	1886.12
997.735	1926.12
997.955	1923.12
998.174	1891.12
998.394	1873.12
998.614	1941.12
998.834	1876.12
999.053	1936.12
999.273	1877.12
999.492	1938.12
999.712	1885.12
999.931	1808.12
1000.151	1880.12
1000.37	1848.12
1000.589	1913.12
1000.809	1819.12
1001.028	1939.12
1001.247	1858.12
1001.466	1742.12
1001.685	1911.12
1001.904	1804.12
1002.123	1799.12
1002.342	1800.12
1002.561	1749.12
1002.78	1782.12
1002.999	1839.12
1003.218	1779.12
1003.436	1756.12
1003.655	1788.12
1003.874	1734.12
1004.092	1714.12
1004.311	1792.12
1004.53	1763.12
1004.748	1794.12
1004.966	1710.12
1005.185	1789.12
1005.403	1782.12
1005.622	1762.12
1005.84	1827.12
1006.058	1733.12
1006.276	1735.12
1006.494	2105.12
1006.712	1754.12
1006.931	1844.12
1007.149	1729.12
1007.367	1716.12
1007.584	1793.12
1007.802	1822.12
1008.02	1766.12
1008.238	1873.12
1008.456	1841.12
1008.673	1713.12
1008.891	1846.12
1009.109	1850.12
1009.326	1878.12
1009.544	1960.12
1009.761	1890.12
1009.979	2026.12
1010.196	2020.12
1010.413	2150.12
1010.631	2223.12
1010.848	2272.12
1011.065	2278.12
1011.282	2194.12
1011.5	2178.12
1011.717	2248.12
1011.934	2217.12
1012.151	2245.12
1012.368	2206.12
1012.585	2156.12
1012.801	2199.12
1013.018	2179.12
1013.235	2156.12
1013.452	2165.12
1013.669	2205.12
1013.885	2176.12
1014.102	2205.12
1014.318	2174.12
1014.535	2152.12
1014.751	2169.12
1014.968	2157.12
1015.184	2175.12
1015.401	2070.12
1015.617	2103.12
1015.833	2008.12
1016.049	2013.12
1016.266	2002.12
1016.482	2051.12
1016.698	1921.12
1016.914	1976.12
1017.13	1906.12
1017.346	1943.12
1017.562	1963.12
1017.778	1874.12
1017.993	1862.12
1018.209	1940.12
1018.425	1893.12
1018.641	1891.12
1018.856	1875.12
1019.072	1850.12
1019.288	1894.12
1019.503	1852.12
1019.719	1761.12
1019.934	1803.12
1020.149	1871.12
1020.365	1784.12
1020.58	1731.12
1020.795	1759.12
1021.011	1686.12
1021.226	1634.12
1021.441	1643.12
1021.656	1570.12
1021.871	1483.12
1022.086	1476.12
1022.301	1480.12
1022.516	1464.12
1022.731	1470.12
1022.946	1416.12
1023.16	1376.12
1023.375	1369.12
1023.59	1298.12
1023.804	1286.12
1024.019	1359.12
1024.234	1241.12
1024.448	1256.12
1024.663	1206.12
1024.877	1184.12
1025.092	1220.12
1025.306	1211.12
1025.52	1116.12
1025.734	1191.12
1025.949	1068.12
1026.163	1064.12
1026.377	993.12
1026.591	1033.12
1026.805	962.12
1027.019	973.12
1027.233	929.12
1027.447	884.12
1027.661	978.12
1027.875	898.12
1028.088	917.12
1028.302	842.12
1028.516	805.12
1028.73	815.12
1028.943	795.12
1029.157	751.12
1029.37	712.12
1029.584	-0.88
1029.797	-1.88
1030.011	-0.88
1030.224	0.12
