Data from QEP037381__147__11-13-55-918.txt Node

Date: Fri Apr 28 11:13:55 EDT 2023
User: dcclab
Spectrometer: QEP03738
Trigger mode: 4
Integration Time (sec): 1.000000E1
Scans to average: 1
Electric dark correction enabled: true
Nonlinearity correction enabled: false
Boxcar width: 0
XAxis mode: Wavelengths
Number of Pixels in Spectrum: 1044
>>>>>Begin Spectral Data<<<<<
784.041	14.5
784.3	0.5
784.558	0.5
784.817	-4.5
785.075	80159.5
785.334	16018.5
785.592	8290.5
785.851	5845.5
786.109	4446.5
786.368	3453.5
786.626	2812.5
786.884	2326.5
787.143	1956.5
787.401	1603.5
787.659	1462.5
787.917	1268.5
788.175	1139.5
788.433	968.5
788.691	897.5
788.949	825.5
789.207	786.5
789.465	697.5
789.723	658.5
789.98	629.5
790.238	642.5
790.496	624.5
790.753	586.5
791.011	638.5
791.268	575.5
791.526	545.5
791.783	555.5
792.041	544.5
792.298	458.5
792.556	541.5
792.813	502.5
793.07	497.5
793.327	473.5
793.584	556.5
793.841	483.5
794.099	498.5
794.356	550.5
794.613	454.5
794.869	496.5
795.126	453.5
795.383	436.5
795.64	471.5
795.897	413.5
796.153	471.5
796.41	469.5
796.667	443.5
796.923	454.5
797.18	469.5
797.436	501.5
797.693	456.5
797.949	511.5
798.206	537.5
798.462	454.5
798.718	509.5
798.974	494.5
799.231	541.5
799.487	546.5
799.743	553.5
799.999	572.5
800.255	581.5
800.511	571.5
800.767	633.5
801.023	647.5
801.279	688.5
801.534	747.5
801.79	826.5
802.046	919.5
802.302	1132.5
802.557	1362.5
802.813	1828.5
803.068	2425.5
803.324	3528.5
803.579	4922.5
803.835	6845.5
804.09	9237.5
804.345	11744.5
804.601	14298.5
804.856	16412.5
805.111	18238.5
805.366	19459.5
805.621	20183.5
805.876	20955.5
806.131	21355.5
806.386	21771.5
806.641	22111.5
806.896	22399.5
807.151	22817.5
807.406	23141.5
807.661	23596.5
807.915	23976.5
808.17	24304.5
808.425	24740.5
808.679	24881.5
808.934	25168.5
809.188	25498.5
809.443	25853.5
809.697	26090.5
809.951	26307.5
810.206	26583.5
810.46	26779.5
810.714	27029.5
810.968	27127.5
811.223	27338.5
811.477	27663.5
811.731	27796.5
811.985	28005.5
812.239	28062.5
812.493	28242.5
812.747	28299.5
813	28411.5
813.254	28598.5
813.508	28855.5
813.762	28824.5
814.015	28990.5
814.269	29242.5
814.522	29348.5
814.776	29705.5
815.03	30072.5
815.283	30547.5
815.536	30959.5
815.79	31462.5
816.043	31755.5
816.296	32217.5
816.55	32706.5
816.803	32876.5
817.056	33385.5
817.309	33838.5
817.562	34165.5
817.815	34563.5
818.068	34816.5
818.321	35345.5
818.574	35583.5
818.827	36288.5
819.079	36696.5
819.332	37436.5
819.585	37757.5
819.838	38321.5
820.09	38561.5
820.343	38722.5
820.595	38929.5
820.848	39285.5
821.1	39532.5
821.353	39505.5
821.605	39456.5
821.857	39481.5
822.11	39226.5
822.362	39368.5
822.614	39125.5
822.866	39097.5
823.118	39187.5
823.37	39341.5
823.622	39435.5
823.874	39575.5
824.126	39738.5
824.378	39748.5
824.63	40000.5
824.882	40118.5
825.134	39922.5
825.385	39969.5
825.637	39861.5
825.888	39763.5
826.14	39645.5
826.392	39687.5
826.643	39327.5
826.895	39179.5
827.146	39074.5
827.397	38945.5
827.649	39069.5
827.9	38968.5
828.151	39067.5
828.402	39143.5
828.653	39158.5
828.905	39283.5
829.156	39538.5
829.407	39275.5
829.658	39335.5
829.909	39461.5
830.159	39511.5
830.41	39283.5
830.661	39046.5
830.912	38797.5
831.162	38558.5
831.413	38468.5
831.664	38514.5
831.914	38555.5
832.165	38452.5
832.415	38470.5
832.666	38471.5
832.916	38618.5
833.167	38465.5
833.417	38313.5
833.667	38119.5
833.917	38057.5
834.168	38122.5
834.418	38005.5
834.668	37836.5
834.918	37518.5
835.168	37365.5
835.418	37348.5
835.668	37187.5
835.918	37096.5
836.167	37188.5
836.417	36860.5
836.667	36976.5
836.917	36935.5
837.166	36720.5
837.416	36916.5
837.666	36832.5
837.915	36784.5
838.165	36630.5
838.414	36622.5
838.663	36393.5
838.913	36275.5
839.162	36246.5
839.411	36401.5
839.661	36266.5
839.91	36179.5
840.159	36048.5
840.408	36141.5
840.657	36079.5
840.906	35857.5
841.155	36204.5
841.404	36039.5
841.653	36180.5
841.902	36244.5
842.15	36211.5
842.399	36261.5
842.648	36137.5
842.897	36033.5
843.145	35724.5
843.394	35585.5
843.642	35298.5
843.891	35096.5
844.139	35064.5
844.388	34776.5
844.636	34762.5
844.884	34729.5
845.133	34532.5
845.381	34534.5
845.629	34525.5
845.877	34485.5
846.125	34489.5
846.373	34371.5
846.621	34151.5
846.869	34228.5
847.117	34003.5
847.365	33725.5
847.613	33782.5
847.861	33562.5
848.108	33591.5
848.356	33617.5
848.604	33527.5
848.851	33382.5
849.099	33479.5
849.346	33513.5
849.594	33665.5
849.841	33729.5
850.089	33846.5
850.336	33947.5
850.583	34027.5
850.831	33731.5
851.078	33434.5
851.325	33322.5
851.572	33287.5
851.819	32870.5
852.066	32492.5
852.313	31986.5
852.56	31740.5
852.807	31692.5
853.054	31589.5
853.301	31449.5
853.548	31490.5
853.794	31707.5
854.041	31848.5
854.288	31908.5
854.534	32367.5
854.781	32227.5
855.028	32103.5
855.274	32047.5
855.52	31828.5
855.767	31705.5
856.013	31734.5
856.26	32019.5
856.506	31441.5
856.752	31427.5
856.998	31279.5
857.244	31369.5
857.49	31538.5
857.736	31719.5
857.982	31547.5
858.228	31464.5
858.474	31127.5
858.72	31096.5
858.966	30523.5
859.212	30361.5
859.458	30170.5
859.703	29851.5
859.949	29459.5
860.195	29458.5
860.44	29210.5
860.686	29213.5
860.931	29105.5
861.177	28934.5
861.422	28926.5
861.667	28581.5
861.913	28674.5
862.158	28648.5
862.403	28703.5
862.648	28835.5
862.893	28824.5
863.138	28873.5
863.384	28589.5
863.629	28638.5
863.873	28555.5
864.118	28341.5
864.363	28191.5
864.608	28191.5
864.853	28055.5
865.098	27860.5
865.342	27691.5
865.587	27736.5
865.832	27674.5
866.076	27518.5
866.321	27394.5
866.565	27408.5
866.81	27234.5
867.054	27231.5
867.298	27090.5
867.543	27111.5
867.787	27117.5
868.031	27020.5
868.275	26870.5
868.519	26966.5
868.764	27015.5
869.008	26757.5
869.252	26850.5
869.496	26637.5
869.739	26617.5
869.983	26542.5
870.227	26664.5
870.471	26545.5
870.715	26834.5
870.958	26811.5
871.202	26898.5
871.446	26876.5
871.689	26837.5
871.933	26818.5
872.176	26719.5
872.42	26603.5
872.663	26529.5
872.906	26549.5
873.15	26487.5
873.393	26392.5
873.636	26307.5
873.879	25953.5
874.122	25651.5
874.366	25340.5
874.609	25222.5
874.852	25040.5
875.095	24903.5
875.337	24795.5
875.58	24615.5
875.823	24629.5
876.066	24587.5
876.309	24459.5
876.551	24271.5
876.794	24154.5
877.037	24132.5
877.279	24083.5
877.522	24072.5
877.764	24054.5
878.007	23937.5
878.249	23956.5
878.491	23820.5
878.734	23927.5
878.976	23828.5
879.218	23660.5
879.46	23455.5
879.702	23406.5
879.945	23080.5
880.187	22994.5
880.429	22769.5
880.671	22660.5
880.912	22638.5
881.154	22441.5
881.396	22309.5
881.638	22384.5
881.88	22418.5
882.121	22300.5
882.363	22297.5
882.605	22373.5
882.846	22164.5
883.088	22102.5
883.329	22120.5
883.571	22141.5
883.812	22458.5
884.053	22688.5
884.295	23191.5
884.536	23291.5
884.777	23030.5
885.018	22900.5
885.259	22806.5
885.5	22614.5
885.742	22781.5
885.982	22476.5
886.223	22323.5
886.464	22238.5
886.705	22001.5
886.946	21677.5
887.187	21406.5
887.428	21315.5
887.668	20801.5
887.909	20681.5
888.15	20422.5
888.39	20349.5
888.631	20219.5
888.871	20085.5
889.111	19863.5
889.352	19745.5
889.592	19496.5
889.833	19333.5
890.073	19261.5
890.313	19180.5
890.553	19024.5
890.793	18959.5
891.033	18840.5
891.273	18755.5
891.513	18619.5
891.753	18631.5
891.993	18531.5
892.233	18612.5
892.473	18708.5
892.713	18675.5
892.952	18564.5
893.192	18684.5
893.432	18590.5
893.671	18489.5
893.911	18383.5
894.15	18265.5
894.39	18180.5
894.629	17853.5
894.869	17990.5
895.108	17799.5
895.347	17654.5
895.587	17617.5
895.826	17540.5
896.065	17541.5
896.304	17431.5
896.543	17402.5
896.782	17369.5
897.021	17276.5
897.26	17335.5
897.499	17240.5
897.738	17140.5
897.977	17088.5
898.216	16951.5
898.454	16817.5
898.693	16757.5
898.932	16774.5
899.17	16607.5
899.409	16541.5
899.647	16521.5
899.886	16464.5
900.124	16607.5
900.363	16412.5
900.601	16596.5
900.839	16634.5
901.078	16583.5
901.316	16527.5
901.554	16693.5
901.792	16777.5
902.03	16813.5
902.268	16602.5
902.506	16734.5
902.744	16529.5
902.982	16409.5
903.22	16124.5
903.458	15898.5
903.695	15777.5
903.933	15559.5
904.171	15276.5
904.409	15023.5
904.646	14822.5
904.884	14711.5
905.121	14635.5
905.359	14427.5
905.596	14255.5
905.833	14159.5
906.071	14066.5
906.308	14126.5
906.545	14028.5
906.783	13984.5
907.02	13965.5
907.257	13895.5
907.494	13889.5
907.731	13883.5
907.968	13724.5
908.205	13666.5
908.442	13606.5
908.679	13533.5
908.915	13445.5
909.152	13250.5
909.389	13104.5
909.626	13064.5
909.862	12960.5
910.099	12985.5
910.335	12960.5
910.572	12695.5
910.808	12766.5
911.045	12766.5
911.281	12553.5
911.518	12647.5
911.754	12496.5
911.99	12508.5
912.226	12289.5
912.463	12257.5
912.699	12117.5
912.935	12054.5
913.171	11980.5
913.407	11845.5
913.643	11816.5
913.879	11710.5
914.114	11630.5
914.35	11425.5
914.586	11416.5
914.822	11226.5
915.057	11269.5
915.293	11103.5
915.529	11048.5
915.764	11083.5
916	11080.5
916.235	10993.5
916.471	10969.5
916.706	10820.5
916.941	10943.5
917.177	10766.5
917.412	10911.5
917.647	10849.5
917.882	10849.5
918.117	10803.5
918.352	10705.5
918.588	10807.5
918.823	10578.5
919.057	10510.5
919.292	10349.5
919.527	10412.5
919.762	10187.5
919.997	10053.5
920.232	9981.5
920.466	9934.5
920.701	9701.5
920.935	9762.5
921.17	9650.5
921.405	9634.5
921.639	9633.5
921.873	9604.5
922.108	9524.5
922.342	9509.5
922.576	9394.5
922.811	9381.5
923.045	9403.5
923.279	9410.5
923.513	9230.5
923.747	9289.5
923.981	9228.5
924.215	9126.5
924.449	9063.5
924.683	8942.5
924.917	8904.5
925.151	8865.5
925.385	8932.5
925.618	8824.5
925.852	8863.5
926.086	8737.5
926.319	8776.5
926.553	8704.5
926.786	8754.5
927.02	8706.5
927.253	8770.5
927.486	8753.5
927.72	8607.5
927.953	8651.5
928.186	8586.5
928.42	8609.5
928.653	8551.5
928.886	8479.5
929.119	8492.5
929.352	8408.5
929.585	8299.5
929.818	8262.5
930.051	8120.5
930.284	8187.5
930.516	7983.5
930.749	7977.5
930.982	7953.5
931.215	7973.5
931.447	7864.5
931.68	7844.5
931.912	7854.5
932.145	7817.5
932.377	7919.5
932.61	7946.5
932.842	7742.5
933.074	7801.5
933.307	7771.5
933.539	7780.5
933.771	7824.5
934.003	7755.5
934.236	7890.5
934.468	7806.5
934.7	7730.5
934.932	7700.5
935.164	7667.5
935.395	7598.5
935.627	7571.5
935.859	7589.5
936.091	7573.5
936.323	7561.5
936.554	7478.5
936.786	7414.5
937.017	7413.5
937.249	7406.5
937.481	7260.5
937.712	7377.5
937.943	7300.5
938.175	7322.5
938.406	7279.5
938.637	7344.5
938.869	7162.5
939.1	7273.5
939.331	7241.5
939.562	7186.5
939.793	7190.5
940.024	7153.5
940.255	7184.5
940.486	7076.5
940.717	7011.5
940.948	6996.5
941.179	6931.5
941.409	6910.5
941.64	7015.5
941.871	6935.5
942.102	6885.5
942.332	6937.5
942.563	6942.5
942.793	6922.5
943.024	6806.5
943.254	6957.5
943.484	6901.5
943.715	6936.5
943.945	6858.5
944.175	6774.5
944.405	6806.5
944.636	6820.5
944.866	6830.5
945.096	6775.5
945.326	6722.5
945.556	6779.5
945.786	6742.5
946.016	6693.5
946.245	6536.5
946.475	6479.5
946.705	6472.5
946.935	6516.5
947.164	6525.5
947.394	6404.5
947.624	6370.5
947.853	6460.5
948.083	6374.5
948.312	6290.5
948.542	6228.5
948.771	6246.5
949	6207.5
949.23	6238.5
949.459	6198.5
949.688	6290.5
949.917	6209.5
950.146	6221.5
950.375	6292.5
950.604	6140.5
950.833	6259.5
951.062	6207.5
951.291	6170.5
951.52	6059.5
951.749	6090.5
951.978	6053.5
952.206	6050.5
952.435	5996.5
952.664	6052.5
952.892	6029.5
953.121	6029.5
953.349	6006.5
953.578	5966.5
953.806	5934.5
954.035	5829.5
954.263	5834.5
954.491	5773.5
954.719	5783.5
954.948	5730.5
955.176	5683.5
955.404	5674.5
955.632	5719.5
955.86	5650.5
956.088	5578.5
956.316	5600.5
956.544	5635.5
956.772	5530.5
956.999	5531.5
957.227	5507.5
957.455	5426.5
957.683	5441.5
957.91	5341.5
958.138	5346.5
958.365	5315.5
958.593	5348.5
958.82	5217.5
959.048	5294.5
959.275	5230.5
959.502	5248.5
959.73	5163.5
959.957	5214.5
960.184	5214.5
960.411	5172.5
960.638	5261.5
960.865	5186.5
961.092	5153.5
961.319	5077.5
961.546	5153.5
961.773	5139.5
962	5131.5
962.227	5140.5
962.454	5095.5
962.68	5052.5
962.907	5058.5
963.134	4988.5
963.36	4955.5
963.587	4988.5
963.813	4893.5
964.04	4883.5
964.266	4799.5
964.493	4889.5
964.719	4832.5
964.945	4821.5
965.171	4677.5
965.398	4773.5
965.624	4765.5
965.85	4674.5
966.076	4632.5
966.302	4672.5
966.528	4631.5
966.754	4616.5
966.98	4612.5
967.206	4614.5
967.431	4480.5
967.657	4617.5
967.883	4574.5
968.109	4549.5
968.334	4525.5
968.56	4444.5
968.785	4463.5
969.011	4401.5
969.236	4449.5
969.462	4428.5
969.687	4430.5
969.912	4439.5
970.138	4421.5
970.363	4352.5
970.588	4359.5
970.813	4340.5
971.038	4248.5
971.263	4304.5
971.488	4266.5
971.713	4263.5
971.938	4248.5
972.163	4176.5
972.388	4147.5
972.613	4155.5
972.838	4135.5
973.062	4122.5
973.287	4087.5
973.512	4037.5
973.736	4027.5
973.961	4012.5
974.185	3998.5
974.41	4050.5
974.634	3907.5
974.858	3982.5
975.083	3933.5
975.307	3920.5
975.531	3845.5
975.755	3763.5
975.98	3800.5
976.204	3714.5
976.428	3728.5
976.652	3731.5
976.876	3690.5
977.1	3712.5
977.324	3661.5
977.547	3751.5
977.771	3709.5
977.995	3683.5
978.219	3616.5
978.442	3688.5
978.666	3649.5
978.89	3642.5
979.113	3564.5
979.337	3618.5
979.56	3600.5
979.783	3623.5
980.007	3514.5
980.23	3519.5
980.453	3526.5
980.677	3467.5
980.9	3509.5
981.123	3394.5
981.346	3497.5
981.569	3437.5
981.792	3472.5
982.015	3451.5
982.238	3300.5
982.461	3362.5
982.684	3338.5
982.907	3278.5
983.129	3245.5
983.352	3294.5
983.575	3290.5
983.797	3280.5
984.02	3228.5
984.242	3196.5
984.465	3183.5
984.687	3160.5
984.91	3242.5
985.132	3169.5
985.354	3225.5
985.577	3172.5
985.799	3124.5
986.021	3048.5
986.243	3077.5
986.465	3065.5
986.687	3117.5
986.909	3164.5
987.131	3101.5
987.353	3037.5
987.575	3080.5
987.797	3053.5
988.019	2982.5
988.241	2996.5
988.462	2960.5
988.684	3023.5
988.906	3011.5
989.127	3054.5
989.349	2895.5
989.57	2939.5
989.792	2963.5
990.013	2974.5
990.234	2952.5
990.456	3007.5
990.677	2927.5
990.898	2898.5
991.119	2852.5
991.341	2906.5
991.562	2822.5
991.783	2863.5
992.004	2790.5
992.225	2735.5
992.446	2806.5
992.667	2679.5
992.887	2749.5
993.108	2711.5
993.329	2763.5
993.55	2709.5
993.77	2652.5
993.991	2652.5
994.212	2653.5
994.432	2671.5
994.653	2645.5
994.873	2641.5
995.093	2527.5
995.314	2588.5
995.534	2649.5
995.754	2642.5
995.975	2655.5
996.195	2533.5
996.415	2600.5
996.635	2543.5
996.855	2535.5
997.075	2558.5
997.295	2553.5
997.515	2514.5
997.735	2576.5
997.955	2524.5
998.174	2523.5
998.394	2475.5
998.614	2553.5
998.834	2466.5
999.053	2554.5
999.273	2492.5
999.492	2503.5
999.712	2455.5
999.931	2411.5
1000.151	2447.5
1000.37	2417.5
1000.589	2480.5
1000.809	2359.5
1001.028	2480.5
1001.247	2387.5
1001.466	2290.5
1001.685	2405.5
1001.904	2364.5
1002.123	2300.5
1002.342	2345.5
1002.561	2274.5
1002.78	2279.5
1002.999	2322.5
1003.218	2286.5
1003.436	2247.5
1003.655	2291.5
1003.874	2251.5
1004.092	2260.5
1004.311	2252.5
1004.53	2225.5
1004.748	2290.5
1004.966	2203.5
1005.185	2249.5
1005.403	2255.5
1005.622	2214.5
1005.84	2324.5
1006.058	2205.5
1006.276	2209.5
1006.494	2566.5
1006.712	2210.5
1006.931	2258.5
1007.149	2208.5
1007.367	2204.5
1007.584	2228.5
1007.802	2295.5
1008.02	2217.5
1008.238	2334.5
1008.456	2351.5
1008.673	2216.5
1008.891	2331.5
1009.109	2262.5
1009.326	2355.5
1009.544	2437.5
1009.761	2349.5
1009.979	2470.5
1010.196	2532.5
1010.413	2669.5
1010.631	2732.5
1010.848	2810.5
1011.065	2803.5
1011.282	2773.5
1011.5	2660.5
1011.717	2771.5
1011.934	2730.5
1012.151	2716.5
1012.368	2714.5
1012.585	2691.5
1012.801	2678.5
1013.018	2681.5
1013.235	2640.5
1013.452	2674.5
1013.669	2669.5
1013.885	2688.5
1014.102	2733.5
1014.318	2722.5
1014.535	2624.5
1014.751	2662.5
1014.968	2649.5
1015.184	2658.5
1015.401	2578.5
1015.617	2560.5
1015.833	2487.5
1016.049	2510.5
1016.266	2435.5
1016.482	2459.5
1016.698	2371.5
1016.914	2431.5
1017.13	2371.5
1017.346	2348.5
1017.562	2422.5
1017.778	2321.5
1017.993	2315.5
1018.209	2343.5
1018.425	2338.5
1018.641	2297.5
1018.856	2225.5
1019.072	2292.5
1019.288	2307.5
1019.503	2293.5
1019.719	2206.5
1019.934	2175.5
1020.149	2261.5
1020.365	2197.5
1020.58	2107.5
1020.795	2130.5
1021.011	2056.5
1021.226	1979.5
1021.441	2017.5
1021.656	1899.5
1021.871	1859.5
1022.086	1869.5
1022.301	1822.5
1022.516	1787.5
1022.731	1811.5
1022.946	1740.5
1023.16	1720.5
1023.375	1673.5
1023.59	1628.5
1023.804	1562.5
1024.019	1658.5
1024.234	1518.5
1024.448	1539.5
1024.663	1446.5
1024.877	1450.5
1025.092	1481.5
1025.306	1467.5
1025.52	1354.5
1025.734	1415.5
1025.949	1335.5
1026.163	1324.5
1026.377	1245.5
1026.591	1248.5
1026.805	1192.5
1027.019	1162.5
1027.233	1141.5
1027.447	1098.5
1027.661	1176.5
1027.875	1120.5
1028.088	1101.5
1028.302	1018.5
1028.516	1005.5
1028.73	1002.5
1028.943	961.5
1029.157	913.5
1029.37	860.5
1029.584	-1.5
1029.797	-2.5
1030.011	-2.5
1030.224	-4.5
