Data from QEP037381__155__11-15-15-918.txt Node

Date: Fri Apr 28 11:15:15 EDT 2023
User: dcclab
Spectrometer: QEP03738
Trigger mode: 4
Integration Time (sec): 1.000000E1
Scans to average: 1
Electric dark correction enabled: true
Nonlinearity correction enabled: false
Boxcar width: 0
XAxis mode: Wavelengths
Number of Pixels in Spectrum: 1044
>>>>>Begin Spectral Data<<<<<
784.041	14.38
784.3	-1.62
784.558	0.38
784.817	-5.62
785.075	83187.38
785.334	16625.38
785.592	8595.38
785.851	6020.38
786.109	4566.38
786.368	3571.38
786.626	2881.38
786.884	2373.38
787.143	1992.38
787.401	1653.38
787.659	1486.38
787.917	1266.38
788.175	1132.38
788.433	989.38
788.691	883.38
788.949	832.38
789.207	774.38
789.465	691.38
789.723	640.38
789.98	606.38
790.238	648.38
790.496	611.38
790.753	584.38
791.011	616.38
791.268	548.38
791.526	530.38
791.783	550.38
792.041	526.38
792.298	437.38
792.556	515.38
792.813	491.38
793.07	475.38
793.327	443.38
793.584	527.38
793.841	451.38
794.099	460.38
794.356	530.38
794.613	430.38
794.869	477.38
795.126	414.38
795.383	413.38
795.64	447.38
795.897	396.38
796.153	457.38
796.41	435.38
796.667	413.38
796.923	424.38
797.18	435.38
797.436	452.38
797.693	421.38
797.949	467.38
798.206	493.38
798.462	420.38
798.718	482.38
798.974	454.38
799.231	482.38
799.487	491.38
799.743	480.38
799.999	497.38
800.255	497.38
800.511	499.38
800.767	543.38
801.023	551.38
801.279	570.38
801.534	610.38
801.79	669.38
802.046	709.38
802.302	865.38
802.557	1032.38
802.813	1316.38
803.068	1686.38
803.324	2396.38
803.579	3354.38
803.835	4584.38
804.09	6074.38
804.345	7711.38
804.601	9306.38
804.856	10695.38
805.111	11798.38
805.366	12508.38
805.621	13143.38
805.876	13495.38
806.131	13794.38
806.386	14039.38
806.641	14162.38
806.896	14451.38
807.151	14696.38
807.406	14831.38
807.661	15132.38
807.915	15316.38
808.17	15656.38
808.425	15769.38
808.679	15898.38
808.934	16203.38
809.188	16291.38
809.443	16517.38
809.697	16696.38
809.951	16720.38
810.206	16956.38
810.46	17072.38
810.714	17257.38
810.968	17377.38
811.223	17505.38
811.477	17619.38
811.731	17896.38
811.985	17891.38
812.239	17868.38
812.493	17956.38
812.747	18052.38
813	18022.38
813.254	18247.38
813.508	18444.38
813.762	18354.38
814.015	18466.38
814.269	18580.38
814.522	18615.38
814.776	18910.38
815.03	19042.38
815.283	19211.38
815.536	19687.38
815.79	19884.38
816.043	20228.38
816.296	20444.38
816.55	20633.38
816.803	20796.38
817.056	21211.38
817.309	21296.38
817.562	21558.38
817.815	21870.38
818.068	22072.38
818.321	22206.38
818.574	22579.38
818.827	22912.38
819.079	23145.38
819.332	23710.38
819.585	23945.38
819.838	24181.38
820.09	24364.38
820.343	24465.38
820.595	24491.38
820.848	24820.38
821.1	24801.38
821.353	24877.38
821.605	24792.38
821.857	24693.38
822.11	24625.38
822.362	24557.38
822.614	24495.38
822.866	24694.38
823.118	24695.38
823.37	24764.38
823.622	24936.38
823.874	25103.38
824.126	25154.38
824.378	25124.38
824.63	25155.38
824.882	25196.38
825.134	25265.38
825.385	25001.38
825.637	24991.38
825.888	24900.38
826.14	24943.38
826.392	24827.38
826.643	24636.38
826.895	24633.38
827.146	24411.38
827.397	24506.38
827.649	24561.38
827.9	24358.38
828.151	24475.38
828.402	24546.38
828.653	24575.38
828.905	24642.38
829.156	24761.38
829.407	24793.38
829.658	24951.38
829.909	25186.38
830.159	25202.38
830.41	24956.38
830.661	24670.38
830.912	24593.38
831.162	24499.38
831.413	24614.38
831.664	24638.38
831.914	24355.38
832.165	24415.38
832.415	24365.38
832.666	24558.38
832.916	24429.38
833.167	24397.38
833.417	24429.38
833.667	24287.38
833.917	24200.38
834.168	24203.38
834.418	24079.38
834.668	24022.38
834.918	23871.38
835.168	23894.38
835.418	23768.38
835.668	23694.38
835.918	23673.38
836.167	23609.38
836.417	23473.38
836.667	23485.38
836.917	23447.38
837.166	23550.38
837.416	23667.38
837.666	23663.38
837.915	23512.38
838.165	23452.38
838.414	23443.38
838.663	23321.38
838.913	23420.38
839.162	23295.38
839.411	23503.38
839.661	23225.38
839.91	23462.38
840.159	23301.38
840.408	23312.38
840.657	23455.38
840.906	23400.38
841.155	23332.38
841.404	23385.38
841.653	23422.38
841.902	23379.38
842.15	23602.38
842.399	23539.38
842.648	23526.38
842.897	23452.38
843.145	23337.38
843.394	23142.38
843.642	23070.38
843.891	22879.38
844.139	22760.38
844.388	22514.38
844.636	22371.38
844.884	22482.38
845.133	22440.38
845.381	22387.38
845.629	22458.38
845.877	22464.38
846.125	22432.38
846.373	22377.38
846.621	22255.38
846.869	22220.38
847.117	22109.38
847.365	21942.38
847.613	21917.38
847.861	22002.38
848.108	22036.38
848.356	21916.38
848.604	21915.38
848.851	21949.38
849.099	21921.38
849.346	21962.38
849.594	22057.38
849.841	22090.38
850.089	22189.38
850.336	22196.38
850.583	22272.38
850.831	22132.38
851.078	21914.38
851.325	22019.38
851.572	22046.38
851.819	21794.38
852.066	21391.38
852.313	20992.38
852.56	20819.38
852.807	20868.38
853.054	20785.38
853.301	20720.38
853.548	20924.38
853.794	20914.38
854.041	21057.38
854.288	21201.38
854.534	21461.38
854.781	21313.38
855.028	21290.38
855.274	21461.38
855.52	21427.38
855.767	21510.38
856.013	21546.38
856.26	21800.38
856.506	21110.38
856.752	21061.38
856.998	21068.38
857.244	21192.38
857.49	21292.38
857.736	21195.38
857.982	21276.38
858.228	21200.38
858.474	20882.38
858.72	20750.38
858.966	20464.38
859.212	20284.38
859.458	20049.38
859.703	19786.38
859.949	19619.38
860.195	19600.38
860.44	19668.38
860.686	19651.38
860.931	19764.38
861.177	19398.38
861.422	19194.38
861.667	19076.38
861.913	19057.38
862.158	19064.38
862.403	19120.38
862.648	18979.38
862.893	19048.38
863.138	19114.38
863.384	18992.38
863.629	18969.38
863.873	18930.38
864.118	18879.38
864.363	18837.38
864.608	18681.38
864.853	18602.38
865.098	18490.38
865.342	18389.38
865.587	18298.38
865.832	18303.38
866.076	18276.38
866.321	18228.38
866.565	18261.38
866.81	18072.38
867.054	18168.38
867.298	18008.38
867.543	18069.38
867.787	18132.38
868.031	18044.38
868.275	18025.38
868.519	17930.38
868.764	18042.38
869.008	17945.38
869.252	18104.38
869.496	17954.38
869.739	18047.38
869.983	18172.38
870.227	18085.38
870.471	18166.38
870.715	18243.38
870.958	18321.38
871.202	18272.38
871.446	18418.38
871.689	18367.38
871.933	18402.38
872.176	18372.38
872.42	18237.38
872.663	18251.38
872.906	18367.38
873.15	18479.38
873.393	18632.38
873.636	18586.38
873.879	18338.38
874.122	18093.38
874.366	17696.38
874.609	17426.38
874.852	17280.38
875.095	17087.38
875.337	17113.38
875.58	16935.38
875.823	16955.38
876.066	16834.38
876.309	16809.38
876.551	16570.38
876.794	16533.38
877.037	16527.38
877.279	16575.38
877.522	16384.38
877.764	16528.38
878.007	16370.38
878.249	16364.38
878.491	16298.38
878.734	16278.38
878.976	16240.38
879.218	16061.38
879.46	15898.38
879.702	15898.38
879.945	15648.38
880.187	15562.38
880.429	15406.38
880.671	15385.38
880.912	15328.38
881.154	15202.38
881.396	15148.38
881.638	15212.38
881.88	15203.38
882.121	15190.38
882.363	15222.38
882.605	15247.38
882.846	15229.38
883.088	15277.38
883.329	15381.38
883.571	15597.38
883.812	16014.38
884.053	16629.38
884.295	17327.38
884.536	17676.38
884.777	17334.38
885.018	17142.38
885.259	16897.38
885.5	16770.38
885.742	16787.38
885.982	16638.38
886.223	16385.38
886.464	16126.38
886.705	15821.38
886.946	15603.38
887.187	15167.38
887.428	14933.38
887.668	14556.38
887.909	14288.38
888.15	14096.38
888.39	14000.38
888.631	13846.38
888.871	13684.38
889.111	13506.38
889.352	13511.38
889.592	13289.38
889.833	13183.38
890.073	13004.38
890.313	13072.38
890.553	12890.38
890.793	12847.38
891.033	12754.38
891.273	12681.38
891.513	12762.38
891.753	12717.38
891.993	12675.38
892.233	12640.38
892.473	12716.38
892.713	12676.38
892.952	12624.38
893.192	12735.38
893.432	12662.38
893.671	12717.38
893.911	12599.38
894.15	12519.38
894.39	12453.38
894.629	12350.38
894.869	12212.38
895.108	12172.38
895.347	12051.38
895.587	12107.38
895.826	12042.38
896.065	12061.38
896.304	11999.38
896.543	12062.38
896.782	11829.38
897.021	11918.38
897.26	11932.38
897.499	11974.38
897.738	11905.38
897.977	11812.38
898.216	11709.38
898.454	11685.38
898.693	11549.38
898.932	11514.38
899.17	11508.38
899.409	11562.38
899.647	11559.38
899.886	11473.38
900.124	11553.38
900.363	11508.38
900.601	11602.38
900.839	11597.38
901.078	11777.38
901.316	11857.38
901.554	11926.38
901.792	12068.38
902.03	12019.38
902.268	12064.38
902.506	12040.38
902.744	11948.38
902.982	11857.38
903.22	11566.38
903.458	11316.38
903.695	11109.38
903.933	10999.38
904.171	10646.38
904.409	10512.38
904.646	10434.38
904.884	10245.38
905.121	10188.38
905.359	10133.38
905.596	9979.38
905.833	9820.38
906.071	9766.38
906.308	9748.38
906.545	9771.38
906.783	9589.38
907.02	9707.38
907.257	9657.38
907.494	9652.38
907.731	9609.38
907.968	9593.38
908.205	9472.38
908.442	9445.38
908.679	9374.38
908.915	9381.38
909.152	9243.38
909.389	9074.38
909.626	9093.38
909.862	9064.38
910.099	8990.38
910.335	8976.38
910.572	8913.38
910.808	8838.38
911.045	8794.38
911.281	8754.38
911.518	8857.38
911.754	8710.38
911.99	8635.38
912.226	8588.38
912.463	8486.38
912.699	8445.38
912.935	8361.38
913.171	8360.38
913.407	8243.38
913.643	8230.38
913.879	8172.38
914.114	8019.38
914.35	7953.38
914.586	7909.38
914.822	7878.38
915.057	7924.38
915.293	7746.38
915.529	7735.38
915.764	7773.38
916	7726.38
916.235	7718.38
916.471	7681.38
916.706	7613.38
916.941	7590.38
917.177	7673.38
917.412	7660.38
917.647	7601.38
917.882	7552.38
918.117	7529.38
918.352	7559.38
918.588	7555.38
918.823	7461.38
919.057	7450.38
919.292	7235.38
919.527	7244.38
919.762	7204.38
919.997	7102.38
920.232	7085.38
920.466	7019.38
920.701	6837.38
920.935	6848.38
921.17	6813.38
921.405	6803.38
921.639	6736.38
921.873	6754.38
922.108	6673.38
922.342	6738.38
922.576	6607.38
922.811	6604.38
923.045	6665.38
923.279	6656.38
923.513	6440.38
923.747	6562.38
923.981	6479.38
924.215	6427.38
924.449	6353.38
924.683	6353.38
924.917	6321.38
925.151	6269.38
925.385	6375.38
925.618	6303.38
925.852	6263.38
926.086	6184.38
926.319	6251.38
926.553	6217.38
926.786	6254.38
927.02	6191.38
927.253	6231.38
927.486	6196.38
927.72	6115.38
927.953	6169.38
928.186	6089.38
928.42	6070.38
928.653	6042.38
928.886	5976.38
929.119	6009.38
929.352	5979.38
929.585	5905.38
929.818	5888.38
930.051	5848.38
930.284	5826.38
930.516	5746.38
930.749	5746.38
930.982	5750.38
931.215	5716.38
931.447	5603.38
931.68	5635.38
931.912	5564.38
932.145	5617.38
932.377	5654.38
932.61	5740.38
932.842	5559.38
933.074	5620.38
933.307	5575.38
933.539	5650.38
933.771	5635.38
934.003	5562.38
934.236	5628.38
934.468	5584.38
934.7	5543.38
934.932	5534.38
935.164	5559.38
935.395	5444.38
935.627	5446.38
935.859	5457.38
936.091	5393.38
936.323	5405.38
936.554	5440.38
936.786	5389.38
937.017	5279.38
937.249	5332.38
937.481	5292.38
937.712	5274.38
937.943	5292.38
938.175	5242.38
938.406	5266.38
938.637	5288.38
938.869	5224.38
939.1	5236.38
939.331	5180.38
939.562	5226.38
939.793	5218.38
940.024	5215.38
940.255	5196.38
940.486	5104.38
940.717	5114.38
940.948	5052.38
941.179	5016.38
941.409	5025.38
941.64	5013.38
941.871	5104.38
942.102	5017.38
942.332	5013.38
942.563	5063.38
942.793	5036.38
943.024	4985.38
943.254	5040.38
943.484	5035.38
943.715	5026.38
943.945	5016.38
944.175	4915.38
944.405	4899.38
944.636	4934.38
944.866	4945.38
945.096	4964.38
945.326	4888.38
945.556	4942.38
945.786	4868.38
946.016	4866.38
946.245	4763.38
946.475	4805.38
946.705	4784.38
946.935	4755.38
947.164	4756.38
947.394	4684.38
947.624	4657.38
947.853	4682.38
948.083	4633.38
948.312	4581.38
948.542	4576.38
948.771	4494.38
949	4532.38
949.23	4543.38
949.459	4510.38
949.688	4618.38
949.917	4570.38
950.146	4583.38
950.375	4574.38
950.604	4492.38
950.833	4517.38
951.062	4512.38
951.291	4450.38
951.52	4437.38
951.749	4512.38
951.978	4421.38
952.206	4428.38
952.435	4425.38
952.664	4436.38
952.892	4384.38
953.121	4373.38
953.349	4400.38
953.578	4399.38
953.806	4336.38
954.035	4228.38
954.263	4284.38
954.491	4230.38
954.719	4305.38
954.948	4180.38
955.176	4194.38
955.404	4102.38
955.632	4167.38
955.86	4113.38
956.088	4122.38
956.316	4159.38
956.544	4122.38
956.772	4060.38
956.999	4038.38
957.227	4072.38
957.455	4010.38
957.683	4024.38
957.91	3966.38
958.138	3953.38
958.365	3935.38
958.593	3955.38
958.82	3871.38
959.048	3947.38
959.275	3868.38
959.502	3841.38
959.73	3796.38
959.957	3898.38
960.184	3905.38
960.411	3839.38
960.638	3892.38
960.865	3871.38
961.092	3825.38
961.319	3728.38
961.546	3825.38
961.773	3827.38
962	3756.38
962.227	3820.38
962.454	3759.38
962.68	3756.38
962.907	3754.38
963.134	3647.38
963.36	3681.38
963.587	3681.38
963.813	3623.38
964.04	3626.38
964.266	3604.38
964.493	3664.38
964.719	3595.38
964.945	3582.38
965.171	3496.38
965.398	3536.38
965.624	3534.38
965.85	3462.38
966.076	3435.38
966.302	3511.38
966.528	3445.38
966.754	3478.38
966.98	3456.38
967.206	3443.38
967.431	3367.38
967.657	3500.38
967.883	3404.38
968.109	3425.38
968.334	3319.38
968.56	3278.38
968.785	3356.38
969.011	3289.38
969.236	3362.38
969.462	3289.38
969.687	3297.38
969.912	3309.38
970.138	3352.38
970.363	3267.38
970.588	3293.38
970.813	3222.38
971.038	3200.38
971.263	3247.38
971.488	3212.38
971.713	3191.38
971.938	3246.38
972.163	3088.38
972.388	3149.38
972.613	3110.38
972.838	3119.38
973.062	3063.38
973.287	3106.38
973.512	2997.38
973.736	3070.38
973.961	3016.38
974.185	3020.38
974.41	3046.38
974.634	2957.38
974.858	2956.38
975.083	2960.38
975.307	2980.38
975.531	2908.38
975.755	2853.38
975.98	2878.38
976.204	2828.38
976.428	2815.38
976.652	2795.38
976.876	2821.38
977.1	2820.38
977.324	2741.38
977.547	2845.38
977.771	2819.38
977.995	2756.38
978.219	2717.38
978.442	2832.38
978.666	2790.38
978.89	2764.38
979.113	2770.38
979.337	2742.38
979.56	2711.38
979.783	2763.38
980.007	2710.38
980.23	2688.38
980.453	2682.38
980.677	2704.38
980.9	2618.38
981.123	2572.38
981.346	2684.38
981.569	2629.38
981.792	2645.38
982.015	2653.38
982.238	2558.38
982.461	2578.38
982.684	2569.38
982.907	2505.38
983.129	2497.38
983.352	2539.38
983.575	2478.38
983.797	2540.38
984.02	2494.38
984.242	2502.38
984.465	2491.38
984.687	2510.38
984.91	2513.38
985.132	2501.38
985.354	2496.38
985.577	2442.38
985.799	2440.38
986.021	2365.38
986.243	2388.38
986.465	2374.38
986.687	2444.38
986.909	2467.38
987.131	2361.38
987.353	2375.38
987.575	2406.38
987.797	2374.38
988.019	2297.38
988.241	2397.38
988.462	2323.38
988.684	2372.38
988.906	2391.38
989.127	2461.38
989.349	2303.38
989.57	2311.38
989.792	2332.38
990.013	2369.38
990.234	2360.38
990.456	2359.38
990.677	2356.38
990.898	2324.38
991.119	2283.38
991.341	2319.38
991.562	2253.38
991.783	2291.38
992.004	2220.38
992.225	2174.38
992.446	2221.38
992.667	2155.38
992.887	2229.38
993.108	2107.38
993.329	2239.38
993.55	2151.38
993.77	2121.38
993.991	2102.38
994.212	2130.38
994.432	2146.38
994.653	2149.38
994.873	2116.38
995.093	2011.38
995.314	2060.38
995.534	2139.38
995.754	2129.38
995.975	2164.38
996.195	2053.38
996.415	2117.38
996.635	2075.38
996.855	2077.38
997.075	2091.38
997.295	2097.38
997.515	2086.38
997.735	2134.38
997.955	2094.38
998.174	2101.38
998.394	2058.38
998.614	2121.38
998.834	2064.38
999.053	2116.38
999.273	2064.38
999.492	2086.38
999.712	2032.38
999.931	1978.38
1000.151	2029.38
1000.37	1963.38
1000.589	2050.38
1000.809	1979.38
1001.028	2046.38
1001.247	1961.38
1001.466	1865.38
1001.685	1997.38
1001.904	1967.38
1002.123	1949.38
1002.342	1947.38
1002.561	1879.38
1002.78	1901.38
1002.999	1961.38
1003.218	1899.38
1003.436	1872.38
1003.655	1891.38
1003.874	1877.38
1004.092	1866.38
1004.311	1921.38
1004.53	1861.38
1004.748	1960.38
1004.966	1855.38
1005.185	1944.38
1005.403	1911.38
1005.622	1881.38
1005.84	1970.38
1006.058	1871.38
1006.276	1882.38
1006.494	2282.38
1006.712	1892.38
1006.931	1949.38
1007.149	1878.38
1007.367	1912.38
1007.584	1925.38
1007.802	1984.38
1008.02	1937.38
1008.238	2062.38
1008.456	2079.38
1008.673	1981.38
1008.891	2128.38
1009.109	2117.38
1009.326	2180.38
1009.544	2321.38
1009.761	2268.38
1009.979	2469.38
1010.196	2566.38
1010.413	2749.38
1010.631	2874.38
1010.848	2961.38
1011.065	3001.38
1011.282	2935.38
1011.5	2869.38
1011.717	2951.38
1011.934	2865.38
1012.151	2911.38
1012.368	2883.38
1012.585	2827.38
1012.801	2874.38
1013.018	2864.38
1013.235	2830.38
1013.452	2860.38
1013.669	2902.38
1013.885	2922.38
1014.102	2983.38
1014.318	2944.38
1014.535	2942.38
1014.751	2925.38
1014.968	2885.38
1015.184	2878.38
1015.401	2776.38
1015.617	2776.38
1015.833	2652.38
1016.049	2712.38
1016.266	2637.38
1016.482	2650.38
1016.698	2524.38
1016.914	2577.38
1017.13	2498.38
1017.346	2496.38
1017.562	2563.38
1017.778	2451.38
1017.993	2442.38
1018.209	2440.38
1018.425	2442.38
1018.641	2441.38
1018.856	2399.38
1019.072	2432.38
1019.288	2487.38
1019.503	2391.38
1019.719	2296.38
1019.934	2315.38
1020.149	2357.38
1020.365	2270.38
1020.58	2193.38
1020.795	2185.38
1021.011	2098.38
1021.226	2057.38
1021.441	2019.38
1021.656	1928.38
1021.871	1856.38
1022.086	1851.38
1022.301	1820.38
1022.516	1795.38
1022.731	1808.38
1022.946	1710.38
1023.16	1679.38
1023.375	1603.38
1023.59	1567.38
1023.804	1532.38
1024.019	1591.38
1024.234	1454.38
1024.448	1493.38
1024.663	1372.38
1024.877	1412.38
1025.092	1388.38
1025.306	1393.38
1025.52	1238.38
1025.734	1334.38
1025.949	1220.38
1026.163	1195.38
1026.377	1118.38
1026.591	1195.38
1026.805	1088.38
1027.019	1079.38
1027.233	1022.38
1027.447	978.38
1027.661	1067.38
1027.875	1008.38
1028.088	1015.38
1028.302	951.38
1028.516	905.38
1028.73	904.38
1028.943	873.38
1029.157	820.38
1029.37	757.38
1029.584	-0.62
1029.797	-1.62
1030.011	-1.62
1030.224	-3.62
