Data from QEP037381__102__13-50-44-643.txt Node

Date: Fri Apr 28 13:50:44 EDT 2023
User: dcclab
Spectrometer: QEP03738
Trigger mode: 4
Integration Time (sec): 1.000000E1
Scans to average: 1
Electric dark correction enabled: true
Nonlinearity correction enabled: false
Boxcar width: 0
XAxis mode: Wavelengths
Number of Pixels in Spectrum: 1044
>>>>>Begin Spectral Data<<<<<
784.041	15.12
784.3	0.12
784.558	-2.88
784.817	-3.88
785.075	73043.12
785.334	14435.12
785.592	7463.12
785.851	5192.12
786.109	3958.12
786.368	3086.12
786.626	2549.12
786.884	2099.12
787.143	1745.12
787.401	1463.12
787.659	1326.12
787.917	1143.12
788.175	1026.12
788.433	910.12
788.691	829.12
788.949	772.12
789.207	711.12
789.465	627.12
789.723	611.12
789.98	556.12
790.238	606.12
790.496	570.12
790.753	535.12
791.011	588.12
791.268	515.12
791.526	500.12
791.783	516.12
792.041	502.12
792.298	417.12
792.556	487.12
792.813	455.12
793.07	446.12
793.327	420.12
793.584	505.12
793.841	435.12
794.099	447.12
794.356	491.12
794.613	401.12
794.869	440.12
795.126	403.12
795.383	375.12
795.64	416.12
795.897	355.12
796.153	435.12
796.41	402.12
796.667	393.12
796.923	401.12
797.18	406.12
797.436	432.12
797.693	396.12
797.949	439.12
798.206	466.12
798.462	369.12
798.718	444.12
798.974	419.12
799.231	450.12
799.487	432.12
799.743	454.12
799.999	472.12
800.255	468.12
800.511	463.12
800.767	484.12
801.023	462.12
801.279	499.12
801.534	527.12
801.79	568.12
802.046	579.12
802.302	716.12
802.557	806.12
802.813	979.12
803.068	1167.12
803.324	1651.12
803.579	2243.12
803.835	3095.12
804.09	4162.12
804.345	5376.12
804.601	6577.12
804.856	7711.12
805.111	8610.12
805.366	9108.12
805.621	9515.12
805.876	9837.12
806.131	9924.12
806.386	10079.12
806.641	10258.12
806.896	10388.12
807.151	10698.12
807.406	10788.12
807.661	11003.12
807.915	11193.12
808.17	11389.12
808.425	11519.12
808.679	11613.12
808.934	11832.12
809.188	11906.12
809.443	12129.12
809.697	12265.12
809.951	12394.12
810.206	12517.12
810.46	12519.12
810.714	12715.12
810.968	12785.12
811.223	12758.12
811.477	12975.12
811.731	13092.12
811.985	13094.12
812.239	13173.12
812.493	13296.12
812.747	13309.12
813	13346.12
813.254	13510.12
813.508	13537.12
813.762	13584.12
814.015	13672.12
814.269	13746.12
814.522	13858.12
814.776	14108.12
815.03	14263.12
815.283	14459.12
815.536	14628.12
815.79	14868.12
816.043	15043.12
816.296	15297.12
816.55	15342.12
816.803	15628.12
817.056	15903.12
817.309	16012.12
817.562	16174.12
817.815	16400.12
818.068	16583.12
818.321	16720.12
818.574	16992.12
818.827	17196.12
819.079	17453.12
819.332	17805.12
819.585	17949.12
819.838	18192.12
820.09	18406.12
820.343	18678.12
820.595	18553.12
820.848	18795.12
821.1	18818.12
821.353	18888.12
821.605	18852.12
821.857	18819.12
822.11	18710.12
822.362	18832.12
822.614	18756.12
822.866	18815.12
823.118	18708.12
823.37	18847.12
823.622	18830.12
823.874	18882.12
824.126	18994.12
824.378	19032.12
824.63	19057.12
824.882	19091.12
825.134	19082.12
825.385	19069.12
825.637	19027.12
825.888	18932.12
826.14	18861.12
826.392	18732.12
826.643	18657.12
826.895	18615.12
827.146	18557.12
827.397	18441.12
827.649	18656.12
827.9	18410.12
828.151	18457.12
828.402	18513.12
828.653	18587.12
828.905	18567.12
829.156	18760.12
829.407	18579.12
829.658	18608.12
829.909	18664.12
830.159	18537.12
830.41	18433.12
830.661	18367.12
830.912	18263.12
831.162	18171.12
831.413	18152.12
831.664	18165.12
831.914	18178.12
832.165	18186.12
832.415	18173.12
832.666	18206.12
832.916	18147.12
833.167	18101.12
833.417	18060.12
833.667	17869.12
833.917	17929.12
834.168	17841.12
834.418	17902.12
834.668	17740.12
834.918	17687.12
835.168	17700.12
835.418	17620.12
835.668	17483.12
835.918	17496.12
836.167	17504.12
836.417	17441.12
836.667	17400.12
836.917	17434.12
837.166	17248.12
837.416	17348.12
837.666	17321.12
837.915	17149.12
838.165	17126.12
838.414	17088.12
838.663	16952.12
838.913	16994.12
839.162	16904.12
839.411	16973.12
839.661	16820.12
839.91	16741.12
840.159	16805.12
840.408	16772.12
840.657	16844.12
840.906	16940.12
841.155	16989.12
841.404	16772.12
841.653	16855.12
841.902	16809.12
842.15	16753.12
842.399	16730.12
842.648	16722.12
842.897	16647.12
843.145	16455.12
843.394	16498.12
843.642	16363.12
843.891	16299.12
844.139	16265.12
844.388	16099.12
844.636	16060.12
844.884	16055.12
845.133	16048.12
845.381	15931.12
845.629	16122.12
845.877	15929.12
846.125	15829.12
846.373	15993.12
846.621	15878.12
846.869	15876.12
847.117	15814.12
847.365	15604.12
847.613	15526.12
847.861	15526.12
848.108	15649.12
848.356	15518.12
848.604	15432.12
848.851	15405.12
849.099	15562.12
849.346	15454.12
849.594	15618.12
849.841	15651.12
850.089	15615.12
850.336	15634.12
850.583	15639.12
850.831	15546.12
851.078	15497.12
851.325	15463.12
851.572	15366.12
851.819	15308.12
852.066	14965.12
852.313	14730.12
852.56	14674.12
852.807	14517.12
853.054	14527.12
853.301	14553.12
853.548	14576.12
853.794	14603.12
854.041	14688.12
854.288	14716.12
854.534	14937.12
854.781	14776.12
855.028	14690.12
855.274	14708.12
855.52	14638.12
855.767	14507.12
856.013	14579.12
856.26	14665.12
856.506	14322.12
856.752	14307.12
856.998	14269.12
857.244	14346.12
857.49	14327.12
857.736	14476.12
857.982	14396.12
858.228	14314.12
858.474	14194.12
858.72	14167.12
858.966	14065.12
859.212	13954.12
859.458	13749.12
859.703	13584.12
859.949	13463.12
860.195	13491.12
860.44	13439.12
860.686	13315.12
860.931	13311.12
861.177	13136.12
861.422	13189.12
861.667	13063.12
861.913	13142.12
862.158	13222.12
862.403	13336.12
862.648	13351.12
862.893	13321.12
863.138	13283.12
863.384	13268.12
863.629	13176.12
863.873	13204.12
864.118	13064.12
864.363	13035.12
864.608	12965.12
864.853	12892.12
865.098	12861.12
865.342	12766.12
865.587	12686.12
865.832	12738.12
866.076	12709.12
866.321	12586.12
866.565	12637.12
866.81	12517.12
867.054	12545.12
867.298	12524.12
867.543	12382.12
867.787	12441.12
868.031	12421.12
868.275	12385.12
868.519	12381.12
868.764	12395.12
869.008	12299.12
869.252	12370.12
869.496	12233.12
869.739	12147.12
869.983	12226.12
870.227	12230.12
870.471	12181.12
870.715	12190.12
870.958	12242.12
871.202	12206.12
871.446	12198.12
871.689	12236.12
871.933	12265.12
872.176	12233.12
872.42	12156.12
872.663	12079.12
872.906	12060.12
873.15	12006.12
873.393	11886.12
873.636	11858.12
873.879	11802.12
874.122	11666.12
874.366	11555.12
874.609	11486.12
874.852	11443.12
875.095	11381.12
875.337	11319.12
875.58	11242.12
875.823	11233.12
876.066	11274.12
876.309	11246.12
876.551	11101.12
876.794	11018.12
877.037	11026.12
877.279	11006.12
877.522	11033.12
877.764	10996.12
878.007	11004.12
878.249	11040.12
878.491	10991.12
878.734	10958.12
878.976	10904.12
879.218	10888.12
879.46	10841.12
879.702	10699.12
879.945	10606.12
880.187	10580.12
880.429	10526.12
880.671	10415.12
880.912	10424.12
881.154	10420.12
881.396	10306.12
881.638	10393.12
881.88	10346.12
882.121	10201.12
882.363	10229.12
882.605	10318.12
882.846	10198.12
883.088	10167.12
883.329	10089.12
883.571	10135.12
883.812	10136.12
884.053	10207.12
884.295	10342.12
884.536	10451.12
884.777	10292.12
885.018	10296.12
885.259	10277.12
885.5	10196.12
885.742	10311.12
885.982	10187.12
886.223	10065.12
886.464	10032.12
886.705	9952.12
886.946	9896.12
887.187	9814.12
887.428	9797.12
887.668	9564.12
887.909	9456.12
888.15	9400.12
888.39	9369.12
888.631	9446.12
888.871	9291.12
889.111	9232.12
889.352	9137.12
889.592	9075.12
889.833	9005.12
890.073	8918.12
890.313	8966.12
890.553	8784.12
890.793	8857.12
891.033	8715.12
891.273	8698.12
891.513	8683.12
891.753	8758.12
891.993	8618.12
892.233	8733.12
892.473	8778.12
892.713	8750.12
892.952	8683.12
893.192	8724.12
893.432	8635.12
893.671	8635.12
893.911	8630.12
894.15	8582.12
894.39	8434.12
894.629	8443.12
894.869	8399.12
895.108	8300.12
895.347	8255.12
895.587	8280.12
895.826	8221.12
896.065	8142.12
896.304	8226.12
896.543	8174.12
896.782	8143.12
897.021	8137.12
897.26	8108.12
897.499	8168.12
897.738	8173.12
897.977	8012.12
898.216	7893.12
898.454	7950.12
898.693	7826.12
898.932	7852.12
899.17	7733.12
899.409	7717.12
899.647	7788.12
899.886	7728.12
900.124	7704.12
900.363	7682.12
900.601	7767.12
900.839	7748.12
901.078	7759.12
901.316	7747.12
901.554	7818.12
901.792	7761.12
902.03	7762.12
902.268	7740.12
902.506	7777.12
902.744	7642.12
902.982	7637.12
903.22	7451.12
903.458	7431.12
903.695	7371.12
903.933	7266.12
904.171	7107.12
904.409	7041.12
904.646	7031.12
904.884	6968.12
905.121	6869.12
905.359	6821.12
905.596	6747.12
905.833	6695.12
906.071	6673.12
906.308	6699.12
906.545	6641.12
906.783	6624.12
907.02	6567.12
907.257	6522.12
907.494	6586.12
907.731	6572.12
907.968	6539.12
908.205	6523.12
908.442	6433.12
908.679	6420.12
908.915	6370.12
909.152	6343.12
909.389	6192.12
909.626	6169.12
909.862	6180.12
910.099	6135.12
910.335	6164.12
910.572	6014.12
910.808	6108.12
911.045	6035.12
911.281	5986.12
911.518	5999.12
911.754	5947.12
911.99	5955.12
912.226	5902.12
912.463	5856.12
912.699	5815.12
912.935	5767.12
913.171	5774.12
913.407	5689.12
913.643	5711.12
913.879	5605.12
914.114	5540.12
914.35	5513.12
914.586	5407.12
914.822	5390.12
915.057	5433.12
915.293	5258.12
915.529	5270.12
915.764	5366.12
916	5322.12
916.235	5256.12
916.471	5297.12
916.706	5200.12
916.941	5240.12
917.177	5220.12
917.412	5290.12
917.647	5220.12
917.882	5173.12
918.117	5185.12
918.352	5187.12
918.588	5194.12
918.823	5127.12
919.057	5116.12
919.292	4944.12
919.527	5001.12
919.762	4923.12
919.997	4897.12
920.232	4857.12
920.466	4848.12
920.701	4701.12
920.935	4689.12
921.17	4685.12
921.405	4582.12
921.639	4650.12
921.873	4597.12
922.108	4611.12
922.342	4603.12
922.576	4535.12
922.811	4588.12
923.045	4536.12
923.279	4633.12
923.513	4441.12
923.747	4527.12
923.981	4525.12
924.215	4419.12
924.449	4369.12
924.683	4344.12
924.917	4323.12
925.151	4292.12
925.385	4358.12
925.618	4345.12
925.852	4328.12
926.086	4215.12
926.319	4297.12
926.553	4278.12
926.786	4264.12
927.02	4245.12
927.253	4268.12
927.486	4285.12
927.72	4212.12
927.953	4243.12
928.186	4227.12
928.42	4248.12
928.653	4139.12
928.886	4140.12
929.119	4156.12
929.352	4143.12
929.585	4140.12
929.818	4031.12
930.051	4038.12
930.284	4000.12
930.516	3925.12
930.749	3929.12
930.982	3940.12
931.215	3961.12
931.447	3870.12
931.68	3887.12
931.912	3846.12
932.145	3796.12
932.377	3851.12
932.61	3993.12
932.842	3773.12
933.074	3887.12
933.307	3831.12
933.539	3880.12
933.771	3917.12
934.003	3828.12
934.236	3877.12
934.468	3904.12
934.7	3784.12
934.932	3881.12
935.164	3739.12
935.395	3734.12
935.627	3773.12
935.859	3743.12
936.091	3734.12
936.323	3738.12
936.554	3741.12
936.786	3669.12
937.017	3632.12
937.249	3679.12
937.481	3595.12
937.712	3682.12
937.943	3640.12
938.175	3606.12
938.406	3612.12
938.637	3704.12
938.869	3558.12
939.1	3628.12
939.331	3605.12
939.562	3607.12
939.793	3604.12
940.024	3624.12
940.255	3591.12
940.486	3546.12
940.717	3511.12
940.948	3508.12
941.179	3445.12
941.409	3456.12
941.64	3506.12
941.871	3492.12
942.102	3460.12
942.332	3492.12
942.563	3491.12
942.793	3500.12
943.024	3416.12
943.254	3455.12
943.484	3469.12
943.715	3487.12
943.945	3467.12
944.175	3416.12
944.405	3381.12
944.636	3399.12
944.866	3430.12
945.096	3419.12
945.326	3344.12
945.556	3408.12
945.786	3435.12
946.016	3337.12
946.245	3291.12
946.475	3286.12
946.705	3269.12
946.935	3244.12
947.164	3273.12
947.394	3215.12
947.624	3228.12
947.853	3247.12
948.083	3197.12
948.312	3179.12
948.542	3148.12
948.771	3119.12
949	3106.12
949.23	3147.12
949.459	3144.12
949.688	3201.12
949.917	3114.12
950.146	3130.12
950.375	3207.12
950.604	3153.12
950.833	3188.12
951.062	3167.12
951.291	3124.12
951.52	3086.12
951.749	3113.12
951.978	3027.12
952.206	3026.12
952.435	3045.12
952.664	3055.12
952.892	3045.12
953.121	3041.12
953.349	3065.12
953.578	3062.12
953.806	3015.12
954.035	2920.12
954.263	2979.12
954.491	2946.12
954.719	3014.12
954.948	2910.12
955.176	2930.12
955.404	2837.12
955.632	2921.12
955.86	2910.12
956.088	2901.12
956.316	2880.12
956.544	2915.12
956.772	2875.12
956.999	2809.12
957.227	2887.12
957.455	2777.12
957.683	2790.12
957.91	2760.12
958.138	2759.12
958.365	2737.12
958.593	2763.12
958.82	2673.12
959.048	2767.12
959.275	2740.12
959.502	2701.12
959.73	2681.12
959.957	2708.12
960.184	2726.12
960.411	2659.12
960.638	2729.12
960.865	2661.12
961.092	2729.12
961.319	2620.12
961.546	2728.12
961.773	2694.12
962	2669.12
962.227	2730.12
962.454	2652.12
962.68	2632.12
962.907	2629.12
963.134	2605.12
963.36	2622.12
963.587	2615.12
963.813	2493.12
964.04	2606.12
964.266	2499.12
964.493	2573.12
964.719	2543.12
964.945	2547.12
965.171	2443.12
965.398	2508.12
965.624	2532.12
965.85	2447.12
966.076	2440.12
966.302	2492.12
966.528	2445.12
966.754	2468.12
966.98	2458.12
967.206	2443.12
967.431	2380.12
967.657	2466.12
967.883	2431.12
968.109	2440.12
968.334	2389.12
968.56	2350.12
968.785	2402.12
969.011	2313.12
969.236	2384.12
969.462	2322.12
969.687	2298.12
969.912	2390.12
970.138	2377.12
970.363	2316.12
970.588	2323.12
970.813	2291.12
971.038	2291.12
971.263	2293.12
971.488	2287.12
971.713	2332.12
971.938	2316.12
972.163	2219.12
972.388	2234.12
972.613	2204.12
972.838	2207.12
973.062	2200.12
973.287	2207.12
973.512	2149.12
973.736	2201.12
973.961	2190.12
974.185	2172.12
974.41	2201.12
974.634	2138.12
974.858	2101.12
975.083	2151.12
975.307	2137.12
975.531	2092.12
975.755	2030.12
975.98	2064.12
976.204	2014.12
976.428	2002.12
976.652	2023.12
976.876	1990.12
977.1	2025.12
977.324	1973.12
977.547	2046.12
977.771	1997.12
977.995	2016.12
978.219	1947.12
978.442	2037.12
978.666	1999.12
978.89	1982.12
979.113	1976.12
979.337	1967.12
979.56	1952.12
979.783	2005.12
980.007	1896.12
980.23	1949.12
980.453	1888.12
980.677	1933.12
980.9	1929.12
981.123	1824.12
981.346	1935.12
981.569	1911.12
981.792	1928.12
982.015	1868.12
982.238	1858.12
982.461	1869.12
982.684	1833.12
982.907	1807.12
983.129	1799.12
983.352	1870.12
983.575	1821.12
983.797	1826.12
984.02	1788.12
984.242	1785.12
984.465	1781.12
984.687	1834.12
984.91	1829.12
985.132	1766.12
985.354	1817.12
985.577	1753.12
985.799	1765.12
986.021	1704.12
986.243	1697.12
986.465	1738.12
986.687	1790.12
986.909	1822.12
987.131	1748.12
987.353	1712.12
987.575	1757.12
987.797	1687.12
988.019	1661.12
988.241	1696.12
988.462	1677.12
988.684	1719.12
988.906	1722.12
989.127	1762.12
989.349	1657.12
989.57	1667.12
989.792	1730.12
990.013	1730.12
990.234	1719.12
990.456	1747.12
990.677	1715.12
990.898	1630.12
991.119	1661.12
991.341	1665.12
991.562	1634.12
991.783	1647.12
992.004	1585.12
992.225	1566.12
992.446	1624.12
992.667	1556.12
992.887	1639.12
993.108	1538.12
993.329	1674.12
993.55	1609.12
993.77	1531.12
993.991	1526.12
994.212	1556.12
994.432	1544.12
994.653	1569.12
994.873	1560.12
995.093	1432.12
995.314	1518.12
995.534	1590.12
995.754	1591.12
995.975	1586.12
996.195	1480.12
996.415	1528.12
996.635	1529.12
996.855	1513.12
997.075	1505.12
997.295	1506.12
997.515	1474.12
997.735	1505.12
997.955	1486.12
998.174	1468.12
998.394	1438.12
998.614	1520.12
998.834	1450.12
999.053	1539.12
999.273	1499.12
999.492	1544.12
999.712	1472.12
999.931	1449.12
1000.151	1497.12
1000.37	1455.12
1000.589	1557.12
1000.809	1454.12
1001.028	1539.12
1001.247	1496.12
1001.466	1371.12
1001.685	1529.12
1001.904	1452.12
1002.123	1432.12
1002.342	1462.12
1002.561	1416.12
1002.78	1453.12
1002.999	1496.12
1003.218	1462.12
1003.436	1431.12
1003.655	1455.12
1003.874	1394.12
1004.092	1427.12
1004.311	1454.12
1004.53	1427.12
1004.748	1495.12
1004.966	1424.12
1005.185	1461.12
1005.403	1451.12
1005.622	1442.12
1005.84	1510.12
1006.058	1375.12
1006.276	1427.12
1006.494	1798.12
1006.712	1415.12
1006.931	1460.12
1007.149	1379.12
1007.367	1383.12
1007.584	1413.12
1007.802	1456.12
1008.02	1400.12
1008.238	1491.12
1008.456	1484.12
1008.673	1344.12
1008.891	1460.12
1009.109	1400.12
1009.326	1415.12
1009.544	1523.12
1009.761	1388.12
1009.979	1472.12
1010.196	1482.12
1010.413	1533.12
1010.631	1559.12
1010.848	1578.12
1011.065	1555.12
1011.282	1522.12
1011.5	1463.12
1011.717	1574.12
1011.934	1507.12
1012.151	1558.12
1012.368	1519.12
1012.585	1471.12
1012.801	1513.12
1013.018	1494.12
1013.235	1436.12
1013.452	1501.12
1013.669	1475.12
1013.885	1442.12
1014.102	1502.12
1014.318	1471.12
1014.535	1425.12
1014.751	1447.12
1014.968	1428.12
1015.184	1465.12
1015.401	1390.12
1015.617	1452.12
1015.833	1384.12
1016.049	1399.12
1016.266	1384.12
1016.482	1384.12
1016.698	1309.12
1016.914	1384.12
1017.13	1366.12
1017.346	1338.12
1017.562	1407.12
1017.778	1324.12
1017.993	1292.12
1018.209	1382.12
1018.425	1326.12
1018.641	1309.12
1018.856	1269.12
1019.072	1307.12
1019.288	1373.12
1019.503	1304.12
1019.719	1261.12
1019.934	1213.12
1020.149	1325.12
1020.365	1250.12
1020.58	1214.12
1020.795	1246.12
1021.011	1164.12
1021.226	1195.12
1021.441	1229.12
1021.656	1146.12
1021.871	1076.12
1022.086	1091.12
1022.301	1067.12
1022.516	1074.12
1022.731	1143.12
1022.946	1051.12
1023.16	1023.12
1023.375	1004.12
1023.59	979.12
1023.804	955.12
1024.019	1064.12
1024.234	944.12
1024.448	973.12
1024.663	900.12
1024.877	927.12
1025.092	961.12
1025.306	959.12
1025.52	861.12
1025.734	957.12
1025.949	874.12
1026.163	846.12
1026.377	796.12
1026.591	841.12
1026.805	778.12
1027.019	771.12
1027.233	760.12
1027.447	704.12
1027.661	826.12
1027.875	748.12
1028.088	749.12
1028.302	672.12
1028.516	664.12
1028.73	683.12
1028.943	667.12
1029.157	607.12
1029.37	592.12
1029.584	-2.88
1029.797	0.12
1030.011	-1.88
1030.224	-3.88
