Data from QEP037381__74__13-46-04-641.txt Node

Date: Fri Apr 28 13:46:04 EDT 2023
User: dcclab
Spectrometer: QEP03738
Trigger mode: 4
Integration Time (sec): 1.000000E1
Scans to average: 1
Electric dark correction enabled: true
Nonlinearity correction enabled: false
Boxcar width: 0
XAxis mode: Wavelengths
Number of Pixels in Spectrum: 1044
>>>>>Begin Spectral Data<<<<<
784.041	13.5
784.3	-0.5
784.558	-0.5
784.817	-4.5
785.075	68736.5
785.334	13873.5
785.592	7200.5
785.851	5112.5
786.109	3901.5
786.368	3011.5
786.626	2432.5
786.884	2053.5
787.143	1759.5
787.401	1425.5
787.659	1280.5
787.917	1099.5
788.175	1007.5
788.433	894.5
788.691	811.5
788.949	737.5
789.207	753.5
789.465	644.5
789.723	596.5
789.98	568.5
790.238	607.5
790.496	578.5
790.753	539.5
791.011	600.5
791.268	527.5
791.526	507.5
791.783	537.5
792.041	521.5
792.298	439.5
792.556	496.5
792.813	467.5
793.07	469.5
793.327	447.5
793.584	520.5
793.841	450.5
794.099	467.5
794.356	521.5
794.613	446.5
794.869	466.5
795.126	442.5
795.383	426.5
795.64	448.5
795.897	417.5
796.153	450.5
796.41	446.5
796.667	442.5
796.923	456.5
797.18	439.5
797.436	458.5
797.693	435.5
797.949	501.5
798.206	513.5
798.462	433.5
798.718	496.5
798.974	461.5
799.231	518.5
799.487	496.5
799.743	527.5
799.999	567.5
800.255	549.5
800.511	559.5
800.767	601.5
801.023	591.5
801.279	641.5
801.534	685.5
801.79	755.5
802.046	832.5
802.302	1031.5
802.557	1198.5
802.813	1599.5
803.068	2074.5
803.324	2979.5
803.579	4237.5
803.835	5935.5
804.09	8183.5
804.345	10524.5
804.601	12937.5
804.856	15029.5
805.111	16672.5
805.366	17714.5
805.621	18537.5
805.876	19054.5
806.131	19425.5
806.386	19775.5
806.641	20113.5
806.896	20395.5
807.151	20898.5
807.406	21057.5
807.661	21503.5
807.915	21886.5
808.17	22310.5
808.425	22607.5
808.679	22780.5
808.934	23161.5
809.188	23340.5
809.443	23693.5
809.697	23947.5
809.951	24088.5
810.206	24332.5
810.46	24578.5
810.714	24795.5
810.968	24938.5
811.223	25096.5
811.477	25348.5
811.731	25495.5
811.985	25654.5
812.239	25815.5
812.493	25988.5
812.747	26015.5
813	26183.5
813.254	26358.5
813.508	26429.5
813.762	26577.5
814.015	26521.5
814.269	26834.5
814.522	27032.5
814.776	27341.5
815.03	27647.5
815.283	28094.5
815.536	28657.5
815.79	28936.5
816.043	29330.5
816.296	29692.5
816.55	30141.5
816.803	30447.5
817.056	30904.5
817.309	31201.5
817.562	31602.5
817.815	31850.5
818.068	32274.5
818.321	32564.5
818.574	33033.5
818.827	33511.5
819.079	33854.5
819.332	34518.5
819.585	35084.5
819.838	35430.5
820.09	35754.5
820.343	36005.5
820.595	36272.5
820.848	36428.5
821.1	36646.5
821.353	36600.5
821.605	36384.5
821.857	36587.5
822.11	36333.5
822.362	36286.5
822.614	36173.5
822.866	36160.5
823.118	36224.5
823.37	36373.5
823.622	36418.5
823.874	36543.5
824.126	36834.5
824.378	36794.5
824.63	36904.5
824.882	36877.5
825.134	37037.5
825.385	37027.5
825.637	36771.5
825.888	36582.5
826.14	36460.5
826.392	36394.5
826.643	36252.5
826.895	36165.5
827.146	35963.5
827.397	35909.5
827.649	35815.5
827.9	35788.5
828.151	35832.5
828.402	35996.5
828.653	36093.5
828.905	36069.5
829.156	36025.5
829.407	35990.5
829.658	35940.5
829.909	35972.5
830.159	35869.5
830.41	35751.5
830.661	35401.5
830.912	35099.5
831.162	35201.5
831.413	34974.5
831.664	35212.5
831.914	35101.5
832.165	35026.5
832.415	34942.5
832.666	34978.5
832.916	35045.5
833.167	34883.5
833.417	34817.5
833.667	34803.5
833.917	34496.5
834.168	34508.5
834.418	34467.5
834.668	34268.5
834.918	34000.5
835.168	33871.5
835.418	33860.5
835.668	33667.5
835.918	33718.5
836.167	33569.5
836.417	33394.5
836.667	33359.5
836.917	33264.5
837.166	33184.5
837.416	33224.5
837.666	33131.5
837.915	33104.5
838.165	33016.5
838.414	32791.5
838.663	32721.5
838.913	32697.5
839.162	32531.5
839.411	32654.5
839.661	32341.5
839.91	32293.5
840.159	32287.5
840.408	32267.5
840.657	32282.5
840.906	32308.5
841.155	32280.5
841.404	32242.5
841.653	32184.5
841.902	32167.5
842.15	32164.5
842.399	32166.5
842.648	31992.5
842.897	31917.5
843.145	31707.5
843.394	31349.5
843.642	31433.5
843.891	31178.5
844.139	31072.5
844.388	30845.5
844.636	30826.5
844.884	30701.5
845.133	30691.5
845.381	30560.5
845.629	30712.5
845.877	30608.5
846.125	30484.5
846.373	30437.5
846.621	30319.5
846.869	30294.5
847.117	30166.5
847.365	29939.5
847.613	29619.5
847.861	29658.5
848.108	29592.5
848.356	29498.5
848.604	29448.5
848.851	29526.5
849.099	29543.5
849.346	29626.5
849.594	29725.5
849.841	29845.5
850.089	29924.5
850.336	29822.5
850.583	29681.5
850.831	29590.5
851.078	29389.5
851.325	29357.5
851.572	29392.5
851.819	28896.5
852.066	28336.5
852.313	28066.5
852.56	27844.5
852.807	27605.5
853.054	27604.5
853.301	27661.5
853.548	27672.5
853.794	27752.5
854.041	27838.5
854.288	27921.5
854.534	28067.5
854.781	28019.5
855.028	27897.5
855.274	27853.5
855.52	27685.5
855.767	27466.5
856.013	27473.5
856.26	27613.5
856.506	27167.5
856.752	27137.5
856.998	27075.5
857.244	27117.5
857.49	27202.5
857.736	27296.5
857.982	27283.5
858.228	27360.5
858.474	27020.5
858.72	26830.5
858.966	26618.5
859.212	26360.5
859.458	26185.5
859.703	25850.5
859.949	25564.5
860.195	25519.5
860.44	25286.5
860.686	25072.5
860.931	25121.5
861.177	24935.5
861.422	24877.5
861.667	24763.5
861.913	24907.5
862.158	24995.5
862.403	24999.5
862.648	25190.5
862.893	25144.5
863.138	25111.5
863.384	24891.5
863.629	24931.5
863.873	24923.5
864.118	24734.5
864.363	24613.5
864.608	24652.5
864.853	24344.5
865.098	24258.5
865.342	24097.5
865.587	23862.5
865.832	23957.5
866.076	23914.5
866.321	23781.5
866.565	23815.5
866.81	23640.5
867.054	23608.5
867.298	23481.5
867.543	23383.5
867.787	23463.5
868.031	23317.5
868.275	23353.5
868.519	23299.5
868.764	23221.5
869.008	23175.5
869.252	23210.5
869.496	23022.5
869.739	22998.5
869.983	22915.5
870.227	23055.5
870.471	22910.5
870.715	22943.5
870.958	22915.5
871.202	22957.5
871.446	22984.5
871.689	22880.5
871.933	22840.5
872.176	22903.5
872.42	22773.5
872.663	22675.5
872.906	22645.5
873.15	22391.5
873.393	22247.5
873.636	22122.5
873.879	22051.5
874.122	21790.5
874.366	21557.5
874.609	21343.5
874.852	21330.5
875.095	21326.5
875.337	21131.5
875.58	21116.5
875.823	21035.5
876.066	21056.5
876.309	20991.5
876.551	20793.5
876.794	20605.5
877.037	20667.5
877.279	20635.5
877.522	20669.5
877.764	20610.5
878.007	20582.5
878.249	20640.5
878.491	20632.5
878.734	20498.5
878.976	20425.5
879.218	20209.5
879.46	20217.5
879.702	19956.5
879.945	19882.5
880.187	19748.5
880.429	19695.5
880.671	19465.5
880.912	19465.5
881.154	19350.5
881.396	19317.5
881.638	19283.5
881.88	19254.5
882.121	19222.5
882.363	19289.5
882.605	19187.5
882.846	19075.5
883.088	18903.5
883.329	18933.5
883.571	18856.5
883.812	18754.5
884.053	18933.5
884.295	19004.5
884.536	19200.5
884.777	19101.5
885.018	19009.5
885.259	18987.5
885.5	18859.5
885.742	19077.5
885.982	18892.5
886.223	18600.5
886.464	18629.5
886.705	18513.5
886.946	18353.5
887.187	18155.5
887.428	18083.5
887.668	17857.5
887.909	17681.5
888.15	17543.5
888.39	17413.5
888.631	17371.5
888.871	17293.5
889.111	17093.5
889.352	16965.5
889.592	16826.5
889.833	16666.5
890.073	16548.5
890.313	16582.5
890.553	16309.5
890.793	16380.5
891.033	16253.5
891.273	16192.5
891.513	16038.5
891.753	16242.5
891.993	16105.5
892.233	16071.5
892.473	16110.5
892.713	16121.5
892.952	16079.5
893.192	16028.5
893.432	16104.5
893.671	15971.5
893.911	15876.5
894.15	15807.5
894.39	15686.5
894.629	15571.5
894.869	15456.5
895.108	15311.5
895.347	15205.5
895.587	15260.5
895.826	15165.5
896.065	15096.5
896.304	15122.5
896.543	15058.5
896.782	14963.5
897.021	14933.5
897.26	14920.5
897.499	14940.5
897.738	14922.5
897.977	14735.5
898.216	14594.5
898.454	14499.5
898.693	14359.5
898.932	14399.5
899.17	14262.5
899.409	14236.5
899.647	14210.5
899.886	14189.5
900.124	14176.5
900.363	14129.5
900.601	14313.5
900.839	14198.5
901.078	14239.5
901.316	14190.5
901.554	14270.5
901.792	14367.5
902.03	14210.5
902.268	14223.5
902.506	14144.5
902.744	14003.5
902.982	13913.5
903.22	13663.5
903.458	13541.5
903.695	13456.5
903.933	13309.5
904.171	13103.5
904.409	12918.5
904.646	12815.5
904.884	12663.5
905.121	12503.5
905.359	12358.5
905.596	12288.5
905.833	12278.5
906.071	12197.5
906.308	12139.5
906.545	12141.5
906.783	12034.5
907.02	12044.5
907.257	12030.5
907.494	11914.5
907.731	12001.5
907.968	11941.5
908.205	11803.5
908.442	11756.5
908.679	11712.5
908.915	11600.5
909.152	11493.5
909.389	11274.5
909.626	11345.5
909.862	11223.5
910.099	11229.5
910.335	11220.5
910.572	11000.5
910.808	10999.5
911.045	11018.5
911.281	10999.5
911.518	10990.5
911.754	10839.5
911.99	10805.5
912.226	10604.5
912.463	10609.5
912.699	10526.5
912.935	10443.5
913.171	10404.5
913.407	10284.5
913.643	10219.5
913.879	10144.5
914.114	10062.5
914.35	9923.5
914.586	9793.5
914.822	9765.5
915.057	9770.5
915.293	9563.5
915.529	9530.5
915.764	9612.5
916	9581.5
916.235	9529.5
916.471	9558.5
916.706	9414.5
916.941	9414.5
917.177	9416.5
917.412	9383.5
917.647	9502.5
917.882	9373.5
918.117	9409.5
918.352	9320.5
918.588	9342.5
918.823	9188.5
919.057	9153.5
919.292	8953.5
919.527	9029.5
919.762	8902.5
919.997	8744.5
920.232	8589.5
920.466	8605.5
920.701	8446.5
920.935	8451.5
921.17	8390.5
921.405	8265.5
921.639	8391.5
921.873	8292.5
922.108	8283.5
922.342	8251.5
922.576	8228.5
922.811	8147.5
923.045	8170.5
923.279	8183.5
923.513	7980.5
923.747	8085.5
923.981	7936.5
924.215	7894.5
924.449	7825.5
924.683	7767.5
924.917	7764.5
925.151	7713.5
925.385	7748.5
925.618	7663.5
925.852	7648.5
926.086	7574.5
926.319	7642.5
926.553	7640.5
926.786	7590.5
927.02	7545.5
927.253	7631.5
927.486	7548.5
927.72	7470.5
927.953	7487.5
928.186	7471.5
928.42	7537.5
928.653	7335.5
928.886	7366.5
929.119	7373.5
929.352	7296.5
929.585	7302.5
929.818	7205.5
930.051	7118.5
930.284	7100.5
930.516	7024.5
930.749	6947.5
930.982	6956.5
931.215	6940.5
931.447	6773.5
931.68	6800.5
931.912	6767.5
932.145	6789.5
932.377	6818.5
932.61	6923.5
932.842	6745.5
933.074	6798.5
933.307	6758.5
933.539	6855.5
933.771	6855.5
934.003	6749.5
934.236	6924.5
934.468	6819.5
934.7	6704.5
934.932	6742.5
935.164	6676.5
935.395	6625.5
935.627	6631.5
935.859	6593.5
936.091	6483.5
936.323	6592.5
936.554	6528.5
936.786	6506.5
937.017	6453.5
937.249	6515.5
937.481	6370.5
937.712	6397.5
937.943	6423.5
938.175	6303.5
938.406	6335.5
938.637	6402.5
938.869	6302.5
939.1	6373.5
939.331	6292.5
939.562	6330.5
939.793	6257.5
940.024	6303.5
940.255	6256.5
940.486	6266.5
940.717	6139.5
940.948	6098.5
941.179	6081.5
941.409	6020.5
941.64	6061.5
941.871	6063.5
942.102	6038.5
942.332	6049.5
942.563	6093.5
942.793	6055.5
943.024	6066.5
943.254	6005.5
943.484	6113.5
943.715	6115.5
943.945	6057.5
944.175	5983.5
944.405	5956.5
944.636	5939.5
944.866	5913.5
945.096	5991.5
945.326	5890.5
945.556	5985.5
945.786	5909.5
946.016	5849.5
946.245	5757.5
946.475	5752.5
946.705	5704.5
946.935	5763.5
947.164	5647.5
947.394	5644.5
947.624	5594.5
947.853	5642.5
948.083	5578.5
948.312	5548.5
948.542	5444.5
948.771	5424.5
949	5508.5
949.23	5462.5
949.459	5445.5
949.688	5494.5
949.917	5435.5
950.146	5435.5
950.375	5499.5
950.604	5431.5
950.833	5454.5
951.062	5518.5
951.291	5414.5
951.52	5380.5
951.749	5385.5
951.978	5343.5
952.206	5366.5
952.435	5262.5
952.664	5306.5
952.892	5265.5
953.121	5237.5
953.349	5305.5
953.578	5211.5
953.806	5194.5
954.035	5121.5
954.263	5105.5
954.491	5081.5
954.719	5093.5
954.948	5001.5
955.176	5013.5
955.404	4940.5
955.632	5002.5
955.86	4968.5
956.088	4949.5
956.316	4936.5
956.544	4949.5
956.772	4883.5
956.999	4799.5
957.227	4918.5
957.455	4813.5
957.683	4732.5
957.91	4710.5
958.138	4670.5
958.365	4683.5
958.593	4682.5
958.82	4608.5
959.048	4664.5
959.275	4620.5
959.502	4607.5
959.73	4570.5
959.957	4605.5
960.184	4585.5
960.411	4568.5
960.638	4642.5
960.865	4537.5
961.092	4587.5
961.319	4470.5
961.546	4542.5
961.773	4539.5
962	4534.5
962.227	4563.5
962.454	4499.5
962.68	4462.5
962.907	4454.5
963.134	4422.5
963.36	4399.5
963.587	4397.5
963.813	4307.5
964.04	4348.5
964.266	4265.5
964.493	4320.5
964.719	4293.5
964.945	4297.5
965.171	4171.5
965.398	4171.5
965.624	4191.5
965.85	4125.5
966.076	4118.5
966.302	4100.5
966.528	4067.5
966.754	4087.5
966.98	4075.5
967.206	4080.5
967.431	3959.5
967.657	4041.5
967.883	4042.5
968.109	4021.5
968.334	3965.5
968.56	3948.5
968.785	3981.5
969.011	3929.5
969.236	3951.5
969.462	3887.5
969.687	3913.5
969.912	3950.5
970.138	3936.5
970.363	3839.5
970.588	3874.5
970.813	3814.5
971.038	3804.5
971.263	3831.5
971.488	3825.5
971.713	3852.5
971.938	3862.5
972.163	3699.5
972.388	3731.5
972.613	3665.5
972.838	3735.5
973.062	3679.5
973.287	3656.5
973.512	3595.5
973.736	3604.5
973.961	3562.5
974.185	3578.5
974.41	3590.5
974.634	3448.5
974.858	3476.5
975.083	3521.5
975.307	3491.5
975.531	3417.5
975.755	3353.5
975.98	3356.5
976.204	3316.5
976.428	3306.5
976.652	3260.5
976.876	3268.5
977.1	3339.5
977.324	3291.5
977.547	3283.5
977.771	3297.5
977.995	3230.5
978.219	3169.5
978.442	3301.5
978.666	3252.5
978.89	3233.5
979.113	3201.5
979.337	3183.5
979.56	3142.5
979.783	3219.5
980.007	3145.5
980.23	3182.5
980.453	3120.5
980.677	3135.5
980.9	3129.5
981.123	3005.5
981.346	3098.5
981.569	3086.5
981.792	3088.5
982.015	3025.5
982.238	2998.5
982.461	3016.5
982.684	2947.5
982.907	2919.5
983.129	2933.5
983.352	2946.5
983.575	2966.5
983.797	2915.5
984.02	2854.5
984.242	2899.5
984.465	2882.5
984.687	2879.5
984.91	2894.5
985.132	2805.5
985.354	2859.5
985.577	2804.5
985.799	2795.5
986.021	2745.5
986.243	2713.5
986.465	2712.5
986.687	2755.5
986.909	2808.5
987.131	2733.5
987.353	2672.5
987.575	2755.5
987.797	2692.5
988.019	2625.5
988.241	2664.5
988.462	2639.5
988.684	2725.5
988.906	2688.5
989.127	2741.5
989.349	2597.5
989.57	2639.5
989.792	2681.5
990.013	2636.5
990.234	2674.5
990.456	2681.5
990.677	2647.5
990.898	2600.5
991.119	2574.5
991.341	2584.5
991.562	2539.5
991.783	2558.5
992.004	2518.5
992.225	2453.5
992.446	2506.5
992.667	2388.5
992.887	2478.5
993.108	2372.5
993.329	2506.5
993.55	2412.5
993.77	2388.5
993.991	2366.5
994.212	2373.5
994.432	2380.5
994.653	2414.5
994.873	2355.5
995.093	2240.5
995.314	2288.5
995.534	2358.5
995.754	2348.5
995.975	2354.5
996.195	2264.5
996.415	2314.5
996.635	2280.5
996.855	2300.5
997.075	2263.5
997.295	2233.5
997.515	2220.5
997.735	2283.5
997.955	2238.5
998.174	2236.5
998.394	2235.5
998.614	2272.5
998.834	2170.5
999.053	2244.5
999.273	2203.5
999.492	2299.5
999.712	2200.5
999.931	2183.5
1000.151	2230.5
1000.37	2156.5
1000.589	2219.5
1000.809	2118.5
1001.028	2232.5
1001.247	2163.5
1001.466	2086.5
1001.685	2189.5
1001.904	2108.5
1002.123	2108.5
1002.342	2083.5
1002.561	2061.5
1002.78	2081.5
1002.999	2122.5
1003.218	2072.5
1003.436	2026.5
1003.655	2076.5
1003.874	2006.5
1004.092	2047.5
1004.311	2077.5
1004.53	2000.5
1004.748	2107.5
1004.966	1995.5
1005.185	2038.5
1005.403	2038.5
1005.622	2017.5
1005.84	2092.5
1006.058	1975.5
1006.276	2027.5
1006.494	2337.5
1006.712	1988.5
1006.931	2053.5
1007.149	1961.5
1007.367	1952.5
1007.584	2003.5
1007.802	2033.5
1008.02	1978.5
1008.238	2049.5
1008.456	2058.5
1008.673	1909.5
1008.891	2029.5
1009.109	1960.5
1009.326	1983.5
1009.544	2047.5
1009.761	1980.5
1009.979	2051.5
1010.196	2021.5
1010.413	2159.5
1010.631	2186.5
1010.848	2184.5
1011.065	2154.5
1011.282	2113.5
1011.5	2065.5
1011.717	2176.5
1011.934	2099.5
1012.151	2142.5
1012.368	2125.5
1012.585	2048.5
1012.801	2098.5
1013.018	2089.5
1013.235	2043.5
1013.452	2062.5
1013.669	2097.5
1013.885	2042.5
1014.102	2082.5
1014.318	2059.5
1014.535	1992.5
1014.751	2055.5
1014.968	2029.5
1015.184	2041.5
1015.401	1955.5
1015.617	1987.5
1015.833	1947.5
1016.049	1938.5
1016.266	1918.5
1016.482	1945.5
1016.698	1860.5
1016.914	1915.5
1017.13	1861.5
1017.346	1862.5
1017.562	1891.5
1017.778	1835.5
1017.993	1829.5
1018.209	1873.5
1018.425	1847.5
1018.641	1812.5
1018.856	1793.5
1019.072	1810.5
1019.288	1856.5
1019.503	1798.5
1019.719	1746.5
1019.934	1752.5
1020.149	1830.5
1020.365	1737.5
1020.58	1683.5
1020.795	1730.5
1021.011	1645.5
1021.226	1632.5
1021.441	1663.5
1021.656	1566.5
1021.871	1508.5
1022.086	1519.5
1022.301	1506.5
1022.516	1467.5
1022.731	1564.5
1022.946	1431.5
1023.16	1426.5
1023.375	1381.5
1023.59	1383.5
1023.804	1352.5
1024.019	1425.5
1024.234	1290.5
1024.448	1337.5
1024.663	1259.5
1024.877	1260.5
1025.092	1277.5
1025.306	1304.5
1025.52	1186.5
1025.734	1269.5
1025.949	1194.5
1026.163	1156.5
1026.377	1092.5
1026.591	1143.5
1026.805	1067.5
1027.019	1058.5
1027.233	1020.5
1027.447	975.5
1027.661	1042.5
1027.875	1016.5
1028.088	1008.5
1028.302	928.5
1028.516	912.5
1028.73	919.5
1028.943	902.5
1029.157	828.5
1029.37	766.5
1029.584	0.5
1029.797	-3.5
1030.011	-4.5
1030.224	-0.5
