Data from QEP037381__477__17-14-57-253.txt Node

Date: Fri Dec 16 17:14:57 EST 2022
User: dcclab
Spectrometer: QEP03738
Trigger mode: 4
Integration Time (sec): 1.000000E1
Scans to average: 1
Electric dark correction enabled: true
Nonlinearity correction enabled: false
Boxcar width: 0
XAxis mode: Wavelengths
Number of Pixels in Spectrum: 1044
>>>>>Begin Spectral Data<<<<<
784.041	15.5
784.3	-0.5
784.558	-3.5
784.817	-3.5
785.075	109097.5
785.334	18703.5
785.592	8751.5
785.851	6110.5
786.109	4489.5
786.368	3579.5
786.626	2858.5
786.884	2367.5
787.143	2015.5
787.401	1665.5
787.659	1492.5
787.917	1267.5
788.175	1169.5
788.433	996.5
788.691	911.5
788.949	832.5
789.207	807.5
789.465	690.5
789.723	673.5
789.98	634.5
790.238	650.5
790.496	621.5
790.753	602.5
791.011	632.5
791.268	587.5
791.526	545.5
791.783	572.5
792.041	546.5
792.298	477.5
792.556	528.5
792.813	500.5
793.07	494.5
793.327	471.5
793.584	561.5
793.841	470.5
794.099	500.5
794.356	542.5
794.613	436.5
794.869	495.5
795.126	435.5
795.383	424.5
795.64	455.5
795.897	418.5
796.153	470.5
796.41	455.5
796.667	437.5
796.923	440.5
797.18	452.5
797.436	464.5
797.693	448.5
797.949	497.5
798.206	498.5
798.462	433.5
798.718	502.5
798.974	476.5
799.231	527.5
799.487	516.5
799.743	514.5
799.999	543.5
800.255	546.5
800.511	536.5
800.767	564.5
801.023	563.5
801.279	632.5
801.534	679.5
801.79	731.5
802.046	768.5
802.302	929.5
802.557	1094.5
802.813	1370.5
803.068	1753.5
803.324	2444.5
803.579	3401.5
803.835	4754.5
804.09	6563.5
804.345	8673.5
804.601	10872.5
804.856	13220.5
805.111	15259.5
805.366	16652.5
805.621	17822.5
805.876	18528.5
806.131	18880.5
806.386	19274.5
806.641	19567.5
806.896	19814.5
807.151	20135.5
807.406	20559.5
807.661	20927.5
807.915	21140.5
808.17	21404.5
808.425	21650.5
808.679	21841.5
808.934	22091.5
809.188	22214.5
809.443	22489.5
809.697	22829.5
809.951	22934.5
810.206	23140.5
810.46	23367.5
810.714	23359.5
810.968	23600.5
811.223	23856.5
811.477	24063.5
811.731	24222.5
811.985	24195.5
812.239	24441.5
812.493	24474.5
812.747	24654.5
813	24557.5
813.254	24744.5
813.508	24873.5
813.762	24906.5
814.015	25026.5
814.269	25090.5
814.522	25455.5
814.776	25608.5
815.03	25985.5
815.283	26344.5
815.536	26701.5
815.79	27016.5
816.043	27435.5
816.296	27728.5
816.55	27989.5
816.803	28401.5
817.056	28772.5
817.309	28897.5
817.562	29151.5
817.815	29385.5
818.068	29533.5
818.321	29816.5
818.574	30214.5
818.827	30551.5
819.079	30826.5
819.332	31434.5
819.585	31704.5
819.838	32012.5
820.09	32269.5
820.343	32500.5
820.595	32679.5
820.848	32932.5
821.1	32867.5
821.353	32864.5
821.605	32896.5
821.857	33017.5
822.11	32779.5
822.362	32718.5
822.614	32625.5
822.866	32696.5
823.118	32622.5
823.37	32860.5
823.622	32750.5
823.874	32901.5
824.126	33000.5
824.378	33017.5
824.63	33184.5
824.882	33220.5
825.134	33004.5
825.385	33206.5
825.637	33064.5
825.888	32903.5
826.14	32799.5
826.392	32566.5
826.643	32588.5
826.895	32516.5
827.146	32421.5
827.397	32237.5
827.649	32356.5
827.9	32112.5
828.151	32316.5
828.402	32261.5
828.653	32278.5
828.905	32311.5
829.156	32426.5
829.407	32491.5
829.658	32395.5
829.909	32179.5
830.159	32356.5
830.41	32012.5
830.661	31883.5
830.912	31560.5
831.162	31491.5
831.413	31419.5
831.664	31536.5
831.914	31419.5
832.165	31333.5
832.415	31389.5
832.666	31332.5
832.916	31363.5
833.167	31250.5
833.417	31249.5
833.667	31108.5
833.917	30892.5
834.168	30811.5
834.418	30830.5
834.668	30743.5
834.918	30582.5
835.168	30525.5
835.418	30427.5
835.668	30347.5
835.918	30291.5
836.167	30151.5
836.417	29970.5
836.667	30012.5
836.917	29959.5
837.166	29977.5
837.416	29964.5
837.666	29705.5
837.915	29678.5
838.165	29728.5
838.414	29470.5
838.663	29252.5
838.913	29463.5
839.162	29274.5
839.411	29252.5
839.661	29126.5
839.91	29112.5
840.159	28907.5
840.408	28869.5
840.657	28786.5
840.906	28814.5
841.155	28938.5
841.404	28917.5
841.653	28843.5
841.902	28848.5
842.15	28809.5
842.399	28723.5
842.648	28734.5
842.897	28615.5
843.145	28434.5
843.394	28292.5
843.642	28234.5
843.891	28053.5
844.139	27820.5
844.388	27644.5
844.636	27567.5
844.884	27541.5
845.133	27493.5
845.381	27468.5
845.629	27439.5
845.877	27363.5
846.125	27379.5
846.373	27186.5
846.621	27058.5
846.869	27036.5
847.117	26793.5
847.365	26721.5
847.613	26583.5
847.861	26503.5
848.108	26474.5
848.356	26426.5
848.604	26308.5
848.851	26343.5
849.099	26246.5
849.346	26443.5
849.594	26485.5
849.841	26591.5
850.089	26486.5
850.336	26578.5
850.583	26509.5
850.831	26299.5
851.078	26196.5
851.325	26097.5
851.572	26007.5
851.819	25751.5
852.066	25453.5
852.313	25112.5
852.56	24942.5
852.807	24779.5
853.054	24744.5
853.301	24625.5
853.548	24683.5
853.794	24794.5
854.041	24869.5
854.288	24976.5
854.534	25123.5
854.781	25104.5
855.028	24915.5
855.274	24944.5
855.52	24667.5
855.767	24499.5
856.013	24503.5
856.26	24828.5
856.506	24183.5
856.752	24324.5
856.998	24270.5
857.244	24314.5
857.49	24308.5
857.736	24299.5
857.982	24386.5
858.228	24249.5
858.474	24143.5
858.72	23993.5
858.966	23755.5
859.212	23445.5
859.458	23318.5
859.703	23144.5
859.949	22940.5
860.195	22653.5
860.44	22617.5
860.686	22503.5
860.931	22349.5
861.177	22233.5
861.422	22256.5
861.667	22150.5
861.913	22142.5
862.158	22264.5
862.403	22239.5
862.648	22217.5
862.893	22325.5
863.138	22178.5
863.384	22200.5
863.629	22133.5
863.873	22073.5
864.118	22034.5
864.363	21929.5
864.608	21700.5
864.853	21812.5
865.098	21480.5
865.342	21481.5
865.587	21458.5
865.832	21428.5
866.076	21375.5
866.321	21200.5
866.565	21099.5
866.81	21006.5
867.054	20997.5
867.298	20942.5
867.543	20796.5
867.787	20804.5
868.031	20628.5
868.275	20707.5
868.519	20547.5
868.764	20579.5
869.008	20513.5
869.252	20477.5
869.496	20296.5
869.739	20330.5
869.983	20222.5
870.227	20160.5
870.471	20199.5
870.715	20257.5
870.958	20232.5
871.202	20134.5
871.446	20178.5
871.689	20216.5
871.933	20183.5
872.176	20107.5
872.42	20148.5
872.663	20058.5
872.906	19990.5
873.15	19856.5
873.393	19719.5
873.636	19736.5
873.879	19520.5
874.122	19339.5
874.366	19034.5
874.609	18962.5
874.852	18822.5
875.095	18763.5
875.337	18702.5
875.58	18538.5
875.823	18479.5
876.066	18430.5
876.309	18359.5
876.551	18221.5
876.794	18145.5
877.037	18143.5
877.279	18145.5
877.522	18117.5
877.764	18137.5
878.007	18165.5
878.249	18109.5
878.491	18044.5
878.734	18045.5
878.976	17983.5
879.218	17835.5
879.46	17831.5
879.702	17643.5
879.945	17531.5
880.187	17377.5
880.429	17361.5
880.671	17150.5
880.912	17088.5
881.154	17013.5
881.396	16872.5
881.638	16992.5
881.88	16948.5
882.121	16853.5
882.363	16861.5
882.605	16808.5
882.846	16808.5
883.088	16685.5
883.329	16607.5
883.571	16539.5
883.812	16589.5
884.053	16698.5
884.295	16875.5
884.536	16983.5
884.777	16839.5
885.018	16694.5
885.259	16633.5
885.5	16619.5
885.742	16727.5
885.982	16648.5
886.223	16406.5
886.464	16313.5
886.705	16337.5
886.946	16146.5
887.187	15976.5
887.428	15937.5
887.668	15644.5
887.909	15641.5
888.15	15495.5
888.39	15327.5
888.631	15332.5
888.871	15232.5
889.111	15101.5
889.352	14931.5
889.592	14824.5
889.833	14675.5
890.073	14659.5
890.313	14665.5
890.553	14375.5
890.793	14361.5
891.033	14300.5
891.273	14276.5
891.513	14157.5
891.753	14134.5
891.993	14132.5
892.233	14134.5
892.473	14216.5
892.713	14092.5
892.952	14059.5
893.192	14146.5
893.432	14185.5
893.671	14150.5
893.911	13984.5
894.15	13932.5
894.39	13802.5
894.629	13610.5
894.869	13567.5
895.108	13591.5
895.347	13430.5
895.587	13333.5
895.826	13353.5
896.065	13323.5
896.304	13302.5
896.543	13270.5
896.782	13152.5
897.021	13177.5
897.26	13153.5
897.499	13081.5
897.738	13101.5
897.977	12946.5
898.216	12791.5
898.454	12747.5
898.693	12556.5
898.932	12598.5
899.17	12511.5
899.409	12490.5
899.647	12409.5
899.886	12342.5
900.124	12419.5
900.363	12317.5
900.601	12362.5
900.839	12441.5
901.078	12361.5
901.316	12361.5
901.554	12336.5
901.792	12385.5
902.03	12282.5
902.268	12288.5
902.506	12380.5
902.744	12204.5
902.982	12221.5
903.22	11988.5
903.458	11948.5
903.695	11781.5
903.933	11628.5
904.171	11475.5
904.409	11374.5
904.646	11230.5
904.884	11067.5
905.121	11101.5
905.359	10953.5
905.596	10772.5
905.833	10811.5
906.071	10650.5
906.308	10648.5
906.545	10639.5
906.783	10513.5
907.02	10604.5
907.257	10501.5
907.494	10583.5
907.731	10452.5
907.968	10426.5
908.205	10323.5
908.442	10262.5
908.679	10267.5
908.915	10150.5
909.152	10072.5
909.389	9953.5
909.626	9878.5
909.862	9875.5
910.099	9755.5
910.335	9749.5
910.572	9614.5
910.808	9693.5
911.045	9669.5
911.281	9574.5
911.518	9565.5
911.754	9504.5
911.99	9507.5
912.226	9395.5
912.463	9324.5
912.699	9254.5
912.935	9161.5
913.171	9122.5
913.407	9048.5
913.643	9018.5
913.879	8914.5
914.114	8839.5
914.35	8683.5
914.586	8627.5
914.822	8522.5
915.057	8576.5
915.293	8490.5
915.529	8416.5
915.764	8424.5
916	8373.5
916.235	8348.5
916.471	8380.5
916.706	8272.5
916.941	8204.5
917.177	8206.5
917.412	8215.5
917.647	8218.5
917.882	8192.5
918.117	8232.5
918.352	8160.5
918.588	8171.5
918.823	8037.5
919.057	7924.5
919.292	7776.5
919.527	7857.5
919.762	7718.5
919.997	7651.5
920.232	7536.5
920.466	7541.5
920.701	7409.5
920.935	7414.5
921.17	7308.5
921.405	7296.5
921.639	7283.5
921.873	7268.5
922.108	7273.5
922.342	7204.5
922.576	7110.5
922.811	7127.5
923.045	7103.5
923.279	7087.5
923.513	7000.5
923.747	7015.5
923.981	6951.5
924.215	6936.5
924.449	6877.5
924.683	6750.5
924.917	6768.5
925.151	6723.5
925.385	6738.5
925.618	6696.5
925.852	6713.5
926.086	6546.5
926.319	6607.5
926.553	6630.5
926.786	6599.5
927.02	6587.5
927.253	6627.5
927.486	6538.5
927.72	6498.5
927.953	6547.5
928.186	6479.5
928.42	6506.5
928.653	6426.5
928.886	6400.5
929.119	6424.5
929.352	6372.5
929.585	6366.5
929.818	6226.5
930.051	6299.5
930.284	6131.5
930.516	6057.5
930.749	6045.5
930.982	6089.5
931.215	6045.5
931.447	5922.5
931.68	5919.5
931.912	5905.5
932.145	5957.5
932.377	5927.5
932.61	6042.5
932.842	5817.5
933.074	5902.5
933.307	5825.5
933.539	5919.5
933.771	5929.5
934.003	5872.5
934.236	5915.5
934.468	5928.5
934.7	5795.5
934.932	5881.5
935.164	5766.5
935.395	5712.5
935.627	5722.5
935.859	5749.5
936.091	5640.5
936.323	5645.5
936.554	5690.5
936.786	5577.5
937.017	5525.5
937.249	5614.5
937.481	5504.5
937.712	5593.5
937.943	5550.5
938.175	5500.5
938.406	5477.5
938.637	5554.5
938.869	5452.5
939.1	5528.5
939.331	5460.5
939.562	5461.5
939.793	5463.5
940.024	5421.5
940.255	5430.5
940.486	5323.5
940.717	5311.5
940.948	5266.5
941.179	5216.5
941.409	5208.5
941.64	5204.5
941.871	5234.5
942.102	5192.5
942.332	5201.5
942.563	5241.5
942.793	5214.5
943.024	5177.5
943.254	5187.5
943.484	5206.5
943.715	5175.5
943.945	5100.5
944.175	5111.5
944.405	5044.5
944.636	5077.5
944.866	5071.5
945.096	5071.5
945.326	5006.5
945.556	5068.5
945.786	5067.5
946.016	4992.5
946.245	4912.5
946.475	4867.5
946.705	4890.5
946.935	4873.5
947.164	4848.5
947.394	4772.5
947.624	4766.5
947.853	4827.5
948.083	4754.5
948.312	4711.5
948.542	4666.5
948.771	4636.5
949	4631.5
949.23	4693.5
949.459	4639.5
949.688	4684.5
949.917	4642.5
950.146	4658.5
950.375	4669.5
950.604	4573.5
950.833	4718.5
951.062	4646.5
951.291	4586.5
951.52	4505.5
951.749	4517.5
951.978	4517.5
952.206	4482.5
952.435	4488.5
952.664	4485.5
952.892	4487.5
953.121	4426.5
953.349	4442.5
953.578	4448.5
953.806	4373.5
954.035	4326.5
954.263	4360.5
954.491	4250.5
954.719	4319.5
954.948	4231.5
955.176	4221.5
955.404	4126.5
955.632	4236.5
955.86	4192.5
956.088	4170.5
956.316	4209.5
956.544	4170.5
956.772	4082.5
956.999	4034.5
957.227	4141.5
957.455	3979.5
957.683	4008.5
957.91	3968.5
958.138	3972.5
958.365	3937.5
958.593	3931.5
958.82	3904.5
959.048	3931.5
959.275	3898.5
959.502	3880.5
959.73	3843.5
959.957	3876.5
960.184	3905.5
960.411	3788.5
960.638	3875.5
960.865	3828.5
961.092	3859.5
961.319	3745.5
961.546	3816.5
961.773	3816.5
962	3780.5
962.227	3813.5
962.454	3822.5
962.68	3719.5
962.907	3785.5
963.134	3687.5
963.36	3669.5
963.587	3700.5
963.813	3603.5
964.04	3635.5
964.266	3569.5
964.493	3673.5
964.719	3554.5
964.945	3574.5
965.171	3490.5
965.398	3534.5
965.624	3521.5
965.85	3438.5
966.076	3435.5
966.302	3459.5
966.528	3415.5
966.754	3425.5
966.98	3409.5
967.206	3407.5
967.431	3328.5
967.657	3396.5
967.883	3424.5
968.109	3373.5
968.334	3280.5
968.56	3307.5
968.785	3282.5
969.011	3251.5
969.236	3343.5
969.462	3253.5
969.687	3287.5
969.912	3303.5
970.138	3284.5
970.363	3235.5
970.588	3259.5
970.813	3175.5
971.038	3169.5
971.263	3175.5
971.488	3191.5
971.713	3226.5
971.938	3181.5
972.163	3098.5
972.388	3085.5
972.613	3080.5
972.838	3091.5
973.062	3038.5
973.287	3030.5
973.512	3010.5
973.736	2996.5
973.961	2978.5
974.185	2982.5
974.41	3004.5
974.634	2892.5
974.858	2885.5
975.083	2945.5
975.307	2922.5
975.531	2873.5
975.755	2792.5
975.98	2848.5
976.204	2750.5
976.428	2774.5
976.652	2747.5
976.876	2740.5
977.1	2777.5
977.324	2714.5
977.547	2751.5
977.771	2723.5
977.995	2689.5
978.219	2652.5
978.442	2742.5
978.666	2710.5
978.89	2677.5
979.113	2699.5
979.337	2662.5
979.56	2622.5
979.783	2734.5
980.007	2578.5
980.23	2644.5
980.453	2584.5
980.677	2632.5
980.9	2621.5
981.123	2503.5
981.346	2584.5
981.569	2581.5
981.792	2584.5
982.015	2501.5
982.238	2509.5
982.461	2480.5
982.684	2478.5
982.907	2436.5
983.129	2403.5
983.352	2461.5
983.575	2451.5
983.797	2431.5
984.02	2369.5
984.242	2403.5
984.465	2379.5
984.687	2386.5
984.91	2446.5
985.132	2385.5
985.354	2378.5
985.577	2396.5
985.799	2299.5
986.021	2257.5
986.243	2303.5
986.465	2292.5
986.687	2349.5
986.909	2368.5
987.131	2327.5
987.353	2252.5
987.575	2315.5
987.797	2257.5
988.019	2175.5
988.241	2245.5
988.462	2179.5
988.684	2308.5
988.906	2307.5
989.127	2271.5
989.349	2169.5
989.57	2197.5
989.792	2245.5
990.013	2232.5
990.234	2266.5
990.456	2248.5
990.677	2252.5
990.898	2168.5
991.119	2188.5
991.341	2167.5
991.562	2095.5
991.783	2143.5
992.004	2060.5
992.225	2046.5
992.446	2113.5
992.667	2039.5
992.887	2086.5
993.108	1976.5
993.329	2131.5
993.55	2064.5
993.77	1991.5
993.991	1978.5
994.212	2031.5
994.432	2004.5
994.653	2029.5
994.873	2008.5
995.093	1861.5
995.314	1909.5
995.534	1970.5
995.754	2028.5
995.975	1972.5
996.195	1917.5
996.415	1962.5
996.635	1936.5
996.855	1929.5
997.075	1913.5
997.295	1877.5
997.515	1898.5
997.735	1942.5
997.955	1883.5
998.174	1874.5
998.394	1863.5
998.614	1904.5
998.834	1841.5
999.053	1911.5
999.273	1848.5
999.492	1953.5
999.712	1869.5
999.931	1808.5
1000.151	1869.5
1000.37	1827.5
1000.589	1905.5
1000.809	1813.5
1001.028	1928.5
1001.247	1843.5
1001.466	1752.5
1001.685	1852.5
1001.904	1818.5
1002.123	1798.5
1002.342	1820.5
1002.561	1748.5
1002.78	1751.5
1002.999	1812.5
1003.218	1785.5
1003.436	1728.5
1003.655	1797.5
1003.874	1686.5
1004.092	1727.5
1004.311	1767.5
1004.53	1718.5
1004.748	1771.5
1004.966	1738.5
1005.185	1774.5
1005.403	1770.5
1005.622	1749.5
1005.84	1796.5
1006.058	1715.5
1006.276	1718.5
1006.494	2199.5
1006.712	1705.5
1006.931	1762.5
1007.149	1678.5
1007.367	1692.5
1007.584	1709.5
1007.802	1755.5
1008.02	1684.5
1008.238	1784.5
1008.456	1775.5
1008.673	1613.5
1008.891	1729.5
1009.109	1699.5
1009.326	1733.5
1009.544	1783.5
1009.761	1727.5
1009.979	1821.5
1010.196	1792.5
1010.413	1893.5
1010.631	1915.5
1010.848	1967.5
1011.065	1945.5
1011.282	1912.5
1011.5	1835.5
1011.717	1933.5
1011.934	1855.5
1012.151	1916.5
1012.368	1872.5
1012.585	1801.5
1012.801	1856.5
1013.018	1838.5
1013.235	1790.5
1013.452	1796.5
1013.669	1824.5
1013.885	1802.5
1014.102	1835.5
1014.318	1821.5
1014.535	1781.5
1014.751	1777.5
1014.968	1783.5
1015.184	1804.5
1015.401	1739.5
1015.617	1751.5
1015.833	1671.5
1016.049	1713.5
1016.266	1659.5
1016.482	1652.5
1016.698	1588.5
1016.914	1655.5
1017.13	1602.5
1017.346	1592.5
1017.562	1641.5
1017.778	1569.5
1017.993	1515.5
1018.209	1605.5
1018.425	1558.5
1018.641	1555.5
1018.856	1527.5
1019.072	1548.5
1019.288	1570.5
1019.503	1559.5
1019.719	1472.5
1019.934	1480.5
1020.149	1558.5
1020.365	1496.5
1020.58	1440.5
1020.795	1466.5
1021.011	1422.5
1021.226	1388.5
1021.441	1414.5
1021.656	1346.5
1021.871	1266.5
1022.086	1268.5
1022.301	1270.5
1022.516	1251.5
1022.731	1293.5
1022.946	1227.5
1023.16	1213.5
1023.375	1155.5
1023.59	1156.5
1023.804	1133.5
1024.019	1261.5
1024.234	1110.5
1024.448	1107.5
1024.663	1060.5
1024.877	1079.5
1025.092	1092.5
1025.306	1101.5
1025.52	1001.5
1025.734	1087.5
1025.949	1004.5
1026.163	984.5
1026.377	888.5
1026.591	985.5
1026.805	868.5
1027.019	874.5
1027.233	843.5
1027.447	792.5
1027.661	904.5
1027.875	863.5
1028.088	843.5
1028.302	752.5
1028.516	748.5
1028.73	767.5
1028.943	769.5
1029.157	675.5
1029.37	654.5
1029.584	-2.5
1029.797	-2.5
1030.011	-0.5
1030.224	-2.5
