Data from QEP037381__483__17-15-57-253.txt Node

Date: Fri Dec 16 17:15:57 EST 2022
User: dcclab
Spectrometer: QEP03738
Trigger mode: 4
Integration Time (sec): 1.000000E1
Scans to average: 1
Electric dark correction enabled: true
Nonlinearity correction enabled: false
Boxcar width: 0
XAxis mode: Wavelengths
Number of Pixels in Spectrum: 1044
>>>>>Begin Spectral Data<<<<<
784.041	11.12
784.3	1.12
784.558	-3.88
784.817	-2.88
785.075	107727.12
785.334	18521.12
785.592	8569.12
785.851	5953.12
786.109	4508.12
786.368	3490.12
786.626	2818.12
786.884	2338.12
787.143	1979.12
787.401	1647.12
787.659	1483.12
787.917	1267.12
788.175	1144.12
788.433	1026.12
788.691	915.12
788.949	842.12
789.207	794.12
789.465	711.12
789.723	681.12
789.98	604.12
790.238	640.12
790.496	615.12
790.753	576.12
791.011	627.12
791.268	567.12
791.526	546.12
791.783	560.12
792.041	551.12
792.298	452.12
792.556	509.12
792.813	518.12
793.07	485.12
793.327	447.12
793.584	542.12
793.841	469.12
794.099	480.12
794.356	544.12
794.613	443.12
794.869	483.12
795.126	446.12
795.383	433.12
795.64	463.12
795.897	417.12
796.153	476.12
796.41	437.12
796.667	435.12
796.923	423.12
797.18	447.12
797.436	474.12
797.693	429.12
797.949	487.12
798.206	515.12
798.462	435.12
798.718	483.12
798.974	467.12
799.231	509.12
799.487	500.12
799.743	514.12
799.999	520.12
800.255	533.12
800.511	531.12
800.767	578.12
801.023	572.12
801.279	613.12
801.534	639.12
801.79	714.12
802.046	728.12
802.302	902.12
802.557	1069.12
802.813	1281.12
803.068	1616.12
803.324	2228.12
803.579	3086.12
803.835	4296.12
804.09	6016.12
804.345	7954.12
804.601	10161.12
804.856	12479.12
805.111	14521.12
805.366	16043.12
805.621	17092.12
805.876	17773.12
806.131	18315.12
806.386	18596.12
806.641	18951.12
806.896	19145.12
807.151	19562.12
807.406	19849.12
807.661	20205.12
807.915	20405.12
808.17	20829.12
808.425	20951.12
808.679	21100.12
808.934	21429.12
809.188	21585.12
809.443	21819.12
809.697	21972.12
809.951	22141.12
810.206	22419.12
810.46	22602.12
810.714	22849.12
810.968	23005.12
811.223	23097.12
811.477	23328.12
811.731	23455.12
811.985	23586.12
812.239	23587.12
812.493	23712.12
812.747	23877.12
813	23923.12
813.254	24005.12
813.508	24060.12
813.762	24101.12
814.015	24280.12
814.269	24445.12
814.522	24687.12
814.776	24942.12
815.03	25171.12
815.283	25585.12
815.536	26002.12
815.79	26262.12
816.043	26624.12
816.296	27054.12
816.55	27313.12
816.803	27663.12
817.056	28005.12
817.309	28079.12
817.562	28409.12
817.815	28732.12
818.068	28848.12
818.321	29086.12
818.574	29369.12
818.827	29859.12
819.079	30155.12
819.332	30583.12
819.585	30982.12
819.838	31375.12
820.09	31518.12
820.343	31840.12
820.595	31995.12
820.848	32056.12
821.1	32081.12
821.353	32254.12
821.605	32256.12
821.857	32243.12
822.11	32172.12
822.362	32016.12
822.614	31838.12
822.866	31888.12
823.118	31845.12
823.37	31907.12
823.622	31914.12
823.874	32150.12
824.126	32133.12
824.378	32202.12
824.63	32290.12
824.882	32458.12
825.134	32362.12
825.385	32463.12
825.637	32306.12
825.888	32178.12
826.14	32022.12
826.392	31879.12
826.643	31791.12
826.895	31738.12
827.146	31552.12
827.397	31425.12
827.649	31492.12
827.9	31413.12
828.151	31548.12
828.402	31548.12
828.653	31597.12
828.905	31635.12
829.156	31754.12
829.407	31602.12
829.658	31686.12
829.909	31532.12
830.159	31456.12
830.41	31439.12
830.661	31029.12
830.912	31040.12
831.162	30874.12
831.413	30736.12
831.664	30893.12
831.914	30829.12
832.165	30679.12
832.415	30681.12
832.666	30699.12
832.916	30837.12
833.167	30526.12
833.417	30600.12
833.667	30493.12
833.917	30328.12
834.168	30303.12
834.418	30205.12
834.668	30068.12
834.918	29852.12
835.168	29853.12
835.418	29714.12
835.668	29720.12
835.918	29482.12
836.167	29581.12
836.417	29438.12
836.667	29419.12
836.917	29329.12
837.166	29169.12
837.416	29276.12
837.666	29207.12
837.915	28996.12
838.165	29082.12
838.414	28979.12
838.663	28803.12
838.913	28704.12
839.162	28525.12
839.411	28667.12
839.661	28436.12
839.91	28426.12
840.159	28245.12
840.408	28225.12
840.657	28266.12
840.906	28275.12
841.155	28317.12
841.404	28198.12
841.653	28139.12
841.902	28236.12
842.15	28366.12
842.399	28193.12
842.648	28074.12
842.897	27999.12
843.145	27801.12
843.394	27685.12
843.642	27575.12
843.891	27618.12
844.139	27300.12
844.388	27195.12
844.636	27026.12
844.884	26972.12
845.133	26907.12
845.381	26927.12
845.629	26827.12
845.877	26725.12
846.125	26617.12
846.373	26664.12
846.621	26266.12
846.869	26420.12
847.117	26239.12
847.365	26139.12
847.613	26070.12
847.861	25934.12
848.108	25897.12
848.356	25777.12
848.604	25758.12
848.851	25713.12
849.099	25796.12
849.346	25940.12
849.594	25971.12
849.841	25955.12
850.089	25815.12
850.336	25970.12
850.583	25954.12
850.831	25912.12
851.078	25761.12
851.325	25649.12
851.572	25568.12
851.819	25262.12
852.066	24849.12
852.313	24567.12
852.56	24476.12
852.807	24358.12
853.054	24153.12
853.301	24151.12
853.548	24113.12
853.794	24401.12
854.041	24415.12
854.288	24297.12
854.534	24549.12
854.781	24527.12
855.028	24413.12
855.274	24444.12
855.52	24242.12
855.767	24002.12
856.013	23974.12
856.26	24233.12
856.506	23771.12
856.752	23747.12
856.998	23629.12
857.244	23759.12
857.49	23890.12
857.736	23924.12
857.982	23919.12
858.228	23858.12
858.474	23682.12
858.72	23570.12
858.966	23282.12
859.212	23089.12
859.458	22856.12
859.703	22733.12
859.949	22314.12
860.195	22224.12
860.44	22105.12
860.686	21971.12
860.931	22028.12
861.177	21799.12
861.422	21841.12
861.667	21726.12
861.913	21698.12
862.158	21738.12
862.403	21795.12
862.648	21916.12
862.893	21844.12
863.138	21798.12
863.384	21698.12
863.629	21720.12
863.873	21699.12
864.118	21602.12
864.363	21559.12
864.608	21387.12
864.853	21333.12
865.098	21162.12
865.342	21101.12
865.587	21063.12
865.832	20992.12
866.076	20890.12
866.321	20853.12
866.565	20776.12
866.81	20560.12
867.054	20672.12
867.298	20522.12
867.543	20391.12
867.787	20336.12
868.031	20339.12
868.275	20243.12
868.519	20241.12
868.764	20189.12
869.008	20066.12
869.252	20026.12
869.496	19897.12
869.739	19862.12
869.983	19816.12
870.227	19778.12
870.471	19824.12
870.715	19825.12
870.958	19750.12
871.202	19807.12
871.446	19775.12
871.689	19737.12
871.933	19808.12
872.176	19732.12
872.42	19723.12
872.663	19558.12
872.906	19571.12
873.15	19485.12
873.393	19471.12
873.636	19332.12
873.879	19164.12
874.122	19074.12
874.366	18659.12
874.609	18619.12
874.852	18496.12
875.095	18323.12
875.337	18336.12
875.58	18138.12
875.823	18272.12
876.066	18165.12
876.309	18188.12
876.551	17999.12
876.794	17753.12
877.037	17806.12
877.279	17744.12
877.522	17827.12
877.764	17805.12
878.007	17783.12
878.249	17776.12
878.491	17673.12
878.734	17691.12
878.976	17635.12
879.218	17525.12
879.46	17510.12
879.702	17342.12
879.945	17162.12
880.187	17019.12
880.429	16984.12
880.671	16962.12
880.912	16854.12
881.154	16753.12
881.396	16592.12
881.638	16653.12
881.88	16634.12
882.121	16608.12
882.363	16545.12
882.605	16488.12
882.846	16413.12
883.088	16428.12
883.329	16354.12
883.571	16274.12
883.812	16327.12
884.053	16408.12
884.295	16512.12
884.536	16626.12
884.777	16449.12
885.018	16393.12
885.259	16408.12
885.5	16293.12
885.742	16461.12
885.982	16250.12
886.223	16156.12
886.464	16100.12
886.705	15995.12
886.946	15858.12
887.187	15636.12
887.428	15693.12
887.668	15495.12
887.909	15332.12
888.15	15258.12
888.39	15164.12
888.631	15050.12
888.871	14995.12
889.111	14838.12
889.352	14710.12
889.592	14566.12
889.833	14492.12
890.073	14418.12
890.313	14433.12
890.553	14179.12
890.793	14203.12
891.033	13955.12
891.273	14049.12
891.513	13962.12
891.753	13935.12
891.993	13904.12
892.233	13886.12
892.473	13930.12
892.713	13895.12
892.952	13894.12
893.192	13883.12
893.432	13744.12
893.671	13855.12
893.911	13767.12
894.15	13765.12
894.39	13545.12
894.629	13496.12
894.869	13385.12
895.108	13316.12
895.347	13297.12
895.587	13168.12
895.826	13216.12
896.065	12980.12
896.304	13106.12
896.543	13058.12
896.782	12930.12
897.021	12973.12
897.26	12942.12
897.499	12945.12
897.738	12895.12
897.977	12737.12
898.216	12613.12
898.454	12476.12
898.693	12368.12
898.932	12396.12
899.17	12280.12
899.409	12252.12
899.647	12174.12
899.886	12151.12
900.124	12186.12
900.363	12135.12
900.601	12172.12
900.839	12162.12
901.078	12093.12
901.316	12131.12
901.554	12183.12
901.792	12236.12
902.03	12124.12
902.268	12111.12
902.506	12214.12
902.744	12042.12
902.982	11969.12
903.22	11860.12
903.458	11703.12
903.695	11670.12
903.933	11501.12
904.171	11326.12
904.409	11219.12
904.646	11115.12
904.884	10848.12
905.121	10926.12
905.359	10694.12
905.596	10669.12
905.833	10495.12
906.071	10505.12
906.308	10491.12
906.545	10499.12
906.783	10382.12
907.02	10372.12
907.257	10373.12
907.494	10318.12
907.731	10270.12
907.968	10326.12
908.205	10195.12
908.442	10170.12
908.679	10075.12
908.915	9983.12
909.152	9995.12
909.389	9760.12
909.626	9706.12
909.862	9729.12
910.099	9668.12
910.335	9629.12
910.572	9503.12
910.808	9515.12
911.045	9477.12
911.281	9416.12
911.518	9484.12
911.754	9397.12
911.99	9376.12
912.226	9241.12
912.463	9142.12
912.699	9142.12
912.935	9052.12
913.171	9014.12
913.407	8841.12
913.643	8839.12
913.879	8768.12
914.114	8670.12
914.35	8595.12
914.586	8557.12
914.822	8363.12
915.057	8355.12
915.293	8320.12
915.529	8282.12
915.764	8374.12
916	8328.12
916.235	8185.12
916.471	8184.12
916.706	8086.12
916.941	8148.12
917.177	8056.12
917.412	8133.12
917.647	8191.12
917.882	8030.12
918.117	8121.12
918.352	8043.12
918.588	8052.12
918.823	7930.12
919.057	7861.12
919.292	7711.12
919.527	7762.12
919.762	7623.12
919.997	7631.12
920.232	7469.12
920.466	7474.12
920.701	7295.12
920.935	7286.12
921.17	7186.12
921.405	7192.12
921.639	7173.12
921.873	7146.12
922.108	7084.12
922.342	7133.12
922.576	7079.12
922.811	7023.12
923.045	7001.12
923.279	6962.12
923.513	6876.12
923.747	6957.12
923.981	6852.12
924.215	6756.12
924.449	6716.12
924.683	6706.12
924.917	6665.12
925.151	6599.12
925.385	6665.12
925.618	6646.12
925.852	6573.12
926.086	6460.12
926.319	6564.12
926.553	6543.12
926.786	6525.12
927.02	6502.12
927.253	6489.12
927.486	6545.12
927.72	6366.12
927.953	6450.12
928.186	6447.12
928.42	6412.12
928.653	6364.12
928.886	6330.12
929.119	6294.12
929.352	6276.12
929.585	6224.12
929.818	6147.12
930.051	6194.12
930.284	6153.12
930.516	5965.12
930.749	5914.12
930.982	6014.12
931.215	5946.12
931.447	5820.12
931.68	5858.12
931.912	5834.12
932.145	5823.12
932.377	5808.12
932.61	5917.12
932.842	5729.12
933.074	5853.12
933.307	5782.12
933.539	5862.12
933.771	5855.12
934.003	5759.12
934.236	5770.12
934.468	5880.12
934.7	5751.12
934.932	5755.12
935.164	5657.12
935.395	5646.12
935.627	5664.12
935.859	5672.12
936.091	5569.12
936.323	5618.12
936.554	5587.12
936.786	5565.12
937.017	5482.12
937.249	5506.12
937.481	5422.12
937.712	5475.12
937.943	5466.12
938.175	5417.12
938.406	5418.12
938.637	5475.12
938.869	5402.12
939.1	5354.12
939.331	5363.12
939.562	5368.12
939.793	5297.12
940.024	5310.12
940.255	5326.12
940.486	5254.12
940.717	5239.12
940.948	5175.12
941.179	5136.12
941.409	5141.12
941.64	5119.12
941.871	5139.12
942.102	5078.12
942.332	5109.12
942.563	5159.12
942.793	5164.12
943.024	5082.12
943.254	5112.12
943.484	5140.12
943.715	5112.12
943.945	5104.12
944.175	5056.12
944.405	5012.12
944.636	4974.12
944.866	5055.12
945.096	5066.12
945.326	4974.12
945.556	5017.12
945.786	4978.12
946.016	4913.12
946.245	4845.12
946.475	4864.12
946.705	4823.12
946.935	4882.12
947.164	4816.12
947.394	4743.12
947.624	4702.12
947.853	4748.12
948.083	4671.12
948.312	4651.12
948.542	4577.12
948.771	4580.12
949	4559.12
949.23	4580.12
949.459	4632.12
949.688	4669.12
949.917	4594.12
950.146	4604.12
950.375	4672.12
950.604	4502.12
950.833	4579.12
951.062	4597.12
951.291	4562.12
951.52	4468.12
951.749	4479.12
951.978	4445.12
952.206	4438.12
952.435	4420.12
952.664	4426.12
952.892	4423.12
953.121	4353.12
953.349	4382.12
953.578	4388.12
953.806	4289.12
954.035	4273.12
954.263	4286.12
954.491	4203.12
954.719	4255.12
954.948	4169.12
955.176	4217.12
955.404	4128.12
955.632	4197.12
955.86	4140.12
956.088	4069.12
956.316	4091.12
956.544	4128.12
956.772	4039.12
956.999	4039.12
957.227	4136.12
957.455	4003.12
957.683	3995.12
957.91	3912.12
958.138	3920.12
958.365	3883.12
958.593	3878.12
958.82	3836.12
959.048	3898.12
959.275	3831.12
959.502	3813.12
959.73	3814.12
959.957	3806.12
960.184	3822.12
960.411	3728.12
960.638	3817.12
960.865	3772.12
961.092	3811.12
961.319	3702.12
961.546	3811.12
961.773	3763.12
962	3770.12
962.227	3783.12
962.454	3760.12
962.68	3684.12
962.907	3707.12
963.134	3638.12
963.36	3694.12
963.587	3645.12
963.813	3596.12
964.04	3651.12
964.266	3543.12
964.493	3602.12
964.719	3538.12
964.945	3563.12
965.171	3435.12
965.398	3538.12
965.624	3505.12
965.85	3435.12
966.076	3420.12
966.302	3461.12
966.528	3394.12
966.754	3415.12
966.98	3418.12
967.206	3375.12
967.431	3283.12
967.657	3402.12
967.883	3350.12
968.109	3329.12
968.334	3268.12
968.56	3280.12
968.785	3340.12
969.011	3248.12
969.236	3296.12
969.462	3235.12
969.687	3241.12
969.912	3260.12
970.138	3283.12
970.363	3193.12
970.588	3196.12
970.813	3190.12
971.038	3156.12
971.263	3153.12
971.488	3122.12
971.713	3160.12
971.938	3155.12
972.163	3054.12
972.388	3075.12
972.613	3098.12
972.838	3071.12
973.062	3042.12
973.287	3033.12
973.512	2973.12
973.736	3027.12
973.961	2943.12
974.185	2934.12
974.41	2980.12
974.634	2865.12
974.858	2867.12
975.083	2941.12
975.307	2928.12
975.531	2832.12
975.755	2777.12
975.98	2791.12
976.204	2737.12
976.428	2722.12
976.652	2717.12
976.876	2709.12
977.1	2708.12
977.324	2722.12
977.547	2728.12
977.771	2710.12
977.995	2714.12
978.219	2646.12
978.442	2758.12
978.666	2658.12
978.89	2679.12
979.113	2675.12
979.337	2629.12
979.56	2630.12
979.783	2697.12
980.007	2563.12
980.23	2599.12
980.453	2564.12
980.677	2617.12
980.9	2572.12
981.123	2478.12
981.346	2599.12
981.569	2559.12
981.792	2586.12
982.015	2525.12
982.238	2478.12
982.461	2525.12
982.684	2441.12
982.907	2407.12
983.129	2428.12
983.352	2421.12
983.575	2448.12
983.797	2455.12
984.02	2391.12
984.242	2381.12
984.465	2379.12
984.687	2372.12
984.91	2396.12
985.132	2355.12
985.354	2362.12
985.577	2360.12
985.799	2347.12
986.021	2256.12
986.243	2274.12
986.465	2293.12
986.687	2308.12
986.909	2367.12
987.131	2310.12
987.353	2237.12
987.575	2280.12
987.797	2208.12
988.019	2198.12
988.241	2233.12
988.462	2167.12
988.684	2240.12
988.906	2228.12
989.127	2259.12
989.349	2176.12
989.57	2179.12
989.792	2213.12
990.013	2256.12
990.234	2205.12
990.456	2254.12
990.677	2212.12
990.898	2139.12
991.119	2156.12
991.341	2195.12
991.562	2089.12
991.783	2132.12
992.004	2063.12
992.225	2058.12
992.446	2081.12
992.667	2012.12
992.887	2119.12
993.108	1994.12
993.329	2094.12
993.55	2023.12
993.77	1984.12
993.991	1977.12
994.212	1982.12
994.432	1969.12
994.653	1990.12
994.873	1988.12
995.093	1864.12
995.314	1895.12
995.534	1956.12
995.754	1985.12
995.975	2026.12
996.195	1882.12
996.415	1963.12
996.635	1904.12
996.855	1940.12
997.075	1874.12
997.295	1904.12
997.515	1884.12
997.735	1918.12
997.955	1869.12
998.174	1876.12
998.394	1835.12
998.614	1886.12
998.834	1849.12
999.053	1900.12
999.273	1873.12
999.492	1940.12
999.712	1848.12
999.931	1837.12
1000.151	1874.12
1000.37	1848.12
1000.589	1890.12
1000.809	1818.12
1001.028	1921.12
1001.247	1843.12
1001.466	1738.12
1001.685	1892.12
1001.904	1799.12
1002.123	1797.12
1002.342	1763.12
1002.561	1748.12
1002.78	1768.12
1002.999	1843.12
1003.218	1766.12
1003.436	1736.12
1003.655	1797.12
1003.874	1749.12
1004.092	1738.12
1004.311	1771.12
1004.53	1731.12
1004.748	1767.12
1004.966	1729.12
1005.185	1775.12
1005.403	1758.12
1005.622	1737.12
1005.84	1798.12
1006.058	1686.12
1006.276	1731.12
1006.494	2186.12
1006.712	1670.12
1006.931	1763.12
1007.149	1651.12
1007.367	1665.12
1007.584	1698.12
1007.802	1721.12
1008.02	1693.12
1008.238	1778.12
1008.456	1762.12
1008.673	1617.12
1008.891	1728.12
1009.109	1669.12
1009.326	1719.12
1009.544	1805.12
1009.761	1745.12
1009.979	1795.12
1010.196	1794.12
1010.413	1857.12
1010.631	1879.12
1010.848	1931.12
1011.065	1928.12
1011.282	1816.12
1011.5	1819.12
1011.717	1921.12
1011.934	1817.12
1012.151	1876.12
1012.368	1848.12
1012.585	1797.12
1012.801	1860.12
1013.018	1792.12
1013.235	1785.12
1013.452	1780.12
1013.669	1777.12
1013.885	1780.12
1014.102	1821.12
1014.318	1756.12
1014.535	1717.12
1014.751	1783.12
1014.968	1750.12
1015.184	1787.12
1015.401	1683.12
1015.617	1706.12
1015.833	1669.12
1016.049	1691.12
1016.266	1651.12
1016.482	1623.12
1016.698	1572.12
1016.914	1604.12
1017.13	1579.12
1017.346	1572.12
1017.562	1630.12
1017.778	1547.12
1017.993	1529.12
1018.209	1579.12
1018.425	1573.12
1018.641	1528.12
1018.856	1505.12
1019.072	1538.12
1019.288	1562.12
1019.503	1490.12
1019.719	1431.12
1019.934	1429.12
1020.149	1524.12
1020.365	1470.12
1020.58	1396.12
1020.795	1450.12
1021.011	1394.12
1021.226	1397.12
1021.441	1382.12
1021.656	1294.12
1021.871	1283.12
1022.086	1284.12
1022.301	1259.12
1022.516	1225.12
1022.731	1298.12
1022.946	1206.12
1023.16	1225.12
1023.375	1163.12
1023.59	1155.12
1023.804	1124.12
1024.019	1207.12
1024.234	1081.12
1024.448	1148.12
1024.663	1039.12
1024.877	1065.12
1025.092	1072.12
1025.306	1103.12
1025.52	1005.12
1025.734	1059.12
1025.949	1006.12
1026.163	961.12
1026.377	918.12
1026.591	934.12
1026.805	878.12
1027.019	879.12
1027.233	847.12
1027.447	777.12
1027.661	888.12
1027.875	820.12
1028.088	831.12
1028.302	751.12
1028.516	755.12
1028.73	752.12
1028.943	726.12
1029.157	685.12
1029.37	645.12
1029.584	-2.88
1029.797	2.12
1030.011	-0.88
1030.224	-3.88
