Data from QEP037381__390__16-47-32-631.txt Node

Date: Fri Dec 16 16:47:32 EST 2022
User: dcclab
Spectrometer: QEP03738
Trigger mode: 4
Integration Time (sec): 1.000000E1
Scans to average: 1
Electric dark correction enabled: true
Nonlinearity correction enabled: false
Boxcar width: 0
XAxis mode: Wavelengths
Number of Pixels in Spectrum: 1044
>>>>>Begin Spectral Data<<<<<
784.041	9.25
784.3	2.25
784.558	-4.75
784.817	-6.75
785.075	86385.25
785.334	14621.25
785.592	6833.25
785.851	4769.25
786.109	3595.25
786.368	2865.25
786.626	2254.25
786.884	1912.25
787.143	1596.25
787.401	1346.25
787.659	1203.25
787.917	1046.25
788.175	1002.25
788.433	877.25
788.691	780.25
788.949	736.25
789.207	724.25
789.465	633.25
789.723	613.25
789.98	582.25
790.238	611.25
790.496	571.25
790.753	553.25
791.011	606.25
791.268	546.25
791.526	532.25
791.783	554.25
792.041	532.25
792.298	449.25
792.556	513.25
792.813	498.25
793.07	482.25
793.327	465.25
793.584	542.25
793.841	475.25
794.099	493.25
794.356	549.25
794.613	454.25
794.869	491.25
795.126	475.25
795.383	433.25
795.64	462.25
795.897	418.25
796.153	486.25
796.41	470.25
796.667	449.25
796.923	469.25
797.18	464.25
797.436	500.25
797.693	449.25
797.949	504.25
798.206	543.25
798.462	473.25
798.718	534.25
798.974	506.25
799.231	545.25
799.487	541.25
799.743	555.25
799.999	599.25
800.255	588.25
800.511	598.25
800.767	657.25
801.023	663.25
801.279	691.25
801.534	749.25
801.79	806.25
802.046	892.25
802.302	1091.25
802.557	1253.25
802.813	1606.25
803.068	2085.25
803.324	2898.25
803.579	4046.25
803.835	5735.25
804.09	7924.25
804.345	10525.25
804.601	13406.25
804.856	16367.25
805.111	18891.25
805.366	20917.25
805.621	22497.25
805.876	23557.25
806.131	24289.25
806.386	24807.25
806.641	25380.25
806.896	25892.25
807.151	26350.25
807.406	26833.25
807.661	27452.25
807.915	27944.25
808.17	28552.25
808.425	28812.25
808.679	29109.25
808.934	29504.25
809.188	29927.25
809.443	30258.25
809.697	30565.25
809.951	30820.25
810.206	31175.25
810.46	31478.25
810.714	31918.25
810.968	32249.25
811.223	32345.25
811.477	32721.25
811.731	33015.25
811.985	33271.25
812.239	33381.25
812.493	33698.25
812.747	33783.25
813	33985.25
813.254	34147.25
813.508	34278.25
813.762	34439.25
814.015	34657.25
814.269	34873.25
814.522	35256.25
814.776	35813.25
815.03	36355.25
815.283	36876.25
815.536	37458.25
815.79	38171.25
816.043	38791.25
816.296	39407.25
816.55	39807.25
816.803	40308.25
817.056	40933.25
817.309	41413.25
817.562	41841.25
817.815	42361.25
818.068	42689.25
818.321	43318.25
818.574	43795.25
818.827	44412.25
819.079	44943.25
819.332	45629.25
819.585	46206.25
819.838	46914.25
820.09	47338.25
820.343	47688.25
820.595	48201.25
820.848	48242.25
821.1	48630.25
821.353	48442.25
821.605	48587.25
821.857	48612.25
822.11	48398.25
822.362	48487.25
822.614	48243.25
822.866	48260.25
823.118	48107.25
823.37	48428.25
823.622	48472.25
823.874	48672.25
824.126	48924.25
824.378	48926.25
824.63	49202.25
824.882	49171.25
825.134	49285.25
825.385	49270.25
825.637	49137.25
825.888	49044.25
826.14	48962.25
826.392	48881.25
826.643	48485.25
826.895	48453.25
827.146	48245.25
827.397	48172.25
827.649	47983.25
827.9	48165.25
828.151	48211.25
828.402	48159.25
828.653	48498.25
828.905	48630.25
829.156	48540.25
829.407	48648.25
829.658	48596.25
829.909	48552.25
830.159	48409.25
830.41	48000.25
830.661	47913.25
830.912	47730.25
831.162	47536.25
831.413	47383.25
831.664	47344.25
831.914	47295.25
832.165	47321.25
832.415	47420.25
832.666	47216.25
832.916	47459.25
833.167	47114.25
833.417	47173.25
833.667	47302.25
833.917	46895.25
834.168	46764.25
834.418	46823.25
834.668	46473.25
834.918	46182.25
835.168	46256.25
835.418	46008.25
835.668	45841.25
835.918	45806.25
836.167	45636.25
836.417	45642.25
836.667	45589.25
836.917	45423.25
837.166	45311.25
837.416	45418.25
837.666	45248.25
837.915	45082.25
838.165	45080.25
838.414	44991.25
838.663	44642.25
838.913	44658.25
839.162	44365.25
839.411	44538.25
839.661	44319.25
839.91	44256.25
840.159	44031.25
840.408	44028.25
840.657	43983.25
840.906	44148.25
841.155	44072.25
841.404	43936.25
841.653	43994.25
841.902	44108.25
842.15	44006.25
842.399	44171.25
842.648	44021.25
842.897	43802.25
843.145	43705.25
843.394	43293.25
843.642	43160.25
843.891	42837.25
844.139	42818.25
844.388	42544.25
844.636	42359.25
844.884	42260.25
845.133	42240.25
845.381	42119.25
845.629	42217.25
845.877	42103.25
846.125	41991.25
846.373	41921.25
846.621	41860.25
846.869	41665.25
847.117	41538.25
847.365	41155.25
847.613	41000.25
847.861	40947.25
848.108	40814.25
848.356	40657.25
848.604	40573.25
848.851	40517.25
849.099	40652.25
849.346	40827.25
849.594	40887.25
849.841	41066.25
850.089	41262.25
850.336	41242.25
850.583	41036.25
850.831	40933.25
851.078	40587.25
851.325	40504.25
851.572	40423.25
851.819	40039.25
852.066	39346.25
852.313	38893.25
852.56	38699.25
852.807	38652.25
853.054	38322.25
853.301	38229.25
853.548	38273.25
853.794	38479.25
854.041	38630.25
854.288	38747.25
854.534	38965.25
854.781	39033.25
855.028	38706.25
855.274	38494.25
855.52	38426.25
855.767	38061.25
856.013	38023.25
856.26	38132.25
856.506	37768.25
856.752	37744.25
856.998	37595.25
857.244	37645.25
857.49	37942.25
857.736	38000.25
857.982	37914.25
858.228	37888.25
858.474	37728.25
858.72	37580.25
858.966	37129.25
859.212	36764.25
859.458	36472.25
859.703	36047.25
859.949	35674.25
860.195	35519.25
860.44	35223.25
860.686	35041.25
860.931	34982.25
861.177	34844.25
861.422	34749.25
861.667	34752.25
861.913	34803.25
862.158	34934.25
862.403	34963.25
862.648	35101.25
862.893	35074.25
863.138	35049.25
863.384	34948.25
863.629	34924.25
863.873	34665.25
864.118	34606.25
864.363	34550.25
864.608	34440.25
864.853	34256.25
865.098	34158.25
865.342	33946.25
865.587	33868.25
865.832	33875.25
866.076	33754.25
866.321	33558.25
866.565	33384.25
866.81	33203.25
867.054	33194.25
867.298	33153.25
867.543	32843.25
867.787	32880.25
868.031	32893.25
868.275	32705.25
868.519	32622.25
868.764	32516.25
869.008	32480.25
869.252	32400.25
869.496	32280.25
869.739	32251.25
869.983	32090.25
870.227	31991.25
870.471	31976.25
870.715	31938.25
870.958	32118.25
871.202	32054.25
871.446	32267.25
871.689	32226.25
871.933	32112.25
872.176	32104.25
872.42	32011.25
872.663	31899.25
872.906	31681.25
873.15	31429.25
873.393	31172.25
873.636	31099.25
873.879	30885.25
874.122	30626.25
874.366	30300.25
874.609	30127.25
874.852	29868.25
875.095	29937.25
875.337	29808.25
875.58	29567.25
875.823	29498.25
876.066	29408.25
876.309	29413.25
876.551	29200.25
876.794	29042.25
877.037	28965.25
877.279	28921.25
877.522	29063.25
877.764	29082.25
878.007	28818.25
878.249	29017.25
878.491	28912.25
878.734	28796.25
878.976	28796.25
879.218	28714.25
879.46	28478.25
879.702	28261.25
879.945	28041.25
880.187	27815.25
880.429	27703.25
880.671	27493.25
880.912	27511.25
881.154	27492.25
881.396	27296.25
881.638	27297.25
881.88	27304.25
882.121	27153.25
882.363	27063.25
882.605	26944.25
882.846	26978.25
883.088	26814.25
883.329	26578.25
883.571	26430.25
883.812	26477.25
884.053	26506.25
884.295	26587.25
884.536	26697.25
884.777	26454.25
885.018	26588.25
885.259	26521.25
885.5	26442.25
885.742	26657.25
885.982	26395.25
886.223	26224.25
886.464	26152.25
886.705	26164.25
886.946	25889.25
887.187	25699.25
887.428	25545.25
887.668	25326.25
887.909	25043.25
888.15	24947.25
888.39	24886.25
888.631	24728.25
888.871	24565.25
889.111	24400.25
889.352	24265.25
889.592	23885.25
889.833	23827.25
890.073	23785.25
890.313	23590.25
890.553	23293.25
890.793	23300.25
891.033	23212.25
891.273	22982.25
891.513	23002.25
891.753	23011.25
891.993	22943.25
892.233	22947.25
892.473	23031.25
892.713	23014.25
892.952	23016.25
893.192	22972.25
893.432	22891.25
893.671	22867.25
893.911	22835.25
894.15	22746.25
894.39	22390.25
894.629	22365.25
894.869	22236.25
895.108	22099.25
895.347	21919.25
895.587	21945.25
895.826	21898.25
896.065	21735.25
896.304	21759.25
896.543	21762.25
896.782	21453.25
897.021	21512.25
897.26	21463.25
897.499	21410.25
897.738	21342.25
897.977	21061.25
898.216	20940.25
898.454	20854.25
898.693	20740.25
898.932	20548.25
899.17	20476.25
899.409	20355.25
899.647	20292.25
899.886	20264.25
900.124	20296.25
900.363	20130.25
900.601	20186.25
900.839	20273.25
901.078	20236.25
901.316	20229.25
901.554	20280.25
901.792	20216.25
902.03	20232.25
902.268	20108.25
902.506	20122.25
902.744	20023.25
902.982	19866.25
903.22	19642.25
903.458	19488.25
903.695	19304.25
903.933	19123.25
904.171	18869.25
904.409	18621.25
904.646	18395.25
904.884	18228.25
905.121	18035.25
905.359	17873.25
905.596	17753.25
905.833	17476.25
906.071	17468.25
906.308	17460.25
906.545	17314.25
906.783	17324.25
907.02	17293.25
907.257	17236.25
907.494	17224.25
907.731	17146.25
907.968	17138.25
908.205	16903.25
908.442	16903.25
908.679	16705.25
908.915	16635.25
909.152	16504.25
909.389	16328.25
909.626	16288.25
909.862	16163.25
910.099	16182.25
910.335	16013.25
910.572	15967.25
910.808	15911.25
911.045	15816.25
911.281	15834.25
911.518	15783.25
911.754	15657.25
911.99	15554.25
912.226	15420.25
912.463	15306.25
912.699	15234.25
912.935	15097.25
913.171	14943.25
913.407	14832.25
913.643	14826.25
913.879	14692.25
914.114	14473.25
914.35	14237.25
914.586	14238.25
914.822	14160.25
915.057	14036.25
915.293	13809.25
915.529	13748.25
915.764	13814.25
916	13798.25
916.235	13803.25
916.471	13679.25
916.706	13632.25
916.941	13587.25
917.177	13578.25
917.412	13688.25
917.647	13578.25
917.882	13488.25
918.117	13604.25
918.352	13469.25
918.588	13447.25
918.823	13260.25
919.057	13205.25
919.292	13047.25
919.527	12969.25
919.762	12818.25
919.997	12699.25
920.232	12489.25
920.466	12334.25
920.701	12140.25
920.935	12319.25
921.17	12094.25
921.405	12092.25
921.639	12033.25
921.873	12027.25
922.108	11979.25
922.342	11934.25
922.576	11860.25
922.811	11796.25
923.045	11814.25
923.279	11792.25
923.513	11588.25
923.747	11490.25
923.981	11475.25
924.215	11352.25
924.449	11372.25
924.683	11233.25
924.917	11113.25
925.151	11108.25
925.385	11151.25
925.618	11075.25
925.852	11014.25
926.086	10923.25
926.319	10991.25
926.553	10974.25
926.786	10986.25
927.02	10835.25
927.253	10902.25
927.486	10934.25
927.72	10863.25
927.953	10826.25
928.186	10762.25
928.42	10726.25
928.653	10663.25
928.886	10610.25
929.119	10614.25
929.352	10534.25
929.585	10343.25
929.818	10304.25
930.051	10233.25
930.284	10245.25
930.516	10039.25
930.749	10037.25
930.982	10062.25
931.215	9875.25
931.447	9842.25
931.68	9842.25
931.912	9861.25
932.145	9834.25
932.377	9810.25
932.61	9922.25
932.842	9711.25
933.074	9802.25
933.307	9690.25
933.539	9837.25
933.771	9822.25
934.003	9750.25
934.236	9767.25
934.468	9798.25
934.7	9603.25
934.932	9659.25
935.164	9522.25
935.395	9593.25
935.627	9537.25
935.859	9476.25
936.091	9441.25
936.323	9483.25
936.554	9389.25
936.786	9330.25
937.017	9201.25
937.249	9262.25
937.481	9184.25
937.712	9222.25
937.943	9227.25
938.175	9129.25
938.406	9205.25
938.637	9214.25
938.869	9043.25
939.1	9076.25
939.331	9093.25
939.562	9003.25
939.793	8917.25
940.024	8948.25
940.255	8973.25
940.486	8839.25
940.717	8846.25
940.948	8751.25
941.179	8703.25
941.409	8684.25
941.64	8712.25
941.871	8664.25
942.102	8668.25
942.332	8628.25
942.563	8700.25
942.793	8715.25
943.024	8668.25
943.254	8676.25
943.484	8633.25
943.715	8628.25
943.945	8610.25
944.175	8551.25
944.405	8500.25
944.636	8553.25
944.866	8550.25
945.096	8525.25
945.326	8457.25
945.556	8487.25
945.786	8513.25
946.016	8337.25
946.245	8205.25
946.475	8250.25
946.705	8217.25
946.935	8149.25
947.164	8060.25
947.394	7942.25
947.624	7936.25
947.853	7960.25
948.083	7942.25
948.312	7884.25
948.542	7797.25
948.771	7777.25
949	7782.25
949.23	7710.25
949.459	7814.25
949.688	7771.25
949.917	7745.25
950.146	7741.25
950.375	7760.25
950.604	7726.25
950.833	7743.25
951.062	7743.25
951.291	7656.25
951.52	7628.25
951.749	7668.25
951.978	7614.25
952.206	7477.25
952.435	7585.25
952.664	7533.25
952.892	7533.25
953.121	7489.25
953.349	7483.25
953.578	7461.25
953.806	7377.25
954.035	7293.25
954.263	7313.25
954.491	7257.25
954.719	7220.25
954.948	7077.25
955.176	7134.25
955.404	7045.25
955.632	7082.25
955.86	7123.25
956.088	7006.25
956.316	6965.25
956.544	6998.25
956.772	6884.25
956.999	6851.25
957.227	6866.25
957.455	6747.25
957.683	6752.25
957.91	6702.25
958.138	6652.25
958.365	6590.25
958.593	6588.25
958.82	6515.25
959.048	6523.25
959.275	6558.25
959.502	6528.25
959.73	6487.25
959.957	6518.25
960.184	6514.25
960.411	6398.25
960.638	6494.25
960.865	6379.25
961.092	6428.25
961.319	6350.25
961.546	6378.25
961.773	6416.25
962	6377.25
962.227	6376.25
962.454	6355.25
962.68	6284.25
962.907	6273.25
963.134	6214.25
963.36	6150.25
963.587	6180.25
963.813	6114.25
964.04	6010.25
964.266	5961.25
964.493	6039.25
964.719	5993.25
964.945	5924.25
965.171	5795.25
965.398	5895.25
965.624	5860.25
965.85	5764.25
966.076	5735.25
966.302	5810.25
966.528	5777.25
966.754	5739.25
966.98	5661.25
967.206	5703.25
967.431	5615.25
967.657	5696.25
967.883	5601.25
968.109	5611.25
968.334	5544.25
968.56	5498.25
968.785	5501.25
969.011	5483.25
969.236	5465.25
969.462	5411.25
969.687	5409.25
969.912	5504.25
970.138	5455.25
970.363	5393.25
970.588	5388.25
970.813	5307.25
971.038	5347.25
971.263	5258.25
971.488	5258.25
971.713	5305.25
971.938	5287.25
972.163	5168.25
972.388	5170.25
972.613	5148.25
972.838	5186.25
973.062	5080.25
973.287	5042.25
973.512	5002.25
973.736	5047.25
973.961	4991.25
974.185	4941.25
974.41	4975.25
974.634	4794.25
974.858	4806.25
975.083	4844.25
975.307	4893.25
975.531	4732.25
975.755	4670.25
975.98	4701.25
976.204	4620.25
976.428	4583.25
976.652	4588.25
976.876	4554.25
977.1	4601.25
977.324	4506.25
977.547	4549.25
977.771	4557.25
977.995	4528.25
978.219	4426.25
978.442	4534.25
978.666	4490.25
978.89	4441.25
979.113	4430.25
979.337	4396.25
979.56	4406.25
979.783	4469.25
980.007	4294.25
980.23	4319.25
980.453	4272.25
980.677	4317.25
980.9	4291.25
981.123	4172.25
981.346	4267.25
981.569	4245.25
981.792	4211.25
982.015	4133.25
982.238	4079.25
982.461	4123.25
982.684	4090.25
982.907	4034.25
983.129	4027.25
983.352	4008.25
983.575	4003.25
983.797	3986.25
984.02	3935.25
984.242	3923.25
984.465	3921.25
984.687	3918.25
984.91	3877.25
985.132	3842.25
985.354	3873.25
985.577	3791.25
985.799	3800.25
986.021	3739.25
986.243	3692.25
986.465	3703.25
986.687	3805.25
986.909	3766.25
987.131	3736.25
987.353	3649.25
987.575	3704.25
987.797	3631.25
988.019	3571.25
988.241	3636.25
988.462	3562.25
988.684	3642.25
988.906	3630.25
989.127	3662.25
989.349	3532.25
989.57	3518.25
989.792	3576.25
990.013	3579.25
990.234	3522.25
990.456	3590.25
990.677	3526.25
990.898	3433.25
991.119	3434.25
991.341	3455.25
991.562	3378.25
991.783	3405.25
992.004	3305.25
992.225	3335.25
992.446	3323.25
992.667	3216.25
992.887	3324.25
993.108	3195.25
993.329	3306.25
993.55	3236.25
993.77	3163.25
993.991	3183.25
994.212	3141.25
994.432	3097.25
994.653	3158.25
994.873	3160.25
995.093	3006.25
995.314	3015.25
995.534	3074.25
995.754	3081.25
995.975	3085.25
996.195	2957.25
996.415	3010.25
996.635	2987.25
996.855	3017.25
997.075	2946.25
997.295	2950.25
997.515	2963.25
997.735	2985.25
997.955	2903.25
998.174	2881.25
998.394	2886.25
998.614	2896.25
998.834	2862.25
999.053	2909.25
999.273	2888.25
999.492	2933.25
999.712	2875.25
999.931	2852.25
1000.151	2838.25
1000.37	2817.25
1000.589	2865.25
1000.809	2742.25
1001.028	2866.25
1001.247	2787.25
1001.466	2691.25
1001.685	2799.25
1001.904	2752.25
1002.123	2708.25
1002.342	2687.25
1002.561	2633.25
1002.78	2639.25
1002.999	2693.25
1003.218	2643.25
1003.436	2623.25
1003.655	2654.25
1003.874	2562.25
1004.092	2576.25
1004.311	2583.25
1004.53	2587.25
1004.748	2615.25
1004.966	2537.25
1005.185	2573.25
1005.403	2552.25
1005.622	2584.25
1005.84	2587.25
1006.058	2489.25
1006.276	2514.25
1006.494	2972.25
1006.712	2469.25
1006.931	2558.25
1007.149	2455.25
1007.367	2438.25
1007.584	2452.25
1007.802	2466.25
1008.02	2404.25
1008.238	2499.25
1008.456	2505.25
1008.673	2357.25
1008.891	2466.25
1009.109	2451.25
1009.326	2405.25
1009.544	2487.25
1009.761	2370.25
1009.979	2448.25
1010.196	2454.25
1010.413	2487.25
1010.631	2509.25
1010.848	2551.25
1011.065	2572.25
1011.282	2492.25
1011.5	2431.25
1011.717	2545.25
1011.934	2466.25
1012.151	2479.25
1012.368	2492.25
1012.585	2376.25
1012.801	2434.25
1013.018	2442.25
1013.235	2404.25
1013.452	2400.25
1013.669	2409.25
1013.885	2375.25
1014.102	2414.25
1014.318	2391.25
1014.535	2323.25
1014.751	2363.25
1014.968	2349.25
1015.184	2332.25
1015.401	2251.25
1015.617	2313.25
1015.833	2232.25
1016.049	2257.25
1016.266	2213.25
1016.482	2212.25
1016.698	2128.25
1016.914	2191.25
1017.13	2149.25
1017.346	2152.25
1017.562	2201.25
1017.778	2125.25
1017.993	2099.25
1018.209	2164.25
1018.425	2125.25
1018.641	2101.25
1018.856	2080.25
1019.072	2085.25
1019.288	2130.25
1019.503	2076.25
1019.719	2042.25
1019.934	2014.25
1020.149	2077.25
1020.365	2024.25
1020.58	1984.25
1020.795	2024.25
1021.011	1941.25
1021.226	1944.25
1021.441	1929.25
1021.656	1868.25
1021.871	1773.25
1022.086	1781.25
1022.301	1756.25
1022.516	1785.25
1022.731	1798.25
1022.946	1692.25
1023.16	1667.25
1023.375	1646.25
1023.59	1629.25
1023.804	1602.25
1024.019	1707.25
1024.234	1547.25
1024.448	1569.25
1024.663	1486.25
1024.877	1518.25
1025.092	1512.25
1025.306	1505.25
1025.52	1404.25
1025.734	1472.25
1025.949	1403.25
1026.163	1361.25
1026.377	1291.25
1026.591	1326.25
1026.805	1234.25
1027.019	1264.25
1027.233	1197.25
1027.447	1145.25
1027.661	1223.25
1027.875	1180.25
1028.088	1169.25
1028.302	1093.25
1028.516	1072.25
1028.73	1037.25
1028.943	1016.25
1029.157	953.25
1029.37	913.25
1029.584	1.25
1029.797	-1.75
1030.011	0.25
1030.224	0.25
