Data from QEP037381__405__16-50-02-632.txt Node

Date: Fri Dec 16 16:50:02 EST 2022
User: dcclab
Spectrometer: QEP03738
Trigger mode: 4
Integration Time (sec): 1.000000E1
Scans to average: 1
Electric dark correction enabled: true
Nonlinearity correction enabled: false
Boxcar width: 0
XAxis mode: Wavelengths
Number of Pixels in Spectrum: 1044
>>>>>Begin Spectral Data<<<<<
784.041	15.12
784.3	0.12
784.558	-0.88
784.817	-3.88
785.075	85182.12
785.334	14828.12
785.592	7056.12
785.851	4860.12
786.109	3676.12
786.368	2841.12
786.626	2276.12
786.884	1941.12
787.143	1626.12
787.401	1340.12
787.659	1232.12
787.917	1083.12
788.175	1002.12
788.433	874.12
788.691	800.12
788.949	748.12
789.207	743.12
789.465	642.12
789.723	621.12
789.98	566.12
790.238	607.12
790.496	572.12
790.753	571.12
791.011	609.12
791.268	534.12
791.526	547.12
791.783	557.12
792.041	534.12
792.298	462.12
792.556	525.12
792.813	497.12
793.07	470.12
793.327	468.12
793.584	556.12
793.841	458.12
794.099	478.12
794.356	551.12
794.613	467.12
794.869	499.12
795.126	460.12
795.383	454.12
795.64	477.12
795.897	427.12
796.153	469.12
796.41	474.12
796.667	453.12
796.923	476.12
797.18	466.12
797.436	499.12
797.693	481.12
797.949	519.12
798.206	543.12
798.462	468.12
798.718	521.12
798.974	515.12
799.231	546.12
799.487	550.12
799.743	577.12
799.999	600.12
800.255	595.12
800.511	597.12
800.767	663.12
801.023	650.12
801.279	704.12
801.534	758.12
801.79	837.12
802.046	909.12
802.302	1091.12
802.557	1314.12
802.813	1662.12
803.068	2125.12
803.324	2995.12
803.579	4152.12
803.835	5869.12
804.09	8116.12
804.345	10796.12
804.601	13742.12
804.856	16796.12
805.111	19392.12
805.366	21561.12
805.621	23063.12
805.876	24197.12
806.131	24913.12
806.386	25494.12
806.641	25961.12
806.896	26516.12
807.151	27025.12
807.406	27516.12
807.661	27985.12
807.915	28621.12
808.17	29193.12
808.425	29497.12
808.679	29756.12
808.934	30262.12
809.188	30701.12
809.443	31067.12
809.697	31455.12
809.951	31613.12
810.206	31957.12
810.46	32337.12
810.714	32657.12
810.968	32893.12
811.223	33431.12
811.477	33532.12
811.731	33875.12
811.985	34041.12
812.239	34437.12
812.493	34678.12
812.747	34711.12
813	34885.12
813.254	35046.12
813.508	35270.12
813.762	35406.12
814.015	35650.12
814.269	36118.12
814.522	36361.12
814.776	36746.12
815.03	37368.12
815.283	37872.12
815.536	38556.12
815.79	39258.12
816.043	39862.12
816.296	40371.12
816.55	40956.12
816.803	41470.12
817.056	42101.12
817.309	42661.12
817.562	42988.12
817.815	43423.12
818.068	44040.12
818.321	44501.12
818.574	45073.12
818.827	45702.12
819.079	46293.12
819.332	46972.12
819.585	47780.12
819.838	48276.12
820.09	48680.12
820.343	49168.12
820.595	49452.12
820.848	49726.12
821.1	49965.12
821.353	50219.12
821.605	50104.12
821.857	50081.12
822.11	49741.12
822.362	49805.12
822.614	49776.12
822.866	49794.12
823.118	49713.12
823.37	49927.12
823.622	50011.12
823.874	50091.12
824.126	50299.12
824.378	50373.12
824.63	50728.12
824.882	50842.12
825.134	50794.12
825.385	50657.12
825.637	50590.12
825.888	50503.12
826.14	50347.12
826.392	50236.12
826.643	50111.12
826.895	49981.12
827.146	49693.12
827.397	49601.12
827.649	49632.12
827.9	49793.12
828.151	49694.12
828.402	49843.12
828.653	50009.12
828.905	50009.12
829.156	50114.12
829.407	50143.12
829.658	50174.12
829.909	50000.12
830.159	49872.12
830.41	49727.12
830.661	49363.12
830.912	49032.12
831.162	48874.12
831.413	48908.12
831.664	49067.12
831.914	48910.12
832.165	48726.12
832.415	48647.12
832.666	48737.12
832.916	48806.12
833.167	48753.12
833.417	48731.12
833.667	48651.12
833.917	48484.12
834.168	48316.12
834.418	48255.12
834.668	48027.12
834.918	47702.12
835.168	47777.12
835.418	47425.12
835.668	47259.12
835.918	47281.12
836.167	47248.12
836.417	46936.12
836.667	46857.12
836.917	46765.12
837.166	46761.12
837.416	46674.12
837.666	46776.12
837.915	46681.12
838.165	46624.12
838.414	46400.12
838.663	46276.12
838.913	46220.12
839.162	46170.12
839.411	46037.12
839.661	45831.12
839.91	45655.12
840.159	45810.12
840.408	45424.12
840.657	45408.12
840.906	45565.12
841.155	45634.12
841.404	45502.12
841.653	45497.12
841.902	45699.12
842.15	45551.12
842.399	45574.12
842.648	45480.12
842.897	45445.12
843.145	44974.12
843.394	44952.12
843.642	44720.12
843.891	44481.12
844.139	44345.12
844.388	43948.12
844.636	43869.12
844.884	43752.12
845.133	43671.12
845.381	43601.12
845.629	43555.12
845.877	43550.12
846.125	43419.12
846.373	43409.12
846.621	43428.12
846.869	43184.12
847.117	42819.12
847.365	42685.12
847.613	42581.12
847.861	42287.12
848.108	42157.12
848.356	42112.12
848.604	41928.12
848.851	42023.12
849.099	41976.12
849.346	42086.12
849.594	42239.12
849.841	42527.12
850.089	42571.12
850.336	42645.12
850.583	42527.12
850.831	42219.12
851.078	42030.12
851.325	41915.12
851.572	41816.12
851.819	41657.12
852.066	40768.12
852.313	40356.12
852.56	40077.12
852.807	39895.12
853.054	39611.12
853.301	39405.12
853.548	39668.12
853.794	39866.12
854.041	39914.12
854.288	40053.12
854.534	40274.12
854.781	40239.12
855.028	40001.12
855.274	39944.12
855.52	39797.12
855.767	39432.12
856.013	39423.12
856.26	39564.12
856.506	38942.12
856.752	39010.12
856.998	38999.12
857.244	39033.12
857.49	39315.12
857.736	39310.12
857.982	39213.12
858.228	39274.12
858.474	38943.12
858.72	38640.12
858.966	38468.12
859.212	37932.12
859.458	37556.12
859.703	37260.12
859.949	36824.12
860.195	36646.12
860.44	36586.12
860.686	36320.12
860.931	36140.12
861.177	35966.12
861.422	35881.12
861.667	35895.12
861.913	35889.12
862.158	35873.12
862.403	36056.12
862.648	36101.12
862.893	36280.12
863.138	36194.12
863.384	35986.12
863.629	36069.12
863.873	35918.12
864.118	35763.12
864.363	35645.12
864.608	35363.12
864.853	35238.12
865.098	35226.12
865.342	34921.12
865.587	34924.12
865.832	34783.12
866.076	34760.12
866.321	34593.12
866.565	34530.12
866.81	34161.12
867.054	34218.12
867.298	33966.12
867.543	33925.12
867.787	33893.12
868.031	33874.12
868.275	33831.12
868.519	33576.12
868.764	33554.12
869.008	33471.12
869.252	33263.12
869.496	33266.12
869.739	33151.12
869.983	33046.12
870.227	32978.12
870.471	33000.12
870.715	33040.12
870.958	33078.12
871.202	33045.12
871.446	33190.12
871.689	33168.12
871.933	32951.12
872.176	33128.12
872.42	32953.12
872.663	32784.12
872.906	32684.12
873.15	32626.12
873.393	32205.12
873.636	31985.12
873.879	31805.12
874.122	31419.12
874.366	31214.12
874.609	30897.12
874.852	30786.12
875.095	30828.12
875.337	30703.12
875.58	30575.12
875.823	30315.12
876.066	30407.12
876.309	30267.12
876.551	29904.12
876.794	29841.12
877.037	29876.12
877.279	29934.12
877.522	29827.12
877.764	29866.12
878.007	29697.12
878.249	29731.12
878.491	29744.12
878.734	29696.12
878.976	29626.12
879.218	29444.12
879.46	29284.12
879.702	29109.12
879.945	28770.12
880.187	28583.12
880.429	28396.12
880.671	28305.12
880.912	28192.12
881.154	28162.12
881.396	28047.12
881.638	28090.12
881.88	27935.12
882.121	27871.12
882.363	27899.12
882.605	27716.12
882.846	27517.12
883.088	27518.12
883.329	27457.12
883.571	27334.12
883.812	27207.12
884.053	27189.12
884.295	27527.12
884.536	27578.12
884.777	27394.12
885.018	27335.12
885.259	27379.12
885.5	27173.12
885.742	27413.12
885.982	27252.12
886.223	27033.12
886.464	26901.12
886.705	26838.12
886.946	26618.12
887.187	26266.12
887.428	26282.12
887.668	25990.12
887.909	25776.12
888.15	25405.12
888.39	25356.12
888.631	25206.12
888.871	25018.12
889.111	24923.12
889.352	24757.12
889.592	24448.12
889.833	24407.12
890.073	24212.12
890.313	24115.12
890.553	23825.12
890.793	23731.12
891.033	23576.12
891.273	23543.12
891.513	23486.12
891.753	23406.12
891.993	23413.12
892.233	23448.12
892.473	23549.12
892.713	23464.12
892.952	23418.12
893.192	23463.12
893.432	23424.12
893.671	23406.12
893.911	23309.12
894.15	23151.12
894.39	22947.12
894.629	22724.12
894.869	22662.12
895.108	22525.12
895.347	22441.12
895.587	22325.12
895.826	22255.12
896.065	22108.12
896.304	22208.12
896.543	22174.12
896.782	21972.12
897.021	21888.12
897.26	21940.12
897.499	21858.12
897.738	21711.12
897.977	21590.12
898.216	21400.12
898.454	21153.12
898.693	21021.12
898.932	21060.12
899.17	20895.12
899.409	20743.12
899.647	20734.12
899.886	20639.12
900.124	20677.12
900.363	20674.12
900.601	20628.12
900.839	20669.12
901.078	20659.12
901.316	20716.12
901.554	20647.12
901.792	20738.12
902.03	20666.12
902.268	20638.12
902.506	20587.12
902.744	20528.12
902.982	20348.12
903.22	20079.12
903.458	19871.12
903.695	19795.12
903.933	19556.12
904.171	19207.12
904.409	18988.12
904.646	18776.12
904.884	18484.12
905.121	18320.12
905.359	18212.12
905.596	18078.12
905.833	17856.12
906.071	17822.12
906.308	17774.12
906.545	17742.12
906.783	17478.12
907.02	17523.12
907.257	17376.12
907.494	17474.12
907.731	17347.12
907.968	17249.12
908.205	17143.12
908.442	17067.12
908.679	17041.12
908.915	16841.12
909.152	16769.12
909.389	16560.12
909.626	16513.12
909.862	16339.12
910.099	16344.12
910.335	16291.12
910.572	16216.12
910.808	16052.12
911.045	16000.12
911.281	16004.12
911.518	15968.12
911.754	15873.12
911.99	15768.12
912.226	15567.12
912.463	15447.12
912.699	15341.12
912.935	15254.12
913.171	15156.12
913.407	15050.12
913.643	14900.12
913.879	14811.12
914.114	14610.12
914.35	14611.12
914.586	14346.12
914.822	14269.12
915.057	14190.12
915.293	13978.12
915.529	13919.12
915.764	13941.12
916	13889.12
916.235	13923.12
916.471	13883.12
916.706	13745.12
916.941	13757.12
917.177	13741.12
917.412	13747.12
917.647	13692.12
917.882	13685.12
918.117	13606.12
918.352	13561.12
918.588	13581.12
918.823	13344.12
919.057	13246.12
919.292	13039.12
919.527	13082.12
919.762	12889.12
919.997	12747.12
920.232	12585.12
920.466	12522.12
920.701	12382.12
920.935	12272.12
921.17	12217.12
921.405	12153.12
921.639	12121.12
921.873	12078.12
922.108	12007.12
922.342	11990.12
922.576	11865.12
922.811	11862.12
923.045	11890.12
923.279	11856.12
923.513	11639.12
923.747	11657.12
923.981	11563.12
924.215	11462.12
924.449	11377.12
924.683	11275.12
924.917	11221.12
925.151	11188.12
925.385	11163.12
925.618	11192.12
925.852	11129.12
926.086	11027.12
926.319	11014.12
926.553	10990.12
926.786	11029.12
927.02	10910.12
927.253	10920.12
927.486	10967.12
927.72	10834.12
927.953	10970.12
928.186	10798.12
928.42	10857.12
928.653	10691.12
928.886	10690.12
929.119	10610.12
929.352	10631.12
929.585	10515.12
929.818	10389.12
930.051	10309.12
930.284	10323.12
930.516	10076.12
930.749	10088.12
930.982	10077.12
931.215	10027.12
931.447	9901.12
931.68	9941.12
931.912	9869.12
932.145	9813.12
932.377	9843.12
932.61	9908.12
932.842	9750.12
933.074	9822.12
933.307	9744.12
933.539	9896.12
933.771	9881.12
934.003	9719.12
934.236	9811.12
934.468	9751.12
934.7	9693.12
934.932	9761.12
935.164	9701.12
935.395	9548.12
935.627	9630.12
935.859	9608.12
936.091	9540.12
936.323	9454.12
936.554	9453.12
936.786	9403.12
937.017	9335.12
937.249	9362.12
937.481	9258.12
937.712	9234.12
937.943	9312.12
938.175	9161.12
938.406	9242.12
938.637	9253.12
938.869	9112.12
939.1	9169.12
939.331	9089.12
939.562	9072.12
939.793	9062.12
940.024	9017.12
940.255	8954.12
940.486	8904.12
940.717	8849.12
940.948	8816.12
941.179	8795.12
941.409	8746.12
941.64	8722.12
941.871	8728.12
942.102	8708.12
942.332	8694.12
942.563	8699.12
942.793	8661.12
943.024	8666.12
943.254	8697.12
943.484	8668.12
943.715	8708.12
943.945	8611.12
944.175	8595.12
944.405	8582.12
944.636	8592.12
944.866	8585.12
945.096	8565.12
945.326	8466.12
945.556	8502.12
945.786	8474.12
946.016	8368.12
946.245	8255.12
946.475	8310.12
946.705	8117.12
946.935	8161.12
947.164	8090.12
947.394	8053.12
947.624	7979.12
947.853	8008.12
948.083	7949.12
948.312	7848.12
948.542	7785.12
948.771	7823.12
949	7793.12
949.23	7774.12
949.459	7724.12
949.688	7753.12
949.917	7753.12
950.146	7805.12
950.375	7730.12
950.604	7619.12
950.833	7775.12
951.062	7711.12
951.291	7668.12
951.52	7623.12
951.749	7652.12
951.978	7594.12
952.206	7494.12
952.435	7575.12
952.664	7501.12
952.892	7463.12
953.121	7461.12
953.349	7451.12
953.578	7451.12
953.806	7312.12
954.035	7268.12
954.263	7246.12
954.491	7191.12
954.719	7204.12
954.948	7145.12
955.176	7078.12
955.404	7047.12
955.632	7062.12
955.86	7053.12
956.088	7016.12
956.316	6991.12
956.544	6943.12
956.772	6835.12
956.999	6817.12
957.227	6871.12
957.455	6768.12
957.683	6694.12
957.91	6664.12
958.138	6637.12
958.365	6653.12
958.593	6568.12
958.82	6512.12
959.048	6551.12
959.275	6543.12
959.502	6531.12
959.73	6450.12
959.957	6503.12
960.184	6455.12
960.411	6412.12
960.638	6457.12
960.865	6406.12
961.092	6423.12
961.319	6286.12
961.546	6442.12
961.773	6374.12
962	6370.12
962.227	6404.12
962.454	6323.12
962.68	6259.12
962.907	6272.12
963.134	6200.12
963.36	6136.12
963.587	6135.12
963.813	6059.12
964.04	6077.12
964.266	5986.12
964.493	6031.12
964.719	5966.12
964.945	5974.12
965.171	5823.12
965.398	5846.12
965.624	5864.12
965.85	5769.12
966.076	5792.12
966.302	5781.12
966.528	5707.12
966.754	5656.12
966.98	5702.12
967.206	5636.12
967.431	5557.12
967.657	5693.12
967.883	5625.12
968.109	5568.12
968.334	5495.12
968.56	5505.12
968.785	5513.12
969.011	5486.12
969.236	5507.12
969.462	5419.12
969.687	5396.12
969.912	5439.12
970.138	5454.12
970.363	5306.12
970.588	5313.12
970.813	5298.12
971.038	5297.12
971.263	5274.12
971.488	5270.12
971.713	5317.12
971.938	5267.12
972.163	5125.12
972.388	5117.12
972.613	5106.12
972.838	5101.12
973.062	5060.12
973.287	5059.12
973.512	4943.12
973.736	5003.12
973.961	4978.12
974.185	4957.12
974.41	4977.12
974.634	4799.12
974.858	4829.12
975.083	4844.12
975.307	4848.12
975.531	4741.12
975.755	4668.12
975.98	4641.12
976.204	4596.12
976.428	4574.12
976.652	4532.12
976.876	4548.12
977.1	4585.12
977.324	4509.12
977.547	4590.12
977.771	4510.12
977.995	4494.12
978.219	4411.12
978.442	4488.12
978.666	4402.12
978.89	4420.12
979.113	4435.12
979.337	4393.12
979.56	4361.12
979.783	4385.12
980.007	4298.12
980.23	4312.12
980.453	4322.12
980.677	4281.12
980.9	4249.12
981.123	4170.12
981.346	4246.12
981.569	4220.12
981.792	4264.12
982.015	4123.12
982.238	4040.12
982.461	4093.12
982.684	4026.12
982.907	4015.12
983.129	3954.12
983.352	4018.12
983.575	3963.12
983.797	3947.12
984.02	3895.12
984.242	3895.12
984.465	3885.12
984.687	3929.12
984.91	3878.12
985.132	3833.12
985.354	3837.12
985.577	3806.12
985.799	3791.12
986.021	3692.12
986.243	3683.12
986.465	3683.12
986.687	3718.12
986.909	3765.12
987.131	3698.12
987.353	3629.12
987.575	3632.12
987.797	3658.12
988.019	3551.12
988.241	3629.12
988.462	3563.12
988.684	3637.12
988.906	3628.12
989.127	3648.12
989.349	3461.12
989.57	3511.12
989.792	3545.12
990.013	3497.12
990.234	3571.12
990.456	3557.12
990.677	3526.12
990.898	3505.12
991.119	3403.12
991.341	3403.12
991.562	3366.12
991.783	3393.12
992.004	3309.12
992.225	3289.12
992.446	3284.12
992.667	3263.12
992.887	3287.12
993.108	3162.12
993.329	3276.12
993.55	3233.12
993.77	3145.12
993.991	3112.12
994.212	3149.12
994.432	3100.12
994.653	3129.12
994.873	3105.12
995.093	2988.12
995.314	3007.12
995.534	3072.12
995.754	3093.12
995.975	3090.12
996.195	2957.12
996.415	3010.12
996.635	2988.12
996.855	2983.12
997.075	2959.12
997.295	2945.12
997.515	2919.12
997.735	2954.12
997.955	2936.12
998.174	2916.12
998.394	2882.12
998.614	2925.12
998.834	2861.12
999.053	2921.12
999.273	2867.12
999.492	2937.12
999.712	2867.12
999.931	2807.12
1000.151	2837.12
1000.37	2833.12
1000.589	2875.12
1000.809	2763.12
1001.028	2882.12
1001.247	2764.12
1001.466	2632.12
1001.685	2772.12
1001.904	2715.12
1002.123	2703.12
1002.342	2667.12
1002.561	2614.12
1002.78	2683.12
1002.999	2672.12
1003.218	2655.12
1003.436	2592.12
1003.655	2612.12
1003.874	2578.12
1004.092	2509.12
1004.311	2606.12
1004.53	2535.12
1004.748	2612.12
1004.966	2521.12
1005.185	2589.12
1005.403	2600.12
1005.622	2520.12
1005.84	2567.12
1006.058	2486.12
1006.276	2487.12
1006.494	3005.12
1006.712	2493.12
1006.931	2533.12
1007.149	2472.12
1007.367	2412.12
1007.584	2461.12
1007.802	2489.12
1008.02	2432.12
1008.238	2516.12
1008.456	2536.12
1008.673	2350.12
1008.891	2470.12
1009.109	2420.12
1009.326	2439.12
1009.544	2505.12
1009.761	2407.12
1009.979	2488.12
1010.196	2479.12
1010.413	2587.12
1010.631	2583.12
1010.848	2655.12
1011.065	2625.12
1011.282	2576.12
1011.5	2505.12
1011.717	2591.12
1011.934	2517.12
1012.151	2596.12
1012.368	2551.12
1012.585	2476.12
1012.801	2539.12
1013.018	2504.12
1013.235	2443.12
1013.452	2485.12
1013.669	2499.12
1013.885	2430.12
1014.102	2483.12
1014.318	2469.12
1014.535	2408.12
1014.751	2416.12
1014.968	2429.12
1015.184	2438.12
1015.401	2319.12
1015.617	2400.12
1015.833	2324.12
1016.049	2306.12
1016.266	2299.12
1016.482	2289.12
1016.698	2219.12
1016.914	2250.12
1017.13	2161.12
1017.346	2214.12
1017.562	2272.12
1017.778	2223.12
1017.993	2169.12
1018.209	2244.12
1018.425	2208.12
1018.641	2121.12
1018.856	2140.12
1019.072	2146.12
1019.288	2209.12
1019.503	2141.12
1019.719	2105.12
1019.934	2062.12
1020.149	2190.12
1020.365	2084.12
1020.58	2047.12
1020.795	2072.12
1021.011	1993.12
1021.226	1989.12
1021.441	1982.12
1021.656	1890.12
1021.871	1822.12
1022.086	1814.12
1022.301	1825.12
1022.516	1787.12
1022.731	1815.12
1022.946	1752.12
1023.16	1705.12
1023.375	1686.12
1023.59	1668.12
1023.804	1628.12
1024.019	1735.12
1024.234	1585.12
1024.448	1639.12
1024.663	1532.12
1024.877	1562.12
1025.092	1536.12
1025.306	1520.12
1025.52	1439.12
1025.734	1524.12
1025.949	1410.12
1026.163	1354.12
1026.377	1285.12
1026.591	1351.12
1026.805	1271.12
1027.019	1248.12
1027.233	1217.12
1027.447	1164.12
1027.661	1239.12
1027.875	1193.12
1028.088	1170.12
1028.302	1093.12
1028.516	1075.12
1028.73	1070.12
1028.943	1040.12
1029.157	990.12
1029.37	937.12
1029.584	-2.88
1029.797	-2.88
1030.011	-3.88
1030.224	-0.88
