Data from QEP037381__406__16-50-12-633.txt Node

Date: Fri Dec 16 16:50:12 EST 2022
User: dcclab
Spectrometer: QEP03738
Trigger mode: 4
Integration Time (sec): 1.000000E1
Scans to average: 1
Electric dark correction enabled: true
Nonlinearity correction enabled: false
Boxcar width: 0
XAxis mode: Wavelengths
Number of Pixels in Spectrum: 1044
>>>>>Begin Spectral Data<<<<<
784.041	14.5
784.3	-1.5
784.558	-1.5
784.817	-3.5
785.075	88266.5
785.334	15069.5
785.592	7090.5
785.851	4914.5
786.109	3726.5
786.368	2912.5
786.626	2351.5
786.884	1965.5
787.143	1621.5
787.401	1351.5
787.659	1229.5
787.917	1043.5
788.175	966.5
788.433	883.5
788.691	800.5
788.949	740.5
789.207	697.5
789.465	624.5
789.723	605.5
789.98	564.5
790.238	592.5
790.496	563.5
790.753	545.5
791.011	595.5
791.268	521.5
791.526	522.5
791.783	541.5
792.041	528.5
792.298	451.5
792.556	514.5
792.813	489.5
793.07	476.5
793.327	449.5
793.584	529.5
793.841	461.5
794.099	489.5
794.356	530.5
794.613	432.5
794.869	479.5
795.126	431.5
795.383	434.5
795.64	458.5
795.897	397.5
796.153	470.5
796.41	449.5
796.667	434.5
796.923	455.5
797.18	436.5
797.436	474.5
797.693	436.5
797.949	490.5
798.206	529.5
798.462	433.5
798.718	500.5
798.974	468.5
799.231	519.5
799.487	520.5
799.743	520.5
799.999	561.5
800.255	543.5
800.511	559.5
800.767	599.5
801.023	606.5
801.279	627.5
801.534	677.5
801.79	749.5
802.046	788.5
802.302	964.5
802.557	1106.5
802.813	1398.5
803.068	1762.5
803.324	2432.5
803.579	3374.5
803.835	4728.5
804.09	6484.5
804.345	8561.5
804.601	11002.5
804.856	13336.5
805.111	15352.5
805.366	16983.5
805.621	18321.5
805.876	19094.5
806.131	19631.5
806.386	20062.5
806.641	20572.5
806.896	21006.5
807.151	21372.5
807.406	21753.5
807.661	22238.5
807.915	22577.5
808.17	23059.5
808.425	23397.5
808.679	23578.5
808.934	23960.5
809.188	24239.5
809.443	24425.5
809.697	24812.5
809.951	25129.5
810.206	25379.5
810.46	25551.5
810.714	25858.5
810.968	26056.5
811.223	26309.5
811.477	26473.5
811.731	26784.5
811.985	26852.5
812.239	27120.5
812.493	27227.5
812.747	27414.5
813	27432.5
813.254	27605.5
813.508	27818.5
813.762	27961.5
814.015	28173.5
814.269	28336.5
814.522	28704.5
814.776	29159.5
815.03	29422.5
815.283	29960.5
815.536	30455.5
815.79	30944.5
816.043	31511.5
816.296	31705.5
816.55	32365.5
816.803	32706.5
817.056	33325.5
817.309	33518.5
817.562	33986.5
817.815	34412.5
818.068	34754.5
818.321	35132.5
818.574	35535.5
818.827	36009.5
819.079	36535.5
819.332	37130.5
819.585	37647.5
819.838	38123.5
820.09	38408.5
820.343	38826.5
820.595	39027.5
820.848	39247.5
821.1	39459.5
821.353	39465.5
821.605	39471.5
821.857	39537.5
822.11	39331.5
822.362	39286.5
822.614	39199.5
822.866	39256.5
823.118	39182.5
823.37	39416.5
823.622	39464.5
823.874	39494.5
824.126	39723.5
824.378	39729.5
824.63	39870.5
824.882	39919.5
825.134	40234.5
825.385	39903.5
825.637	39858.5
825.888	40000.5
826.14	39812.5
826.392	39564.5
826.643	39493.5
826.895	39317.5
827.146	39270.5
827.397	39140.5
827.649	39146.5
827.9	39150.5
828.151	39264.5
828.402	39194.5
828.653	39404.5
828.905	39495.5
829.156	39679.5
829.407	39552.5
829.658	39580.5
829.909	39501.5
830.159	39470.5
830.41	39199.5
830.661	38966.5
830.912	38750.5
831.162	38560.5
831.413	38588.5
831.664	38637.5
831.914	38503.5
832.165	38327.5
832.415	38443.5
832.666	38509.5
832.916	38556.5
833.167	38548.5
833.417	38465.5
833.667	38328.5
833.917	38071.5
834.168	38172.5
834.418	38113.5
834.668	37829.5
834.918	37768.5
835.168	37510.5
835.418	37517.5
835.668	37413.5
835.918	37290.5
836.167	37227.5
836.417	36999.5
836.667	37044.5
836.917	37066.5
837.166	37000.5
837.416	37017.5
837.666	36818.5
837.915	36767.5
838.165	36770.5
838.414	36546.5
838.663	36539.5
838.913	36454.5
839.162	36423.5
839.411	36382.5
839.661	36232.5
839.91	36170.5
840.159	36031.5
840.408	35991.5
840.657	36018.5
840.906	36013.5
841.155	36072.5
841.404	35960.5
841.653	35957.5
841.902	35989.5
842.15	35951.5
842.399	35991.5
842.648	36083.5
842.897	35792.5
843.145	35614.5
843.394	35424.5
843.642	35327.5
843.891	35127.5
844.139	35038.5
844.388	34694.5
844.636	34623.5
844.884	34656.5
845.133	34592.5
845.381	34567.5
845.629	34496.5
845.877	34415.5
846.125	34360.5
846.373	34368.5
846.621	34206.5
846.869	34049.5
847.117	33809.5
847.365	33750.5
847.613	33502.5
847.861	33584.5
848.108	33432.5
848.356	33330.5
848.604	33220.5
848.851	33231.5
849.099	33303.5
849.346	33282.5
849.594	33482.5
849.841	33528.5
850.089	33513.5
850.336	33652.5
850.583	33587.5
850.831	33270.5
851.078	33152.5
851.325	33166.5
851.572	33194.5
851.819	32776.5
852.066	32354.5
852.313	32037.5
852.56	31565.5
852.807	31544.5
853.054	31391.5
853.301	31374.5
853.548	31417.5
853.794	31710.5
854.041	31622.5
854.288	31775.5
854.534	32035.5
854.781	31851.5
855.028	31770.5
855.274	31626.5
855.52	31459.5
855.767	31192.5
856.013	31158.5
856.26	31496.5
856.506	30990.5
856.752	30999.5
856.998	30848.5
857.244	31016.5
857.49	31248.5
857.736	31115.5
857.982	31199.5
858.228	30995.5
858.474	30753.5
858.72	30662.5
858.966	30571.5
859.212	30159.5
859.458	29821.5
859.703	29582.5
859.949	29233.5
860.195	29051.5
860.44	28816.5
860.686	28714.5
860.931	28765.5
861.177	28582.5
861.422	28545.5
861.667	28373.5
861.913	28502.5
862.158	28474.5
862.403	28625.5
862.648	28719.5
862.893	28711.5
863.138	28679.5
863.384	28578.5
863.629	28563.5
863.873	28484.5
864.118	28327.5
864.363	28216.5
864.608	28259.5
864.853	28162.5
865.098	27886.5
865.342	27769.5
865.587	27668.5
865.832	27765.5
866.076	27637.5
866.321	27423.5
866.565	27412.5
866.81	27182.5
867.054	27148.5
867.298	27021.5
867.543	27008.5
867.787	27022.5
868.031	26847.5
868.275	26806.5
868.519	26836.5
868.764	26670.5
869.008	26611.5
869.252	26541.5
869.496	26496.5
869.739	26475.5
869.983	26357.5
870.227	26383.5
870.471	26310.5
870.715	26453.5
870.958	26236.5
871.202	26256.5
871.446	26354.5
871.689	26294.5
871.933	26371.5
872.176	26440.5
872.42	26401.5
872.663	26198.5
872.906	26202.5
873.15	25890.5
873.393	25826.5
873.636	25619.5
873.879	25411.5
874.122	25242.5
874.366	24864.5
874.609	24713.5
874.852	24616.5
875.095	24524.5
875.337	24561.5
875.58	24435.5
875.823	24299.5
876.066	24116.5
876.309	24234.5
876.551	23937.5
876.794	23837.5
877.037	23889.5
877.279	23789.5
877.522	23852.5
877.764	23786.5
878.007	23708.5
878.249	23760.5
878.491	23693.5
878.734	23796.5
878.976	23568.5
879.218	23481.5
879.46	23402.5
879.702	23119.5
879.945	23119.5
880.187	22706.5
880.429	22761.5
880.671	22597.5
880.912	22501.5
881.154	22458.5
881.396	22278.5
881.638	22336.5
881.88	22444.5
882.121	22211.5
882.363	22142.5
882.605	22147.5
882.846	22129.5
883.088	22052.5
883.329	21925.5
883.571	21882.5
883.812	21853.5
884.053	21853.5
884.295	21990.5
884.536	22241.5
884.777	22058.5
885.018	22044.5
885.259	21964.5
885.5	21903.5
885.742	22046.5
885.982	21866.5
886.223	21674.5
886.464	21515.5
886.705	21421.5
886.946	21376.5
887.187	21127.5
887.428	20979.5
887.668	20752.5
887.909	20518.5
888.15	20448.5
888.39	20306.5
888.631	20266.5
888.871	20049.5
889.111	19921.5
889.352	19833.5
889.592	19564.5
889.833	19564.5
890.073	19384.5
890.313	19308.5
890.553	19176.5
890.793	18988.5
891.033	19022.5
891.273	18930.5
891.513	18834.5
891.753	18820.5
891.993	18758.5
892.233	18757.5
892.473	18845.5
892.713	18830.5
892.952	18780.5
893.192	18811.5
893.432	18802.5
893.671	18740.5
893.911	18551.5
894.15	18550.5
894.39	18396.5
894.629	18296.5
894.869	18147.5
895.108	18090.5
895.347	17955.5
895.587	17995.5
895.826	17820.5
896.065	17755.5
896.304	17789.5
896.543	17676.5
896.782	17588.5
897.021	17697.5
897.26	17686.5
897.499	17511.5
897.738	17672.5
897.977	17270.5
898.216	17203.5
898.454	17007.5
898.693	16874.5
898.932	16927.5
899.17	16804.5
899.409	16743.5
899.647	16711.5
899.886	16667.5
900.124	16654.5
900.363	16589.5
900.601	16665.5
900.839	16660.5
901.078	16599.5
901.316	16716.5
901.554	16715.5
901.792	16703.5
902.03	16667.5
902.268	16698.5
902.506	16629.5
902.744	16507.5
902.982	16399.5
903.22	16159.5
903.458	15954.5
903.695	15893.5
903.933	15742.5
904.171	15420.5
904.409	15310.5
904.646	15062.5
904.884	14995.5
905.121	14810.5
905.359	14656.5
905.596	14506.5
905.833	14444.5
906.071	14254.5
906.308	14356.5
906.545	14183.5
906.783	14147.5
907.02	14167.5
907.257	14097.5
907.494	14041.5
907.731	13968.5
907.968	13994.5
908.205	13785.5
908.442	13756.5
908.679	13713.5
908.915	13690.5
909.152	13544.5
909.389	13363.5
909.626	13246.5
909.862	13202.5
910.099	13231.5
910.335	13102.5
910.572	13019.5
910.808	13042.5
911.045	12960.5
911.281	12925.5
911.518	12867.5
911.754	12772.5
911.99	12758.5
912.226	12642.5
912.463	12474.5
912.699	12432.5
912.935	12329.5
913.171	12246.5
913.407	12102.5
913.643	12179.5
913.879	11898.5
914.114	11775.5
914.35	11781.5
914.586	11668.5
914.822	11449.5
915.057	11473.5
915.293	11360.5
915.529	11309.5
915.764	11258.5
916	11268.5
916.235	11212.5
916.471	11129.5
916.706	10969.5
916.941	11076.5
917.177	11118.5
917.412	11051.5
917.647	11080.5
917.882	10976.5
918.117	11035.5
918.352	11010.5
918.588	10969.5
918.823	10893.5
919.057	10740.5
919.292	10541.5
919.527	10556.5
919.762	10450.5
919.997	10395.5
920.232	10216.5
920.466	10181.5
920.701	10031.5
920.935	10013.5
921.17	9973.5
921.405	9830.5
921.639	9880.5
921.873	9786.5
922.108	9753.5
922.342	9762.5
922.576	9640.5
922.811	9635.5
923.045	9630.5
923.279	9595.5
923.513	9499.5
923.747	9491.5
923.981	9418.5
924.215	9290.5
924.449	9259.5
924.683	9146.5
924.917	9105.5
925.151	9075.5
925.385	9155.5
925.618	9047.5
925.852	9026.5
926.086	8972.5
926.319	8985.5
926.553	8954.5
926.786	8963.5
927.02	8975.5
927.253	8976.5
927.486	8955.5
927.72	8840.5
927.953	8944.5
928.186	8782.5
928.42	8891.5
928.653	8762.5
928.886	8736.5
929.119	8660.5
929.352	8730.5
929.585	8590.5
929.818	8488.5
930.051	8505.5
930.284	8433.5
930.516	8294.5
930.749	8219.5
930.982	8228.5
931.215	8255.5
931.447	8086.5
931.68	8107.5
931.912	8036.5
932.145	8023.5
932.377	8045.5
932.61	8158.5
932.842	7936.5
933.074	8068.5
933.307	7969.5
933.539	8019.5
933.771	8094.5
934.003	7964.5
934.236	8046.5
934.468	8058.5
934.7	7890.5
934.932	7972.5
935.164	7911.5
935.395	7854.5
935.627	7871.5
935.859	7868.5
936.091	7720.5
936.323	7809.5
936.554	7732.5
936.786	7682.5
937.017	7602.5
937.249	7611.5
937.481	7566.5
937.712	7578.5
937.943	7527.5
938.175	7557.5
938.406	7533.5
938.637	7579.5
938.869	7473.5
939.1	7523.5
939.331	7393.5
939.562	7448.5
939.793	7415.5
940.024	7351.5
940.255	7367.5
940.486	7270.5
940.717	7233.5
940.948	7267.5
941.179	7186.5
941.409	7147.5
941.64	7152.5
941.871	7195.5
942.102	7093.5
942.332	7110.5
942.563	7201.5
942.793	7123.5
943.024	7069.5
943.254	7098.5
943.484	7137.5
943.715	7130.5
943.945	7069.5
944.175	7016.5
944.405	6989.5
944.636	7024.5
944.866	7095.5
945.096	7062.5
945.326	6921.5
945.556	6910.5
945.786	6988.5
946.016	6865.5
946.245	6788.5
946.475	6732.5
946.705	6692.5
946.935	6698.5
947.164	6639.5
947.394	6569.5
947.624	6596.5
947.853	6605.5
948.083	6529.5
948.312	6491.5
948.542	6382.5
948.771	6411.5
949	6417.5
949.23	6384.5
949.459	6396.5
949.688	6465.5
949.917	6411.5
950.146	6380.5
950.375	6503.5
950.604	6313.5
950.833	6388.5
951.062	6383.5
951.291	6307.5
951.52	6247.5
951.749	6233.5
951.978	6234.5
952.206	6212.5
952.435	6169.5
952.664	6237.5
952.892	6208.5
953.121	6138.5
953.349	6145.5
953.578	6148.5
953.806	6030.5
954.035	5977.5
954.263	5991.5
954.491	5900.5
954.719	5904.5
954.948	5895.5
955.176	5817.5
955.404	5741.5
955.632	5847.5
955.86	5805.5
956.088	5733.5
956.316	5762.5
956.544	5772.5
956.772	5702.5
956.999	5625.5
957.227	5645.5
957.455	5536.5
957.683	5561.5
957.91	5441.5
958.138	5483.5
958.365	5457.5
958.593	5421.5
958.82	5389.5
959.048	5479.5
959.275	5414.5
959.502	5398.5
959.73	5359.5
959.957	5349.5
960.184	5380.5
960.411	5316.5
960.638	5323.5
960.865	5336.5
961.092	5269.5
961.319	5218.5
961.546	5266.5
961.773	5353.5
962	5212.5
962.227	5309.5
962.454	5230.5
962.68	5225.5
962.907	5222.5
963.134	5073.5
963.36	5117.5
963.587	5151.5
963.813	5019.5
964.04	5021.5
964.266	4950.5
964.493	4998.5
964.719	4948.5
964.945	4966.5
965.171	4802.5
965.398	4896.5
965.624	4894.5
965.85	4783.5
966.076	4779.5
966.302	4829.5
966.528	4744.5
966.754	4771.5
966.98	4740.5
967.206	4695.5
967.431	4654.5
967.657	4715.5
967.883	4646.5
968.109	4658.5
968.334	4554.5
968.56	4596.5
968.785	4551.5
969.011	4539.5
969.236	4558.5
969.462	4514.5
969.687	4509.5
969.912	4552.5
970.138	4556.5
970.363	4412.5
970.588	4471.5
970.813	4409.5
971.038	4369.5
971.263	4441.5
971.488	4415.5
971.713	4434.5
971.938	4376.5
972.163	4267.5
972.388	4306.5
972.613	4217.5
972.838	4241.5
973.062	4193.5
973.287	4204.5
973.512	4133.5
973.736	4183.5
973.961	4176.5
974.185	4135.5
974.41	4125.5
974.634	4019.5
974.858	4010.5
975.083	4018.5
975.307	4032.5
975.531	3973.5
975.755	3904.5
975.98	3880.5
976.204	3847.5
976.428	3808.5
976.652	3813.5
976.876	3801.5
977.1	3890.5
977.324	4047.5
977.547	3990.5
977.771	3830.5
977.995	3752.5
978.219	3646.5
978.442	3784.5
978.666	3759.5
978.89	3704.5
979.113	3677.5
979.337	3726.5
979.56	3690.5
979.783	3723.5
980.007	3636.5
980.23	3615.5
980.453	3585.5
980.677	3644.5
980.9	3550.5
981.123	3435.5
981.346	3564.5
981.569	3523.5
981.792	3533.5
982.015	3474.5
982.238	3427.5
982.461	3456.5
982.684	3381.5
982.907	3311.5
983.129	3306.5
983.352	3409.5
983.575	3372.5
983.797	3346.5
984.02	3283.5
984.242	3277.5
984.465	3273.5
984.687	3264.5
984.91	3287.5
985.132	3253.5
985.354	3209.5
985.577	3206.5
985.799	3165.5
986.021	3102.5
986.243	3096.5
986.465	3111.5
986.687	3157.5
986.909	3187.5
987.131	3128.5
987.353	3084.5
987.575	3095.5
987.797	3042.5
988.019	3001.5
988.241	3037.5
988.462	3018.5
988.684	3037.5
988.906	3062.5
989.127	3054.5
989.349	2927.5
989.57	3003.5
989.792	3020.5
990.013	3000.5
990.234	3022.5
990.456	3009.5
990.677	2971.5
990.898	2926.5
991.119	2912.5
991.341	2934.5
991.562	2840.5
991.783	2900.5
992.004	2771.5
992.225	2744.5
992.446	2802.5
992.667	2731.5
992.887	2821.5
993.108	2720.5
993.329	2812.5
993.55	2769.5
993.77	2654.5
993.991	2675.5
994.212	2718.5
994.432	2707.5
994.653	2646.5
994.873	2616.5
995.093	2506.5
995.314	2563.5
995.534	2609.5
995.754	2667.5
995.975	2608.5
996.195	2498.5
996.415	2586.5
996.635	2528.5
996.855	2542.5
997.075	2523.5
997.295	2540.5
997.515	2472.5
997.735	2516.5
997.955	2511.5
998.174	2475.5
998.394	2476.5
998.614	2487.5
998.834	2433.5
999.053	2526.5
999.273	2460.5
999.492	2509.5
999.712	2443.5
999.931	2371.5
1000.151	2441.5
1000.37	2416.5
1000.589	2427.5
1000.809	2344.5
1001.028	2483.5
1001.247	2386.5
1001.466	2313.5
1001.685	2415.5
1001.904	2387.5
1002.123	2330.5
1002.342	2327.5
1002.561	2266.5
1002.78	2300.5
1002.999	2371.5
1003.218	2309.5
1003.436	2242.5
1003.655	2308.5
1003.874	2244.5
1004.092	2234.5
1004.311	2247.5
1004.53	2226.5
1004.748	2299.5
1004.966	2198.5
1005.185	2297.5
1005.403	2266.5
1005.622	2222.5
1005.84	2259.5
1006.058	2188.5
1006.276	2184.5
1006.494	2652.5
1006.712	2173.5
1006.931	2217.5
1007.149	2116.5
1007.367	2165.5
1007.584	2139.5
1007.802	2197.5
1008.02	2155.5
1008.238	2231.5
1008.456	2222.5
1008.673	2067.5
1008.891	2164.5
1009.109	2139.5
1009.326	2149.5
1009.544	2211.5
1009.761	2118.5
1009.979	2211.5
1010.196	2196.5
1010.413	2286.5
1010.631	2317.5
1010.848	2332.5
1011.065	2339.5
1011.282	2287.5
1011.5	2225.5
1011.717	2345.5
1011.934	2255.5
1012.151	2305.5
1012.368	2286.5
1012.585	2223.5
1012.801	2266.5
1013.018	2253.5
1013.235	2221.5
1013.452	2215.5
1013.669	2218.5
1013.885	2196.5
1014.102	2259.5
1014.318	2194.5
1014.535	2112.5
1014.751	2162.5
1014.968	2165.5
1015.184	2200.5
1015.401	2103.5
1015.617	2128.5
1015.833	2089.5
1016.049	2073.5
1016.266	2057.5
1016.482	2051.5
1016.698	1962.5
1016.914	2036.5
1017.13	1981.5
1017.346	1973.5
1017.562	2045.5
1017.778	1958.5
1017.993	1926.5
1018.209	2005.5
1018.425	2000.5
1018.641	1944.5
1018.856	1898.5
1019.072	1927.5
1019.288	1982.5
1019.503	1957.5
1019.719	1841.5
1019.934	1876.5
1020.149	1933.5
1020.365	1882.5
1020.58	1838.5
1020.795	1857.5
1021.011	1767.5
1021.226	1731.5
1021.441	1781.5
1021.656	1694.5
1021.871	1628.5
1022.086	1621.5
1022.301	1621.5
1022.516	1605.5
1022.731	1622.5
1022.946	1584.5
1023.16	1548.5
1023.375	1501.5
1023.59	1470.5
1023.804	1433.5
1024.019	1534.5
1024.234	1389.5
1024.448	1451.5
1024.663	1366.5
1024.877	1368.5
1025.092	1363.5
1025.306	1377.5
1025.52	1287.5
1025.734	1329.5
1025.949	1247.5
1026.163	1244.5
1026.377	1161.5
1026.591	1197.5
1026.805	1136.5
1027.019	1127.5
1027.233	1082.5
1027.447	1018.5
1027.661	1124.5
1027.875	1036.5
1028.088	1048.5
1028.302	968.5
1028.516	940.5
1028.73	945.5
1028.943	922.5
1029.157	855.5
1029.37	812.5
1029.584	-0.5
1029.797	-3.5
1030.011	-1.5
1030.224	-2.5
