Data from QEP037381__411__16-51-02-634.txt Node

Date: Fri Dec 16 16:51:02 EST 2022
User: dcclab
Spectrometer: QEP03738
Trigger mode: 4
Integration Time (sec): 1.000000E1
Scans to average: 1
Electric dark correction enabled: true
Nonlinearity correction enabled: false
Boxcar width: 0
XAxis mode: Wavelengths
Number of Pixels in Spectrum: 1044
>>>>>Begin Spectral Data<<<<<
784.041	10.88
784.3	0.88
784.558	-4.12
784.817	-0.12
785.075	87687.88
785.334	15096.88
785.592	7049.88
785.851	4867.88
786.109	3704.88
786.368	2849.88
786.626	2318.88
786.884	1922.88
787.143	1592.88
787.401	1350.88
787.659	1227.88
787.917	1080.88
788.175	994.88
788.433	887.88
788.691	806.88
788.949	746.88
789.207	706.88
789.465	605.88
789.723	611.88
789.98	552.88
790.238	583.88
790.496	567.88
790.753	540.88
791.011	598.88
791.268	540.88
791.526	510.88
791.783	530.88
792.041	521.88
792.298	439.88
792.556	509.88
792.813	488.88
793.07	456.88
793.327	462.88
793.584	536.88
793.841	457.88
794.099	480.88
794.356	545.88
794.613	448.88
794.869	468.88
795.126	440.88
795.383	433.88
795.64	452.88
795.897	414.88
796.153	475.88
796.41	445.88
796.667	434.88
796.923	446.88
797.18	436.88
797.436	486.88
797.693	445.88
797.949	475.88
798.206	533.88
798.462	451.88
798.718	504.88
798.974	494.88
799.231	521.88
799.487	517.88
799.743	525.88
799.999	558.88
800.255	566.88
800.511	567.88
800.767	601.88
801.023	593.88
801.279	633.88
801.534	694.88
801.79	763.88
802.046	804.88
802.302	968.88
802.557	1123.88
802.813	1426.88
803.068	1800.88
803.324	2527.88
803.579	3464.88
803.835	4898.88
804.09	6745.88
804.345	8990.88
804.601	11401.88
804.856	13914.88
805.111	16216.88
805.366	18062.88
805.621	19391.88
805.876	20305.88
806.131	20915.88
806.386	21401.88
806.641	21848.88
806.896	22151.88
807.151	22763.88
807.406	23088.88
807.661	23551.88
807.915	23985.88
808.17	24557.88
808.425	24899.88
808.679	25026.88
808.934	25427.88
809.188	25736.88
809.443	26062.88
809.697	26291.88
809.951	26555.88
810.206	26893.88
810.46	27219.88
810.714	27466.88
810.968	27728.88
811.223	27864.88
811.477	28131.88
811.731	28398.88
811.985	28557.88
812.239	28822.88
812.493	28881.88
812.747	29196.88
813	29109.88
813.254	29289.88
813.508	29579.88
813.762	29638.88
814.015	29860.88
814.269	30128.88
814.522	30426.88
814.776	30830.88
815.03	31249.88
815.283	31755.88
815.536	32220.88
815.79	32809.88
816.043	33370.88
816.296	33814.88
816.55	34254.88
816.803	34793.88
817.056	35374.88
817.309	35675.88
817.562	36009.88
817.815	36537.88
818.068	36737.88
818.321	37296.88
818.574	37629.88
818.827	38190.88
819.079	38739.88
819.332	39238.88
819.585	39946.88
819.838	40469.88
820.09	40721.88
820.343	41204.88
820.595	41404.88
820.848	41587.88
821.1	41814.88
821.353	41720.88
821.605	41697.88
821.857	41927.88
822.11	41760.88
822.362	41515.88
822.614	41609.88
822.866	41663.88
823.118	41605.88
823.37	41641.88
823.622	41524.88
823.874	41848.88
824.126	41988.88
824.378	41980.88
824.63	42161.88
824.882	42478.88
825.134	42441.88
825.385	42177.88
825.637	42268.88
825.888	42119.88
826.14	42170.88
826.392	41976.88
826.643	41720.88
826.895	41654.88
827.146	41541.88
827.397	41401.88
827.649	41408.88
827.9	41358.88
828.151	41611.88
828.402	41602.88
828.653	41595.88
828.905	41732.88
829.156	41799.88
829.407	41731.88
829.658	41796.88
829.909	41767.88
830.159	41701.88
830.41	41365.88
830.661	41162.88
830.912	41141.88
831.162	40856.88
831.413	40742.88
831.664	40886.88
831.914	40875.88
832.165	40739.88
832.415	40724.88
832.666	40759.88
832.916	40843.88
833.167	40618.88
833.417	40591.88
833.667	40476.88
833.917	40451.88
834.168	40343.88
834.418	40129.88
834.668	40099.88
834.918	39902.88
835.168	39694.88
835.418	39687.88
835.668	39575.88
835.918	39345.88
836.167	39351.88
836.417	39070.88
836.667	39128.88
836.917	39137.88
837.166	38975.88
837.416	38881.88
837.666	38941.88
837.915	38858.88
838.165	38814.88
838.414	38667.88
838.663	38520.88
838.913	38555.88
839.162	38382.88
839.411	38468.88
839.661	38233.88
839.91	37924.88
840.159	37991.88
840.408	37947.88
840.657	37895.88
840.906	37981.88
841.155	37939.88
841.404	37843.88
841.653	37757.88
841.902	37959.88
842.15	37904.88
842.399	38016.88
842.648	37816.88
842.897	37804.88
843.145	37531.88
843.394	37376.88
843.642	36990.88
843.891	37158.88
844.139	36892.88
844.388	36612.88
844.636	36557.88
844.884	36462.88
845.133	36314.88
845.381	36300.88
845.629	36394.88
845.877	36286.88
846.125	36110.88
846.373	36247.88
846.621	36000.88
846.869	35891.88
847.117	35686.88
847.365	35417.88
847.613	35248.88
847.861	35219.88
848.108	35197.88
848.356	35069.88
848.604	35052.88
848.851	34978.88
849.099	35084.88
849.346	35200.88
849.594	35214.88
849.841	35286.88
850.089	35441.88
850.336	35414.88
850.583	35288.88
850.831	35159.88
851.078	35037.88
851.325	34865.88
851.572	34999.88
851.819	34481.88
852.066	34063.88
852.313	33556.88
852.56	33268.88
852.807	33178.88
853.054	33030.88
853.301	32904.88
853.548	32932.88
853.794	33153.88
854.041	33265.88
854.288	33507.88
854.534	33602.88
854.781	33582.88
855.028	33241.88
855.274	33231.88
855.52	33069.88
855.767	32674.88
856.013	32743.88
856.26	32957.88
856.506	32577.88
856.752	32463.88
856.998	32473.88
857.244	32554.88
857.49	32772.88
857.736	32740.88
857.982	32792.88
858.228	32777.88
858.474	32401.88
858.72	32233.88
858.966	32144.88
859.212	31786.88
859.458	31330.88
859.703	30970.88
859.949	30533.88
860.195	30541.88
860.44	30330.88
860.686	30221.88
860.931	30189.88
861.177	30095.88
861.422	30022.88
861.667	29873.88
861.913	29826.88
862.158	29998.88
862.403	30015.88
862.648	30084.88
862.893	30209.88
863.138	30013.88
863.384	30016.88
863.629	29930.88
863.873	29948.88
864.118	29724.88
864.363	29699.88
864.608	29461.88
864.853	29462.88
865.098	29232.88
865.342	29140.88
865.587	29061.88
865.832	29135.88
866.076	28961.88
866.321	28739.88
866.565	28739.88
866.81	28468.88
867.054	28518.88
867.298	28366.88
867.543	28274.88
867.787	28230.88
868.031	28167.88
868.275	28054.88
868.519	28038.88
868.764	28002.88
869.008	27835.88
869.252	27887.88
869.496	27788.88
869.739	27664.88
869.983	27575.88
870.227	27538.88
870.471	27562.88
870.715	27505.88
870.958	27594.88
871.202	27554.88
871.446	27665.88
871.689	27603.88
871.933	27576.88
872.176	27544.88
872.42	27567.88
872.663	27453.88
872.906	27331.88
873.15	27064.88
873.393	26823.88
873.636	26718.88
873.879	26560.88
874.122	26259.88
874.366	26007.88
874.609	25922.88
874.852	25806.88
875.095	25658.88
875.337	25590.88
875.58	25368.88
875.823	25351.88
876.066	25312.88
876.309	25321.88
876.551	25113.88
876.794	24908.88
877.037	24880.88
877.279	24868.88
877.522	24943.88
877.764	24970.88
878.007	24852.88
878.249	24945.88
878.491	24804.88
878.734	24828.88
878.976	24665.88
879.218	24459.88
879.46	24471.88
879.702	24304.88
879.945	24039.88
880.187	23949.88
880.429	23785.88
880.671	23626.88
880.912	23445.88
881.154	23470.88
881.396	23335.88
881.638	23342.88
881.88	23351.88
882.121	23198.88
882.363	23336.88
882.605	23110.88
882.846	22937.88
883.088	23037.88
883.329	22732.88
883.571	22808.88
883.812	22732.88
884.053	22824.88
884.295	23002.88
884.536	23156.88
884.777	22893.88
885.018	22898.88
885.259	22952.88
885.5	22844.88
885.742	22913.88
885.982	22822.88
886.223	22692.88
886.464	22478.88
886.705	22462.88
886.946	22297.88
887.187	21990.88
887.428	21926.88
887.668	21625.88
887.909	21551.88
888.15	21289.88
888.39	21260.88
888.631	20969.88
888.871	20898.88
889.111	20831.88
889.352	20661.88
889.592	20473.88
889.833	20343.88
890.073	20184.88
890.313	20174.88
890.553	19824.88
890.793	19903.88
891.033	19776.88
891.273	19739.88
891.513	19586.88
891.753	19552.88
891.993	19503.88
892.233	19572.88
892.473	19724.88
892.713	19515.88
892.952	19591.88
893.192	19604.88
893.432	19580.88
893.671	19523.88
893.911	19390.88
894.15	19403.88
894.39	19064.88
894.629	19000.88
894.869	19015.88
895.108	18776.88
895.347	18649.88
895.587	18719.88
895.826	18625.88
896.065	18496.88
896.304	18492.88
896.543	18590.88
896.782	18345.88
897.021	18378.88
897.26	18303.88
897.499	18287.88
897.738	18179.88
897.977	18059.88
898.216	17880.88
898.454	17698.88
898.693	17616.88
898.932	17513.88
899.17	17492.88
899.409	17432.88
899.647	17356.88
899.886	17292.88
900.124	17336.88
900.363	17252.88
900.601	17305.88
900.839	17340.88
901.078	17353.88
901.316	17284.88
901.554	17351.88
901.792	17407.88
902.03	17371.88
902.268	17274.88
902.506	17258.88
902.744	17117.88
902.982	17114.88
903.22	16749.88
903.458	16622.88
903.695	16493.88
903.933	16334.88
904.171	16014.88
904.409	15977.88
904.646	15723.88
904.884	15476.88
905.121	15388.88
905.359	15235.88
905.596	15116.88
905.833	14929.88
906.071	14896.88
906.308	14907.88
906.545	14764.88
906.783	14659.88
907.02	14689.88
907.257	14638.88
907.494	14579.88
907.731	14523.88
907.968	14449.88
908.205	14469.88
908.442	14305.88
908.679	14279.88
908.915	14089.88
909.152	14001.88
909.389	13911.88
909.626	13817.88
909.862	13705.88
910.099	13616.88
910.335	13624.88
910.572	13591.88
910.808	13572.88
911.045	13482.88
911.281	13457.88
911.518	13369.88
911.754	13250.88
911.99	13194.88
912.226	13159.88
912.463	12946.88
912.699	12878.88
912.935	12752.88
913.171	12704.88
913.407	12631.88
913.643	12493.88
913.879	12355.88
914.114	12352.88
914.35	12124.88
914.586	11986.88
914.822	11973.88
915.057	11934.88
915.293	11782.88
915.529	11654.88
915.764	11707.88
916	11714.88
916.235	11641.88
916.471	11612.88
916.706	11565.88
916.941	11511.88
917.177	11520.88
917.412	11523.88
917.647	11485.88
917.882	11400.88
918.117	11454.88
918.352	11426.88
918.588	11362.88
918.823	11253.88
919.057	11154.88
919.292	10991.88
919.527	10936.88
919.762	10750.88
919.997	10785.88
920.232	10589.88
920.466	10603.88
920.701	10416.88
920.935	10289.88
921.17	10275.88
921.405	10186.88
921.639	10244.88
921.873	10164.88
922.108	10147.88
922.342	10136.88
922.576	10050.88
922.811	9924.88
923.045	9927.88
923.279	9916.88
923.513	9778.88
923.747	9817.88
923.981	9742.88
924.215	9616.88
924.449	9642.88
924.683	9491.88
924.917	9437.88
925.151	9489.88
925.385	9477.88
925.618	9343.88
925.852	9377.88
926.086	9242.88
926.319	9298.88
926.553	9293.88
926.786	9317.88
927.02	9231.88
927.253	9276.88
927.486	9199.88
927.72	9172.88
927.953	9217.88
928.186	9089.88
928.42	9164.88
928.653	9087.88
928.886	9055.88
929.119	8934.88
929.352	8884.88
929.585	8881.88
929.818	8699.88
930.051	8725.88
930.284	8701.88
930.516	8529.88
930.749	8503.88
930.982	8469.88
931.215	8463.88
931.447	8397.88
931.68	8389.88
931.912	8291.88
932.145	8314.88
932.377	8319.88
932.61	8423.88
932.842	8216.88
933.074	8329.88
933.307	8211.88
933.539	8298.88
933.771	8310.88
934.003	8173.88
934.236	8326.88
934.468	8259.88
934.7	8148.88
934.932	8220.88
935.164	8105.88
935.395	8088.88
935.627	8053.88
935.859	8074.88
936.091	7997.88
936.323	8049.88
936.554	8004.88
936.786	7886.88
937.017	7770.88
937.249	7926.88
937.481	7747.88
937.712	7781.88
937.943	7796.88
938.175	7787.88
938.406	7740.88
938.637	7789.88
938.869	7680.88
939.1	7727.88
939.331	7619.88
939.562	7671.88
939.793	7599.88
940.024	7584.88
940.255	7544.88
940.486	7482.88
940.717	7454.88
940.948	7444.88
941.179	7329.88
941.409	7358.88
941.64	7374.88
941.871	7324.88
942.102	7342.88
942.332	7262.88
942.563	7353.88
942.793	7348.88
943.024	7284.88
943.254	7318.88
943.484	7340.88
943.715	7351.88
943.945	7293.88
944.175	7188.88
944.405	7236.88
944.636	7183.88
944.866	7168.88
945.096	7212.88
945.326	7172.88
945.556	7160.88
945.786	7171.88
946.016	7035.88
946.245	6944.88
946.475	6947.88
946.705	6924.88
946.935	6882.88
947.164	6848.88
947.394	6827.88
947.624	6758.88
947.853	6763.88
948.083	6738.88
948.312	6674.88
948.542	6631.88
948.771	6596.88
949	6569.88
949.23	6576.88
949.459	6593.88
949.688	6585.88
949.917	6515.88
950.146	6532.88
950.375	6599.88
950.604	6506.88
950.833	6616.88
951.062	6559.88
951.291	6467.88
951.52	6409.88
951.749	6467.88
951.978	6390.88
952.206	6382.88
952.435	6353.88
952.664	6393.88
952.892	6353.88
953.121	6314.88
953.349	6313.88
953.578	6276.88
953.806	6211.88
954.035	6118.88
954.263	6086.88
954.491	6032.88
954.719	6211.88
954.948	6069.88
955.176	6016.88
955.404	6010.88
955.632	5960.88
955.86	5958.88
956.088	5894.88
956.316	5869.88
956.544	5901.88
956.772	5765.88
956.999	5760.88
957.227	5843.88
957.455	5719.88
957.683	5719.88
957.91	5649.88
958.138	5606.88
958.365	5612.88
958.593	5549.88
958.82	5558.88
959.048	5584.88
959.275	5477.88
959.502	5511.88
959.73	5476.88
959.957	5521.88
960.184	5462.88
960.411	5436.88
960.638	5492.88
960.865	5470.88
961.092	5427.88
961.319	5325.88
961.546	5415.88
961.773	5418.88
962	5356.88
962.227	5454.88
962.454	5354.88
962.68	5355.88
962.907	5271.88
963.134	5255.88
963.36	5256.88
963.587	5233.88
963.813	5133.88
964.04	5177.88
964.266	5086.88
964.493	5119.88
964.719	5045.88
964.945	5049.88
965.171	4980.88
965.398	4993.88
965.624	4991.88
965.85	4887.88
966.076	4865.88
966.302	4885.88
966.528	4836.88
966.754	4811.88
966.98	4819.88
967.206	4780.88
967.431	4743.88
967.657	4810.88
967.883	4771.88
968.109	4731.88
968.334	4654.88
968.56	4678.88
968.785	4686.88
969.011	4595.88
969.236	4701.88
969.462	4625.88
969.687	4647.88
969.912	4617.88
970.138	4617.88
970.363	4529.88
970.588	4546.88
970.813	4528.88
971.038	4504.88
971.263	4508.88
971.488	4520.88
971.713	4500.88
971.938	4471.88
972.163	4354.88
972.388	4369.88
972.613	4330.88
972.838	4334.88
973.062	4301.88
973.287	4299.88
973.512	4233.88
973.736	4262.88
973.961	4258.88
974.185	4189.88
974.41	4172.88
974.634	4068.88
974.858	4144.88
975.083	4112.88
975.307	4069.88
975.531	4020.88
975.755	3964.88
975.98	4028.88
976.204	3925.88
976.428	3892.88
976.652	3906.88
976.876	3866.88
977.1	3905.88
977.324	3844.88
977.547	3858.88
977.771	3868.88
977.995	3871.88
978.219	3746.88
978.442	3883.88
978.666	3793.88
978.89	3781.88
979.113	3756.88
979.337	3755.88
979.56	3706.88
979.783	3796.88
980.007	3636.88
980.23	3670.88
980.453	3656.88
980.677	3689.88
980.9	3664.88
981.123	3512.88
981.346	3618.88
981.569	3589.88
981.792	3625.88
982.015	3540.88
982.238	3503.88
982.461	3503.88
982.684	3455.88
982.907	3406.88
983.129	3393.88
983.352	3436.88
983.575	3387.88
983.797	3400.88
984.02	3316.88
984.242	3334.88
984.465	3347.88
984.687	3331.88
984.91	3365.88
985.132	3274.88
985.354	3293.88
985.577	3252.88
985.799	3221.88
986.021	3160.88
986.243	3180.88
986.465	3188.88
986.687	3192.88
986.909	3242.88
987.131	3157.88
987.353	3115.88
987.575	3137.88
987.797	3095.88
988.019	3069.88
988.241	3074.88
988.462	3040.88
988.684	3095.88
988.906	3077.88
989.127	3135.88
989.349	2995.88
989.57	3036.88
989.792	3055.88
990.013	3061.88
990.234	3029.88
990.456	3071.88
990.677	3049.88
990.898	2972.88
991.119	2961.88
991.341	2960.88
991.562	2888.88
991.783	2896.88
992.004	2850.88
992.225	2808.88
992.446	2853.88
992.667	2778.88
992.887	2838.88
993.108	2732.88
993.329	2854.88
993.55	2771.88
993.77	2679.88
993.991	2696.88
994.212	2720.88
994.432	2700.88
994.653	2700.88
994.873	2699.88
995.093	2599.88
995.314	2627.88
995.534	2644.88
995.754	2686.88
995.975	2733.88
996.195	2558.88
996.415	2622.88
996.635	2556.88
996.855	2594.88
997.075	2537.88
997.295	2546.88
997.515	2517.88
997.735	2559.88
997.955	2552.88
998.174	2487.88
998.394	2494.88
998.614	2498.88
998.834	2481.88
999.053	2505.88
999.273	2484.88
999.492	2560.88
999.712	2497.88
999.931	2457.88
1000.151	2452.88
1000.37	2431.88
1000.589	2515.88
1000.809	2414.88
1001.028	2467.88
1001.247	2418.88
1001.466	2304.88
1001.685	2451.88
1001.904	2372.88
1002.123	2368.88
1002.342	2345.88
1002.561	2312.88
1002.78	2305.88
1002.999	2379.88
1003.218	2290.88
1003.436	2264.88
1003.655	2332.88
1003.874	2257.88
1004.092	2270.88
1004.311	2291.88
1004.53	2221.88
1004.748	2318.88
1004.966	2216.88
1005.185	2267.88
1005.403	2253.88
1005.622	2210.88
1005.84	2267.88
1006.058	2203.88
1006.276	2217.88
1006.494	2712.88
1006.712	2160.88
1006.931	2232.88
1007.149	2133.88
1007.367	2156.88
1007.584	2199.88
1007.802	2198.88
1008.02	2131.88
1008.238	2199.88
1008.456	2250.88
1008.673	2090.88
1008.891	2196.88
1009.109	2152.88
1009.326	2179.88
1009.544	2231.88
1009.761	2133.88
1009.979	2207.88
1010.196	2231.88
1010.413	2303.88
1010.631	2305.88
1010.848	2342.88
1011.065	2355.88
1011.282	2259.88
1011.5	2239.88
1011.717	2323.88
1011.934	2278.88
1012.151	2320.88
1012.368	2287.88
1012.585	2186.88
1012.801	2250.88
1013.018	2235.88
1013.235	2190.88
1013.452	2176.88
1013.669	2201.88
1013.885	2188.88
1014.102	2229.88
1014.318	2187.88
1014.535	2128.88
1014.751	2136.88
1014.968	2193.88
1015.184	2184.88
1015.401	2088.88
1015.617	2124.88
1015.833	2032.88
1016.049	2061.88
1016.266	2062.88
1016.482	2028.88
1016.698	1986.88
1016.914	2024.88
1017.13	1975.88
1017.346	1978.88
1017.562	2036.88
1017.778	1964.88
1017.993	1917.88
1018.209	1988.88
1018.425	1939.88
1018.641	1930.88
1018.856	1886.88
1019.072	1934.88
1019.288	1963.88
1019.503	1926.88
1019.719	1841.88
1019.934	1847.88
1020.149	1921.88
1020.365	1847.88
1020.58	1814.88
1020.795	1850.88
1021.011	1790.88
1021.226	1733.88
1021.441	1777.88
1021.656	1681.88
1021.871	1631.88
1022.086	1634.88
1022.301	1606.88
1022.516	1613.88
1022.731	1629.88
1022.946	1555.88
1023.16	1522.88
1023.375	1505.88
1023.59	1500.88
1023.804	1440.88
1024.019	1540.88
1024.234	1412.88
1024.448	1438.88
1024.663	1336.88
1024.877	1350.88
1025.092	1389.88
1025.306	1380.88
1025.52	1255.88
1025.734	1314.88
1025.949	1267.88
1026.163	1223.88
1026.377	1177.88
1026.591	1208.88
1026.805	1123.88
1027.019	1120.88
1027.233	1060.88
1027.447	997.88
1027.661	1103.88
1027.875	1039.88
1028.088	1066.88
1028.302	971.88
1028.516	948.88
1028.73	948.88
1028.943	937.88
1029.157	859.88
1029.37	825.88
1029.584	-2.12
1029.797	-1.12
1030.011	-1.12
1030.224	-3.12
