Data from QEP037381__401__16-49-22-631.txt Node

Date: Fri Dec 16 16:49:22 EST 2022
User: dcclab
Spectrometer: QEP03738
Trigger mode: 4
Integration Time (sec): 1.000000E1
Scans to average: 1
Electric dark correction enabled: true
Nonlinearity correction enabled: false
Boxcar width: 0
XAxis mode: Wavelengths
Number of Pixels in Spectrum: 1044
>>>>>Begin Spectral Data<<<<<
784.041	11.5
784.3	0.5
784.558	-1.5
784.817	-1.5
785.075	85801.5
785.334	14825.5
785.592	7000.5
785.851	4855.5
786.109	3675.5
786.368	2869.5
786.626	2331.5
786.884	1958.5
787.143	1634.5
787.401	1367.5
787.659	1231.5
787.917	1087.5
788.175	984.5
788.433	893.5
788.691	796.5
788.949	762.5
789.207	729.5
789.465	633.5
789.723	592.5
789.98	569.5
790.238	602.5
790.496	574.5
790.753	555.5
791.011	617.5
791.268	538.5
791.526	521.5
791.783	541.5
792.041	539.5
792.298	453.5
792.556	511.5
792.813	509.5
793.07	478.5
793.327	477.5
793.584	543.5
793.841	463.5
794.099	512.5
794.356	549.5
794.613	461.5
794.869	507.5
795.126	463.5
795.383	443.5
795.64	467.5
795.897	417.5
796.153	485.5
796.41	465.5
796.667	449.5
796.923	460.5
797.18	463.5
797.436	492.5
797.693	464.5
797.949	517.5
798.206	549.5
798.462	464.5
798.718	516.5
798.974	506.5
799.231	548.5
799.487	549.5
799.743	554.5
799.999	599.5
800.255	601.5
800.511	588.5
800.767	645.5
801.023	648.5
801.279	682.5
801.534	745.5
801.79	822.5
802.046	873.5
802.302	1088.5
802.557	1278.5
802.813	1609.5
803.068	2078.5
803.324	2913.5
803.579	4078.5
803.835	5678.5
804.09	7918.5
804.345	10538.5
804.601	13332.5
804.856	16237.5
805.111	18789.5
805.366	20663.5
805.621	22216.5
805.876	23185.5
806.131	24038.5
806.386	24397.5
806.641	24954.5
806.896	25401.5
807.151	25863.5
807.406	26396.5
807.661	26939.5
807.915	27557.5
808.17	28135.5
808.425	28309.5
808.679	28664.5
808.934	29039.5
809.188	29395.5
809.443	29755.5
809.697	30112.5
809.951	30490.5
810.206	30606.5
810.46	31151.5
810.714	31356.5
810.968	31666.5
811.223	31870.5
811.477	32291.5
811.731	32474.5
811.985	32766.5
812.239	32910.5
812.493	33085.5
812.747	33252.5
813	33359.5
813.254	33639.5
813.508	33779.5
813.762	34024.5
814.015	34219.5
814.269	34505.5
814.522	34744.5
814.776	35207.5
815.03	35825.5
815.283	36376.5
815.536	37055.5
815.79	37518.5
816.043	38287.5
816.296	38789.5
816.55	39316.5
816.803	39883.5
817.056	40452.5
817.309	40862.5
817.562	41381.5
817.815	41672.5
818.068	42101.5
818.321	42656.5
818.574	43257.5
818.827	43799.5
819.079	44388.5
819.332	45261.5
819.585	45762.5
819.838	46353.5
820.09	46770.5
820.343	47204.5
820.595	47501.5
820.848	47812.5
821.1	47973.5
821.353	48028.5
821.605	48288.5
821.857	48081.5
822.11	47951.5
822.362	47835.5
822.614	47676.5
822.866	47701.5
823.118	47856.5
823.37	47764.5
823.622	47995.5
823.874	48006.5
824.126	48313.5
824.378	48353.5
824.63	48771.5
824.882	48689.5
825.134	48617.5
825.385	48684.5
825.637	48647.5
825.888	48569.5
826.14	48401.5
826.392	48349.5
826.643	48231.5
826.895	47993.5
827.146	47629.5
827.397	47674.5
827.649	47705.5
827.9	47544.5
828.151	47710.5
828.402	47831.5
828.653	47963.5
828.905	48044.5
829.156	48132.5
829.407	48072.5
829.658	48010.5
829.909	48090.5
830.159	47952.5
830.41	47634.5
830.661	47536.5
830.912	47125.5
831.162	46915.5
831.413	46982.5
831.664	46998.5
831.914	46913.5
832.165	46851.5
832.415	46939.5
832.666	46866.5
832.916	46955.5
833.167	46861.5
833.417	46735.5
833.667	46708.5
833.917	46589.5
834.168	46480.5
834.418	46313.5
834.668	46241.5
834.918	45881.5
835.168	45711.5
835.418	45526.5
835.668	45386.5
835.918	45382.5
836.167	45215.5
836.417	45137.5
836.667	44964.5
836.917	44988.5
837.166	44881.5
837.416	45041.5
837.666	45069.5
837.915	44789.5
838.165	44657.5
838.414	44611.5
838.663	44467.5
838.913	44449.5
839.162	44276.5
839.411	44250.5
839.661	43970.5
839.91	43991.5
840.159	43668.5
840.408	43850.5
840.657	43869.5
840.906	43958.5
841.155	43871.5
841.404	43856.5
841.653	43694.5
841.902	43758.5
842.15	43688.5
842.399	43775.5
842.648	43519.5
842.897	43407.5
843.145	43346.5
843.394	43145.5
843.642	42869.5
843.891	42738.5
844.139	42592.5
844.388	42445.5
844.636	42192.5
844.884	42100.5
845.133	42027.5
845.381	41980.5
845.629	41860.5
845.877	41863.5
846.125	41878.5
846.373	41748.5
846.621	41527.5
846.869	41456.5
847.117	41155.5
847.365	41066.5
847.613	40844.5
847.861	40675.5
848.108	40489.5
848.356	40413.5
848.604	40463.5
848.851	40371.5
849.099	40447.5
849.346	40531.5
849.594	40755.5
849.841	40805.5
850.089	40734.5
850.336	41005.5
850.583	40872.5
850.831	40518.5
851.078	40379.5
851.325	40304.5
851.572	40403.5
851.819	39964.5
852.066	39293.5
852.313	38890.5
852.56	38503.5
852.807	38223.5
853.054	38091.5
853.301	38184.5
853.548	38095.5
853.794	38182.5
854.041	38214.5
854.288	38412.5
854.534	38841.5
854.781	38712.5
855.028	38691.5
855.274	38570.5
855.52	38146.5
855.767	37810.5
856.013	37780.5
856.26	38023.5
856.506	37506.5
856.752	37481.5
856.998	37525.5
857.244	37519.5
857.49	37716.5
857.736	37611.5
857.982	37840.5
858.228	37634.5
858.474	37516.5
858.72	37309.5
858.966	36953.5
859.212	36574.5
859.458	36281.5
859.703	35930.5
859.949	35520.5
860.195	35384.5
860.44	35118.5
860.686	34812.5
860.931	34934.5
861.177	34623.5
861.422	34598.5
861.667	34550.5
861.913	34525.5
862.158	34795.5
862.403	34797.5
862.648	34834.5
862.893	34906.5
863.138	34895.5
863.384	34817.5
863.629	34615.5
863.873	34687.5
864.118	34587.5
864.363	34359.5
864.608	34148.5
864.853	34060.5
865.098	33989.5
865.342	33823.5
865.587	33702.5
865.832	33643.5
866.076	33426.5
866.321	33490.5
866.565	33385.5
866.81	33102.5
867.054	33065.5
867.298	32944.5
867.543	32760.5
867.787	32790.5
868.031	32703.5
868.275	32533.5
868.519	32527.5
868.764	32465.5
869.008	32209.5
869.252	32305.5
869.496	32192.5
869.739	32021.5
869.983	31970.5
870.227	31859.5
870.471	31714.5
870.715	31989.5
870.958	31968.5
871.202	31993.5
871.446	31976.5
871.689	32073.5
871.933	32028.5
872.176	31918.5
872.42	31725.5
872.663	31663.5
872.906	31601.5
873.15	31277.5
873.393	31197.5
873.636	31061.5
873.879	30677.5
874.122	30395.5
874.366	30194.5
874.609	30074.5
874.852	29782.5
875.095	29805.5
875.337	29604.5
875.58	29389.5
875.823	29553.5
876.066	29446.5
876.309	29224.5
876.551	29086.5
876.794	29020.5
877.037	28934.5
877.279	28824.5
877.522	28759.5
877.764	28991.5
878.007	28826.5
878.249	28869.5
878.491	28784.5
878.734	28729.5
878.976	28653.5
879.218	28579.5
879.46	28504.5
879.702	28165.5
879.945	28022.5
880.187	27784.5
880.429	27650.5
880.671	27491.5
880.912	27258.5
881.154	27340.5
881.396	27015.5
881.638	27173.5
881.88	27094.5
882.121	26941.5
882.363	27013.5
882.605	26937.5
882.846	26797.5
883.088	26626.5
883.329	26611.5
883.571	26496.5
883.812	26425.5
884.053	26411.5
884.295	26603.5
884.536	26691.5
884.777	26540.5
885.018	26404.5
885.259	26575.5
885.5	26297.5
885.742	26510.5
885.982	26349.5
886.223	26176.5
886.464	26096.5
886.705	26005.5
886.946	25789.5
887.187	25564.5
887.428	25415.5
887.668	25146.5
887.909	24999.5
888.15	24723.5
888.39	24572.5
888.631	24565.5
888.871	24234.5
889.111	24239.5
889.352	24033.5
889.592	23860.5
889.833	23703.5
890.073	23501.5
890.313	23400.5
890.553	23185.5
890.793	23252.5
891.033	23055.5
891.273	22884.5
891.513	22797.5
891.753	22835.5
891.993	22768.5
892.233	22746.5
892.473	22833.5
892.713	22912.5
892.952	22824.5
893.192	22859.5
893.432	22818.5
893.671	22722.5
893.911	22595.5
894.15	22485.5
894.39	22233.5
894.629	22216.5
894.869	22097.5
895.108	21845.5
895.347	21710.5
895.587	21708.5
895.826	21609.5
896.065	21488.5
896.304	21553.5
896.543	21565.5
896.782	21402.5
897.021	21321.5
897.26	21253.5
897.499	21328.5
897.738	21116.5
897.977	21091.5
898.216	20769.5
898.454	20675.5
898.693	20420.5
898.932	20510.5
899.17	20263.5
899.409	20212.5
899.647	20188.5
899.886	20135.5
900.124	20134.5
900.363	20135.5
900.601	20092.5
900.839	20163.5
901.078	20153.5
901.316	20136.5
901.554	20158.5
901.792	20188.5
902.03	20064.5
902.268	20010.5
902.506	20086.5
902.744	19845.5
902.982	19847.5
903.22	19626.5
903.458	19419.5
903.695	19141.5
903.933	18951.5
904.171	18664.5
904.409	18545.5
904.646	18305.5
904.884	18077.5
905.121	17963.5
905.359	17736.5
905.596	17525.5
905.833	17337.5
906.071	17323.5
906.308	17371.5
906.545	17259.5
906.783	17167.5
907.02	17159.5
907.257	17103.5
907.494	17081.5
907.731	16976.5
907.968	16872.5
908.205	16891.5
908.442	16618.5
908.679	16632.5
908.915	16455.5
909.152	16306.5
909.389	16162.5
909.626	16131.5
909.862	15934.5
910.099	15964.5
910.335	15834.5
910.572	15807.5
910.808	15783.5
911.045	15728.5
911.281	15549.5
911.518	15606.5
911.754	15477.5
911.99	15433.5
912.226	15308.5
912.463	15118.5
912.699	14968.5
912.935	14922.5
913.171	14843.5
913.407	14682.5
913.643	14597.5
913.879	14434.5
914.114	14344.5
914.35	14173.5
914.586	14026.5
914.822	13890.5
915.057	13961.5
915.293	13626.5
915.529	13648.5
915.764	13705.5
916	13619.5
916.235	13555.5
916.471	13512.5
916.706	13474.5
916.941	13463.5
917.177	13389.5
917.412	13519.5
917.647	13492.5
917.882	13293.5
918.117	13374.5
918.352	13215.5
918.588	13303.5
918.823	13103.5
919.057	13047.5
919.292	12803.5
919.527	12785.5
919.762	12581.5
919.997	12519.5
920.232	12303.5
920.466	12272.5
920.701	12069.5
920.935	12065.5
921.17	12012.5
921.405	11881.5
921.639	11920.5
921.873	11799.5
922.108	11767.5
922.342	11772.5
922.576	11643.5
922.811	11689.5
923.045	11613.5
923.279	11551.5
923.513	11459.5
923.747	11491.5
923.981	11378.5
924.215	11233.5
924.449	11197.5
924.683	11134.5
924.917	11086.5
925.151	10990.5
925.385	10950.5
925.618	11004.5
925.852	10883.5
926.086	10800.5
926.319	10845.5
926.553	10788.5
926.786	10834.5
927.02	10777.5
927.253	10825.5
927.486	10758.5
927.72	10713.5
927.953	10723.5
928.186	10654.5
928.42	10622.5
928.653	10510.5
928.886	10466.5
929.119	10467.5
929.352	10420.5
929.585	10324.5
929.818	10239.5
930.051	10176.5
930.284	10071.5
930.516	9922.5
930.749	9895.5
930.982	9952.5
931.215	9835.5
931.447	9702.5
931.68	9732.5
931.912	9686.5
932.145	9666.5
932.377	9664.5
932.61	9800.5
932.842	9598.5
933.074	9712.5
933.307	9625.5
933.539	9708.5
933.771	9645.5
934.003	9539.5
934.236	9694.5
934.468	9720.5
934.7	9575.5
934.932	9578.5
935.164	9517.5
935.395	9462.5
935.627	9464.5
935.859	9334.5
936.091	9290.5
936.323	9316.5
936.554	9306.5
936.786	9272.5
937.017	9174.5
937.249	9113.5
937.481	9032.5
937.712	9175.5
937.943	8998.5
938.175	9085.5
938.406	8958.5
938.637	9061.5
938.869	8965.5
939.1	8973.5
939.331	8899.5
939.562	8882.5
939.793	8907.5
940.024	8824.5
940.255	8813.5
940.486	8752.5
940.717	8726.5
940.948	8647.5
941.179	8567.5
941.409	8579.5
941.64	8529.5
941.871	8582.5
942.102	8518.5
942.332	8562.5
942.563	8549.5
942.793	8537.5
943.024	8450.5
943.254	8532.5
943.484	8491.5
943.715	8559.5
943.945	8495.5
944.175	8392.5
944.405	8338.5
944.636	8417.5
944.866	8430.5
945.096	8413.5
945.326	8296.5
945.556	8380.5
945.786	8361.5
946.016	8200.5
946.245	8136.5
946.475	8052.5
946.705	8052.5
946.935	7921.5
947.164	7948.5
947.394	7914.5
947.624	7828.5
947.853	7900.5
948.083	7805.5
948.312	7819.5
948.542	7749.5
948.771	7647.5
949	7648.5
949.23	7676.5
949.459	7686.5
949.688	7689.5
949.917	7680.5
950.146	7624.5
950.375	7634.5
950.604	7532.5
950.833	7619.5
951.062	7598.5
951.291	7587.5
951.52	7479.5
951.749	7456.5
951.978	7409.5
952.206	7416.5
952.435	7431.5
952.664	7361.5
952.892	7344.5
953.121	7344.5
953.349	7298.5
953.578	7314.5
953.806	7180.5
954.035	7153.5
954.263	7195.5
954.491	7028.5
954.719	7141.5
954.948	7016.5
955.176	6994.5
955.404	6951.5
955.632	6932.5
955.86	6939.5
956.088	6868.5
956.316	6841.5
956.544	6845.5
956.772	6725.5
956.999	6746.5
957.227	6781.5
957.455	6699.5
957.683	6661.5
957.91	6595.5
958.138	6532.5
958.365	6525.5
958.593	6479.5
958.82	6495.5
959.048	6470.5
959.275	6385.5
959.502	6423.5
959.73	6317.5
959.957	6413.5
960.184	6375.5
960.411	6324.5
960.638	6352.5
960.865	6315.5
961.092	6299.5
961.319	6241.5
961.546	6318.5
961.773	6255.5
962	6272.5
962.227	6295.5
962.454	6173.5
962.68	6193.5
962.907	6185.5
963.134	6103.5
963.36	6039.5
963.587	6034.5
963.813	5987.5
964.04	5991.5
964.266	5851.5
964.493	5950.5
964.719	5853.5
964.945	5885.5
965.171	5740.5
965.398	5770.5
965.624	5724.5
965.85	5650.5
966.076	5666.5
966.302	5663.5
966.528	5552.5
966.754	5597.5
966.98	5579.5
967.206	5555.5
967.431	5494.5
967.657	5552.5
967.883	5550.5
968.109	5517.5
968.334	5458.5
968.56	5428.5
968.785	5405.5
969.011	5353.5
969.236	5389.5
969.462	5371.5
969.687	5360.5
969.912	5328.5
970.138	5384.5
970.363	5245.5
970.588	5261.5
970.813	5247.5
971.038	5182.5
971.263	5211.5
971.488	5242.5
971.713	5206.5
971.938	5180.5
972.163	5082.5
972.388	5053.5
972.613	5039.5
972.838	5056.5
973.062	5008.5
973.287	4968.5
973.512	4903.5
973.736	4916.5
973.961	4940.5
974.185	4842.5
974.41	4846.5
974.634	4750.5
974.858	4714.5
975.083	4740.5
975.307	4723.5
975.531	4632.5
975.755	4597.5
975.98	4633.5
976.204	4503.5
976.428	4493.5
976.652	4563.5
976.876	4494.5
977.1	4471.5
977.324	4461.5
977.547	4474.5
977.771	4469.5
977.995	4432.5
978.219	4388.5
978.442	4435.5
978.666	4427.5
978.89	4379.5
979.113	4372.5
979.337	4315.5
979.56	4297.5
979.783	4376.5
980.007	4250.5
980.23	4278.5
980.453	4170.5
980.677	4244.5
980.9	4212.5
981.123	4094.5
981.346	4158.5
981.569	4137.5
981.792	4119.5
982.015	4090.5
982.238	4033.5
982.461	4027.5
982.684	3995.5
982.907	3961.5
983.129	3908.5
983.352	3958.5
983.575	3897.5
983.797	3877.5
984.02	3857.5
984.242	3813.5
984.465	3809.5
984.687	3844.5
984.91	3800.5
985.132	3789.5
985.354	3761.5
985.577	3739.5
985.799	3736.5
986.021	3644.5
986.243	3669.5
986.465	3694.5
986.687	3666.5
986.909	3725.5
987.131	3645.5
987.353	3594.5
987.575	3617.5
987.797	3567.5
988.019	3518.5
988.241	3567.5
988.462	3515.5
988.684	3559.5
988.906	3569.5
989.127	3566.5
989.349	3472.5
989.57	3519.5
989.792	3418.5
990.013	3524.5
990.234	3487.5
990.456	3500.5
990.677	3484.5
990.898	3367.5
991.119	3362.5
991.341	3394.5
991.562	3328.5
991.783	3342.5
992.004	3250.5
992.225	3252.5
992.446	3298.5
992.667	3178.5
992.887	3269.5
993.108	3157.5
993.329	3243.5
993.55	3173.5
993.77	3094.5
993.991	3111.5
994.212	3144.5
994.432	3074.5
994.653	3084.5
994.873	3051.5
995.093	2934.5
995.314	2973.5
995.534	3030.5
995.754	3070.5
995.975	3052.5
996.195	2941.5
996.415	2950.5
996.635	2915.5
996.855	2917.5
997.075	2928.5
997.295	2887.5
997.515	2869.5
997.735	2939.5
997.955	2832.5
998.174	2863.5
998.394	2819.5
998.614	2879.5
998.834	2821.5
999.053	2894.5
999.273	2861.5
999.492	2855.5
999.712	2803.5
999.931	2752.5
1000.151	2788.5
1000.37	2765.5
1000.589	2816.5
1000.809	2710.5
1001.028	2820.5
1001.247	2749.5
1001.466	2602.5
1001.685	2767.5
1001.904	2669.5
1002.123	2651.5
1002.342	2698.5
1002.561	2609.5
1002.78	2626.5
1002.999	2676.5
1003.218	2597.5
1003.436	2525.5
1003.655	2603.5
1003.874	2540.5
1004.092	2529.5
1004.311	2586.5
1004.53	2509.5
1004.748	2583.5
1004.966	2508.5
1005.185	2570.5
1005.403	2512.5
1005.622	2499.5
1005.84	2563.5
1006.058	2449.5
1006.276	2468.5
1006.494	2961.5
1006.712	2430.5
1006.931	2502.5
1007.149	2425.5
1007.367	2438.5
1007.584	2474.5
1007.802	2468.5
1008.02	2418.5
1008.238	2479.5
1008.456	2479.5
1008.673	2330.5
1008.891	2408.5
1009.109	2350.5
1009.326	2380.5
1009.544	2495.5
1009.761	2359.5
1009.979	2446.5
1010.196	2457.5
1010.413	2526.5
1010.631	2524.5
1010.848	2586.5
1011.065	2563.5
1011.282	2479.5
1011.5	2451.5
1011.717	2550.5
1011.934	2469.5
1012.151	2506.5
1012.368	2502.5
1012.585	2432.5
1012.801	2466.5
1013.018	2433.5
1013.235	2361.5
1013.452	2423.5
1013.669	2432.5
1013.885	2386.5
1014.102	2422.5
1014.318	2364.5
1014.535	2337.5
1014.751	2344.5
1014.968	2348.5
1015.184	2382.5
1015.401	2278.5
1015.617	2312.5
1015.833	2237.5
1016.049	2240.5
1016.266	2183.5
1016.482	2229.5
1016.698	2136.5
1016.914	2175.5
1017.13	2160.5
1017.346	2145.5
1017.562	2193.5
1017.778	2123.5
1017.993	2114.5
1018.209	2175.5
1018.425	2133.5
1018.641	2090.5
1018.856	2067.5
1019.072	2116.5
1019.288	2164.5
1019.503	2112.5
1019.719	2018.5
1019.934	2017.5
1020.149	2072.5
1020.365	1995.5
1020.58	1972.5
1020.795	2029.5
1021.011	1942.5
1021.226	1929.5
1021.441	1938.5
1021.656	1818.5
1021.871	1802.5
1022.086	1771.5
1022.301	1779.5
1022.516	1745.5
1022.731	1801.5
1022.946	1703.5
1023.16	1693.5
1023.375	1618.5
1023.59	1647.5
1023.804	1593.5
1024.019	1648.5
1024.234	1549.5
1024.448	1554.5
1024.663	1520.5
1024.877	1516.5
1025.092	1532.5
1025.306	1505.5
1025.52	1388.5
1025.734	1495.5
1025.949	1378.5
1026.163	1330.5
1026.377	1277.5
1026.591	1308.5
1026.805	1240.5
1027.019	1195.5
1027.233	1191.5
1027.447	1140.5
1027.661	1217.5
1027.875	1163.5
1028.088	1140.5
1028.302	1081.5
1028.516	1049.5
1028.73	1025.5
1028.943	994.5
1029.157	961.5
1029.37	901.5
1029.584	-3.5
1029.797	-1.5
1030.011	-2.5
1030.224	-1.5
