Data from QEP037381__133__11-04-20-215.txt Node

Date: Fri Apr 28 11:04:20 EDT 2023
User: dcclab
Spectrometer: QEP03738
Trigger mode: 4
Integration Time (sec): 1.000000E1
Scans to average: 1
Electric dark correction enabled: true
Nonlinearity correction enabled: false
Boxcar width: 0
XAxis mode: Wavelengths
Number of Pixels in Spectrum: 1044
>>>>>Begin Spectral Data<<<<<
784.041	9.5
784.3	-3.5
784.558	-1.5
784.817	-1.5
785.075	70027.5
785.334	13851.5
785.592	7249.5
785.851	5092.5
786.109	3862.5
786.368	3049.5
786.626	2470.5
786.884	2078.5
787.143	1753.5
787.401	1426.5
787.659	1314.5
787.917	1120.5
788.175	1029.5
788.433	891.5
788.691	805.5
788.949	758.5
789.207	723.5
789.465	625.5
789.723	610.5
789.98	570.5
790.238	608.5
790.496	570.5
790.753	539.5
791.011	563.5
791.268	519.5
791.526	516.5
791.783	519.5
792.041	519.5
792.298	424.5
792.556	487.5
792.813	483.5
793.07	438.5
793.327	432.5
793.584	527.5
793.841	446.5
794.099	466.5
794.356	515.5
794.613	436.5
794.869	471.5
795.126	416.5
795.383	408.5
795.64	443.5
795.897	381.5
796.153	443.5
796.41	414.5
796.667	403.5
796.923	411.5
797.18	420.5
797.436	465.5
797.693	408.5
797.949	461.5
798.206	493.5
798.462	404.5
798.718	466.5
798.974	449.5
799.231	489.5
799.487	483.5
799.743	479.5
799.999	500.5
800.255	499.5
800.511	489.5
800.767	541.5
801.023	517.5
801.279	572.5
801.534	621.5
801.79	681.5
802.046	709.5
802.302	901.5
802.557	1050.5
802.813	1342.5
803.068	1739.5
803.324	2448.5
803.579	3415.5
803.835	4772.5
804.09	6351.5
804.345	8043.5
804.601	9810.5
804.856	11318.5
805.111	12494.5
805.366	13344.5
805.621	13895.5
805.876	14352.5
806.131	14721.5
806.386	14893.5
806.641	15135.5
806.896	15361.5
807.151	15692.5
807.406	15884.5
807.661	16138.5
807.915	16411.5
808.17	16720.5
808.425	16871.5
808.679	16993.5
808.934	17302.5
809.188	17500.5
809.443	17681.5
809.697	17951.5
809.951	17951.5
810.206	18199.5
810.46	18468.5
810.714	18643.5
810.968	18718.5
811.223	18769.5
811.477	19071.5
811.731	19339.5
811.985	19178.5
812.239	19300.5
812.493	19411.5
812.747	19441.5
813	19530.5
813.254	19701.5
813.508	19815.5
813.762	19964.5
814.015	19912.5
814.269	20204.5
814.522	20264.5
814.776	20440.5
815.03	20749.5
815.283	20985.5
815.536	21324.5
815.79	21723.5
816.043	21916.5
816.296	22271.5
816.55	22434.5
816.803	22802.5
817.056	23081.5
817.309	23185.5
817.562	23639.5
817.815	23831.5
818.068	24113.5
818.321	24443.5
818.574	24678.5
818.827	25127.5
819.079	25363.5
819.332	25955.5
819.585	26258.5
819.838	26671.5
820.09	26606.5
820.343	26894.5
820.595	27064.5
820.848	27290.5
821.1	27428.5
821.353	27334.5
821.605	27328.5
821.857	27326.5
822.11	27242.5
822.362	27152.5
822.614	27142.5
822.866	27212.5
823.118	27161.5
823.37	27321.5
823.622	27378.5
823.874	27599.5
824.126	27692.5
824.378	27670.5
824.63	27895.5
824.882	27785.5
825.134	27842.5
825.385	27790.5
825.637	27693.5
825.888	27612.5
826.14	27535.5
826.392	27503.5
826.643	27298.5
826.895	27322.5
827.146	27024.5
827.397	27099.5
827.649	27218.5
827.9	27187.5
828.151	27060.5
828.402	27337.5
828.653	27348.5
828.905	27466.5
829.156	27457.5
829.407	27470.5
829.658	27534.5
829.909	27706.5
830.159	27669.5
830.41	27474.5
830.661	27285.5
830.912	27055.5
831.162	27049.5
831.413	27048.5
831.664	27126.5
831.914	26999.5
832.165	27023.5
832.415	26930.5
832.666	27169.5
832.916	27082.5
833.167	26996.5
833.417	26932.5
833.667	26954.5
833.917	26835.5
834.168	26816.5
834.418	26781.5
834.668	26559.5
834.918	26505.5
835.168	26413.5
835.418	26152.5
835.668	26172.5
835.918	26182.5
836.167	26073.5
836.417	25968.5
836.667	25935.5
836.917	26149.5
837.166	26092.5
837.416	26145.5
837.666	26048.5
837.915	25996.5
838.165	25913.5
838.414	25842.5
838.663	25834.5
838.913	26016.5
839.162	25750.5
839.411	25761.5
839.661	25674.5
839.91	25757.5
840.159	25761.5
840.408	25743.5
840.657	25755.5
840.906	25744.5
841.155	25923.5
841.404	25837.5
841.653	25736.5
841.902	25716.5
842.15	25951.5
842.399	26010.5
842.648	25854.5
842.897	25825.5
843.145	25622.5
843.394	25462.5
843.642	25303.5
843.891	25285.5
844.139	24989.5
844.388	24882.5
844.636	24820.5
844.884	24797.5
845.133	24724.5
845.381	24838.5
845.629	24863.5
845.877	24844.5
846.125	24797.5
846.373	24697.5
846.621	24712.5
846.869	24716.5
847.117	24388.5
847.365	24343.5
847.613	24325.5
847.861	24245.5
848.108	24123.5
848.356	24141.5
848.604	24238.5
848.851	24200.5
849.099	24241.5
849.346	24333.5
849.594	24321.5
849.841	24521.5
850.089	24455.5
850.336	24558.5
850.583	24665.5
850.831	24498.5
851.078	24302.5
851.325	24365.5
851.572	24436.5
851.819	24118.5
852.066	23556.5
852.313	23203.5
852.56	23037.5
852.807	23076.5
853.054	22954.5
853.301	22882.5
853.548	23032.5
853.794	23176.5
854.041	23210.5
854.288	23281.5
854.534	23546.5
854.781	23491.5
855.028	23414.5
855.274	23487.5
855.52	23439.5
855.767	23452.5
856.013	23444.5
856.26	23759.5
856.506	23083.5
856.752	23018.5
856.998	23121.5
857.244	23210.5
857.49	23331.5
857.736	23357.5
857.982	23313.5
858.228	23210.5
858.474	22986.5
858.72	22798.5
858.966	22612.5
859.212	22335.5
859.458	22136.5
859.703	21946.5
859.949	21757.5
860.195	21663.5
860.44	21579.5
860.686	21526.5
860.931	21636.5
861.177	21288.5
861.422	21142.5
861.667	21044.5
861.913	21022.5
862.158	21013.5
862.403	21130.5
862.648	21202.5
862.893	21302.5
863.138	21186.5
863.384	21022.5
863.629	21046.5
863.873	21103.5
864.118	21019.5
864.363	20942.5
864.608	20768.5
864.853	20611.5
865.098	20587.5
865.342	20420.5
865.587	20345.5
865.832	20431.5
866.076	20365.5
866.321	20251.5
866.565	20290.5
866.81	20190.5
867.054	20162.5
867.298	20149.5
867.543	20136.5
867.787	20072.5
868.031	20032.5
868.275	20067.5
868.519	20139.5
868.764	20040.5
869.008	20031.5
869.252	20021.5
869.496	19968.5
869.739	19935.5
869.983	20095.5
870.227	20051.5
870.471	19990.5
870.715	20178.5
870.958	20268.5
871.202	20354.5
871.446	20238.5
871.689	20426.5
871.933	20193.5
872.176	20291.5
872.42	20270.5
872.663	20149.5
872.906	20141.5
873.15	20159.5
873.393	20218.5
873.636	20110.5
873.879	19962.5
874.122	19677.5
874.366	19323.5
874.609	19233.5
874.852	18925.5
875.095	18932.5
875.337	18869.5
875.58	18708.5
875.823	18631.5
876.066	18615.5
876.309	18582.5
876.551	18402.5
876.794	18402.5
877.037	18426.5
877.279	18211.5
877.522	18211.5
877.764	18307.5
878.007	18140.5
878.249	18168.5
878.491	17957.5
878.734	18092.5
878.976	18048.5
879.218	17849.5
879.46	17809.5
879.702	17685.5
879.945	17517.5
880.187	17365.5
880.429	17206.5
880.671	17133.5
880.912	17098.5
881.154	17005.5
881.396	16938.5
881.638	16903.5
881.88	16997.5
882.121	17025.5
882.363	16979.5
882.605	17019.5
882.846	17003.5
883.088	16947.5
883.329	17003.5
883.571	17152.5
883.812	17348.5
884.053	17860.5
884.295	18335.5
884.536	18583.5
884.777	18542.5
885.018	18306.5
885.259	18199.5
885.5	18013.5
885.742	18028.5
885.982	17774.5
886.223	17667.5
886.464	17490.5
886.705	17227.5
886.946	17111.5
887.187	16659.5
887.428	16444.5
887.668	16019.5
887.909	15801.5
888.15	15660.5
888.39	15547.5
888.631	15417.5
888.871	15353.5
889.111	15164.5
889.352	15065.5
889.592	14951.5
889.833	14738.5
890.073	14721.5
890.313	14720.5
890.553	14527.5
890.793	14411.5
891.033	14409.5
891.273	14255.5
891.513	14236.5
891.753	14244.5
891.993	14237.5
892.233	14224.5
892.473	14335.5
892.713	14337.5
892.952	14274.5
893.192	14297.5
893.432	14236.5
893.671	14199.5
893.911	14246.5
894.15	14145.5
894.39	13803.5
894.629	13895.5
894.869	13772.5
895.108	13733.5
895.347	13541.5
895.587	13604.5
895.826	13502.5
896.065	13575.5
896.304	13476.5
896.543	13667.5
896.782	13343.5
897.021	13357.5
897.26	13318.5
897.499	13444.5
897.738	13418.5
897.977	13323.5
898.216	13296.5
898.454	13140.5
898.693	13061.5
898.932	13000.5
899.17	12952.5
899.409	12884.5
899.647	12936.5
899.886	12917.5
900.124	12959.5
900.363	12909.5
900.601	13022.5
900.839	13104.5
901.078	13194.5
901.316	13201.5
901.554	13316.5
901.792	13394.5
902.03	13387.5
902.268	13277.5
902.506	13389.5
902.744	13232.5
902.982	13153.5
903.22	12862.5
903.458	12634.5
903.695	12450.5
903.933	12286.5
904.171	11989.5
904.409	11818.5
904.646	11741.5
904.884	11459.5
905.121	11511.5
905.359	11291.5
905.596	11150.5
905.833	11050.5
906.071	11039.5
906.308	11057.5
906.545	10950.5
906.783	10888.5
907.02	10943.5
907.257	10858.5
907.494	10895.5
907.731	10852.5
907.968	10827.5
908.205	10715.5
908.442	10645.5
908.679	10523.5
908.915	10503.5
909.152	10456.5
909.389	10298.5
909.626	10263.5
909.862	10169.5
910.099	10071.5
910.335	10106.5
910.572	10004.5
910.808	10019.5
911.045	10032.5
911.281	9886.5
911.518	9942.5
911.754	9801.5
911.99	9761.5
912.226	9766.5
912.463	9595.5
912.699	9553.5
912.935	9473.5
913.171	9439.5
913.407	9322.5
913.643	9305.5
913.879	9112.5
914.114	9205.5
914.35	9077.5
914.586	8926.5
914.822	8856.5
915.057	8959.5
915.293	8706.5
915.529	8682.5
915.764	8770.5
916	8748.5
916.235	8697.5
916.471	8645.5
916.706	8578.5
916.941	8640.5
917.177	8580.5
917.412	8638.5
917.647	8587.5
917.882	8540.5
918.117	8569.5
918.352	8512.5
918.588	8553.5
918.823	8417.5
919.057	8348.5
919.292	8162.5
919.527	8203.5
919.762	8011.5
919.997	8062.5
920.232	7893.5
920.466	7948.5
920.701	7741.5
920.935	7796.5
921.17	7723.5
921.405	7661.5
921.639	7647.5
921.873	7599.5
922.108	7561.5
922.342	7554.5
922.576	7453.5
922.811	7506.5
923.045	7520.5
923.279	7525.5
923.513	7288.5
923.747	7410.5
923.981	7308.5
924.215	7287.5
924.449	7282.5
924.683	7147.5
924.917	7134.5
925.151	7139.5
925.385	7144.5
925.618	7065.5
925.852	7062.5
926.086	7000.5
926.319	7065.5
926.553	7042.5
926.786	7019.5
927.02	7040.5
927.253	7012.5
927.486	6985.5
927.72	6909.5
927.953	6994.5
928.186	6881.5
928.42	6918.5
928.653	6773.5
928.886	6791.5
929.119	6850.5
929.352	6778.5
929.585	6728.5
929.818	6688.5
930.051	6624.5
930.284	6563.5
930.516	6479.5
930.749	6429.5
930.982	6435.5
931.215	6405.5
931.447	6339.5
931.68	6372.5
931.912	6301.5
932.145	6312.5
932.377	6299.5
932.61	6452.5
932.842	6281.5
933.074	6321.5
933.307	6289.5
933.539	6330.5
933.771	6368.5
934.003	6280.5
934.236	6369.5
934.468	6351.5
934.7	6210.5
934.932	6273.5
935.164	6201.5
935.395	6179.5
935.627	6224.5
935.859	6207.5
936.091	6104.5
936.323	6143.5
936.554	6173.5
936.786	6068.5
937.017	5987.5
937.249	6033.5
937.481	5934.5
937.712	5975.5
937.943	5999.5
938.175	5929.5
938.406	5944.5
938.637	6047.5
938.869	5862.5
939.1	5946.5
939.331	5900.5
939.562	5888.5
939.793	5909.5
940.024	5882.5
940.255	5829.5
940.486	5779.5
940.717	5754.5
940.948	5805.5
941.179	5652.5
941.409	5712.5
941.64	5698.5
941.871	5673.5
942.102	5639.5
942.332	5651.5
942.563	5717.5
942.793	5688.5
943.024	5623.5
943.254	5622.5
943.484	5748.5
943.715	5672.5
943.945	5641.5
944.175	5575.5
944.405	5596.5
944.636	5537.5
944.866	5604.5
945.096	5615.5
945.326	5493.5
945.556	5576.5
945.786	5556.5
946.016	5467.5
946.245	5420.5
946.475	5328.5
946.705	5378.5
946.935	5352.5
947.164	5283.5
947.394	5271.5
947.624	5229.5
947.853	5282.5
948.083	5256.5
948.312	5164.5
948.542	5196.5
948.771	5147.5
949	5184.5
949.23	5135.5
949.459	5139.5
949.688	5144.5
949.917	5133.5
950.146	5132.5
950.375	5164.5
950.604	5096.5
950.833	5168.5
951.062	5167.5
951.291	5083.5
951.52	5046.5
951.749	5038.5
951.978	4987.5
952.206	4968.5
952.435	4958.5
952.664	5024.5
952.892	5035.5
953.121	4957.5
953.349	4956.5
953.578	4967.5
953.806	4859.5
954.035	4868.5
954.263	4832.5
954.491	4756.5
954.719	4850.5
954.948	4780.5
955.176	4699.5
955.404	4653.5
955.632	4752.5
955.86	4705.5
956.088	4646.5
956.316	4721.5
956.544	4695.5
956.772	4600.5
956.999	4592.5
957.227	4631.5
957.455	4526.5
957.683	4546.5
957.91	4507.5
958.138	4460.5
958.365	4434.5
958.593	4440.5
958.82	4376.5
959.048	4426.5
959.275	4388.5
959.502	4350.5
959.73	4370.5
959.957	4328.5
960.184	4404.5
960.411	4318.5
960.638	4402.5
960.865	4357.5
961.092	4327.5
961.319	4240.5
961.546	4361.5
961.773	4354.5
962	4274.5
962.227	4282.5
962.454	4256.5
962.68	4265.5
962.907	4235.5
963.134	4166.5
963.36	4167.5
963.587	4193.5
963.813	4063.5
964.04	4133.5
964.266	4043.5
964.493	4086.5
964.719	4043.5
964.945	4052.5
965.171	3926.5
965.398	4008.5
965.624	4005.5
965.85	3860.5
966.076	3903.5
966.302	3937.5
966.528	3892.5
966.754	3863.5
966.98	3875.5
967.206	3896.5
967.431	3747.5
967.657	3872.5
967.883	3861.5
968.109	3822.5
968.334	3789.5
968.56	3797.5
968.785	3770.5
969.011	3715.5
969.236	3742.5
969.462	3697.5
969.687	3698.5
969.912	3732.5
970.138	3736.5
970.363	3663.5
970.588	3683.5
970.813	3653.5
971.038	3616.5
971.263	3663.5
971.488	3663.5
971.713	3665.5
971.938	3630.5
972.163	3498.5
972.388	3540.5
972.613	3497.5
972.838	3480.5
973.062	3499.5
973.287	3482.5
973.512	3445.5
973.736	3456.5
973.961	3434.5
974.185	3376.5
974.41	3392.5
974.634	3308.5
974.858	3317.5
975.083	3335.5
975.307	3348.5
975.531	3289.5
975.755	3208.5
975.98	3247.5
976.204	3113.5
976.428	3143.5
976.652	3178.5
976.876	3162.5
977.1	3141.5
977.324	3174.5
977.547	3136.5
977.771	3166.5
977.995	3143.5
978.219	3057.5
978.442	3161.5
978.666	3110.5
978.89	3091.5
979.113	3109.5
979.337	3102.5
979.56	3050.5
979.783	3105.5
980.007	3021.5
980.23	3010.5
980.453	3036.5
980.677	3032.5
980.9	2979.5
981.123	2910.5
981.346	2975.5
981.569	2912.5
981.792	2972.5
982.015	2895.5
982.238	2903.5
982.461	2907.5
982.684	2874.5
982.907	2822.5
983.129	2817.5
983.352	2840.5
983.575	2808.5
983.797	2820.5
984.02	2769.5
984.242	2787.5
984.465	2786.5
984.687	2783.5
984.91	2808.5
985.132	2764.5
985.354	2779.5
985.577	2751.5
985.799	2735.5
986.021	2609.5
986.243	2682.5
986.465	2667.5
986.687	2712.5
986.909	2726.5
987.131	2666.5
987.353	2664.5
987.575	2655.5
987.797	2649.5
988.019	2566.5
988.241	2598.5
988.462	2576.5
988.684	2619.5
988.906	2658.5
989.127	2669.5
989.349	2528.5
989.57	2535.5
989.792	2609.5
990.013	2597.5
990.234	2578.5
990.456	2624.5
990.677	2626.5
990.898	2524.5
991.119	2518.5
991.341	2556.5
991.562	2489.5
991.783	2478.5
992.004	2447.5
992.225	2390.5
992.446	2462.5
992.667	2361.5
992.887	2460.5
993.108	2341.5
993.329	2468.5
993.55	2382.5
993.77	2322.5
993.991	2308.5
994.212	2367.5
994.432	2326.5
994.653	2344.5
994.873	2326.5
995.093	2204.5
995.314	2285.5
995.534	2298.5
995.754	2327.5
995.975	2374.5
996.195	2235.5
996.415	2300.5
996.635	2249.5
996.855	2293.5
997.075	2237.5
997.295	2249.5
997.515	2241.5
997.735	2299.5
997.955	2222.5
998.174	2257.5
998.394	2208.5
998.614	2289.5
998.834	2226.5
999.053	2272.5
999.273	2245.5
999.492	2259.5
999.712	2178.5
999.931	2174.5
1000.151	2166.5
1000.37	2161.5
1000.589	2257.5
1000.809	2114.5
1001.028	2231.5
1001.247	2167.5
1001.466	2061.5
1001.685	2186.5
1001.904	2117.5
1002.123	2097.5
1002.342	2118.5
1002.561	2019.5
1002.78	2066.5
1002.999	2154.5
1003.218	2082.5
1003.436	2031.5
1003.655	2085.5
1003.874	2023.5
1004.092	2024.5
1004.311	2041.5
1004.53	2031.5
1004.748	2108.5
1004.966	2001.5
1005.185	2055.5
1005.403	2048.5
1005.622	2001.5
1005.84	2112.5
1006.058	1999.5
1006.276	1992.5
1006.494	2398.5
1006.712	1974.5
1006.931	2079.5
1007.149	1992.5
1007.367	2017.5
1007.584	2061.5
1007.802	2081.5
1008.02	2046.5
1008.238	2161.5
1008.456	2169.5
1008.673	2048.5
1008.891	2196.5
1009.109	2156.5
1009.326	2245.5
1009.544	2353.5
1009.761	2280.5
1009.979	2410.5
1010.196	2508.5
1010.413	2597.5
1010.631	2764.5
1010.848	2816.5
1011.065	2811.5
1011.282	2826.5
1011.5	2703.5
1011.717	2803.5
1011.934	2741.5
1012.151	2744.5
1012.368	2705.5
1012.585	2682.5
1012.801	2735.5
1013.018	2771.5
1013.235	2682.5
1013.452	2743.5
1013.669	2759.5
1013.885	2758.5
1014.102	2801.5
1014.318	2768.5
1014.535	2761.5
1014.751	2765.5
1014.968	2745.5
1015.184	2756.5
1015.401	2628.5
1015.617	2640.5
1015.833	2594.5
1016.049	2562.5
1016.266	2517.5
1016.482	2510.5
1016.698	2426.5
1016.914	2490.5
1017.13	2433.5
1017.346	2418.5
1017.562	2457.5
1017.778	2379.5
1017.993	2351.5
1018.209	2433.5
1018.425	2402.5
1018.641	2334.5
1018.856	2325.5
1019.072	2346.5
1019.288	2376.5
1019.503	2329.5
1019.719	2230.5
1019.934	2255.5
1020.149	2312.5
1020.365	2235.5
1020.58	2128.5
1020.795	2159.5
1021.011	2111.5
1021.226	2032.5
1021.441	2020.5
1021.656	1920.5
1021.871	1854.5
1022.086	1848.5
1022.301	1795.5
1022.516	1777.5
1022.731	1821.5
1022.946	1724.5
1023.16	1687.5
1023.375	1628.5
1023.59	1640.5
1023.804	1552.5
1024.019	1629.5
1024.234	1486.5
1024.448	1505.5
1024.663	1422.5
1024.877	1436.5
1025.092	1424.5
1025.306	1424.5
1025.52	1304.5
1025.734	1365.5
1025.949	1282.5
1026.163	1250.5
1026.377	1177.5
1026.591	1212.5
1026.805	1136.5
1027.019	1121.5
1027.233	1083.5
1027.447	1049.5
1027.661	1123.5
1027.875	1073.5
1028.088	1046.5
1028.302	962.5
1028.516	951.5
1028.73	946.5
1028.943	932.5
1029.157	867.5
1029.37	795.5
1029.584	-0.5
1029.797	-3.5
1030.011	-1.5
1030.224	2.5
