Data from QEP037381__134__11-04-30-214.txt Node

Date: Fri Apr 28 11:04:30 EDT 2023
User: dcclab
Spectrometer: QEP03738
Trigger mode: 4
Integration Time (sec): 1.000000E1
Scans to average: 1
Electric dark correction enabled: true
Nonlinearity correction enabled: false
Boxcar width: 0
XAxis mode: Wavelengths
Number of Pixels in Spectrum: 1044
>>>>>Begin Spectral Data<<<<<
784.041	13.5
784.3	-0.5
784.558	-4.5
784.817	-1.5
785.075	70731.5
785.334	14082.5
785.592	7418.5
785.851	5162.5
786.109	3952.5
786.368	3084.5
786.626	2520.5
786.884	2074.5
787.143	1776.5
787.401	1457.5
787.659	1314.5
787.917	1133.5
788.175	1033.5
788.433	907.5
788.691	826.5
788.949	766.5
789.207	731.5
789.465	625.5
789.723	616.5
789.98	553.5
790.238	602.5
790.496	560.5
790.753	535.5
791.011	573.5
791.268	529.5
791.526	510.5
791.783	531.5
792.041	516.5
792.298	404.5
792.556	488.5
792.813	470.5
793.07	444.5
793.327	423.5
793.584	519.5
793.841	440.5
794.099	464.5
794.356	498.5
794.613	401.5
794.869	465.5
795.126	422.5
795.383	403.5
795.64	425.5
795.897	381.5
796.153	431.5
796.41	426.5
796.667	406.5
796.923	411.5
797.18	424.5
797.436	447.5
797.693	405.5
797.949	459.5
798.206	493.5
798.462	396.5
798.718	452.5
798.974	436.5
799.231	469.5
799.487	462.5
799.743	461.5
799.999	495.5
800.255	494.5
800.511	484.5
800.767	521.5
801.023	520.5
801.279	542.5
801.534	586.5
801.79	631.5
802.046	667.5
802.302	818.5
802.557	945.5
802.813	1210.5
803.068	1528.5
803.324	2133.5
803.579	2953.5
803.835	4064.5
804.09	5460.5
804.345	6938.5
804.601	8293.5
804.856	9572.5
805.111	10613.5
805.366	11371.5
805.621	11738.5
805.876	12168.5
806.131	12500.5
806.386	12598.5
806.641	12943.5
806.896	13021.5
807.151	13296.5
807.406	13395.5
807.661	13725.5
807.915	13878.5
808.17	14147.5
808.425	14387.5
808.679	14502.5
808.934	14758.5
809.188	14811.5
809.443	14972.5
809.697	15212.5
809.951	15253.5
810.206	15415.5
810.46	15611.5
810.714	15657.5
810.968	15841.5
811.223	15983.5
811.477	16006.5
811.731	16156.5
811.985	16222.5
812.239	16268.5
812.493	16397.5
812.747	16500.5
813	16478.5
813.254	16538.5
813.508	16656.5
813.762	16742.5
814.015	16704.5
814.269	16854.5
814.522	17057.5
814.776	17204.5
815.03	17359.5
815.283	17670.5
815.536	17931.5
815.79	18142.5
816.043	18404.5
816.296	18528.5
816.55	18809.5
816.803	19071.5
817.056	19429.5
817.309	19547.5
817.562	19753.5
817.815	19995.5
818.068	20127.5
818.321	20427.5
818.574	20573.5
818.827	20970.5
819.079	21113.5
819.332	21687.5
819.585	21711.5
819.838	22175.5
820.09	22124.5
820.343	22343.5
820.595	22397.5
820.848	22619.5
821.1	22709.5
821.353	22693.5
821.605	22590.5
821.857	22673.5
822.11	22463.5
822.362	22504.5
822.614	22447.5
822.866	22490.5
823.118	22493.5
823.37	22664.5
823.622	22687.5
823.874	22700.5
824.126	22930.5
824.378	22947.5
824.63	22886.5
824.882	23051.5
825.134	22998.5
825.385	22912.5
825.637	22829.5
825.888	22745.5
826.14	22663.5
826.392	22678.5
826.643	22605.5
826.895	22457.5
827.146	22379.5
827.397	22261.5
827.649	22407.5
827.9	22320.5
828.151	22350.5
828.402	22385.5
828.653	22376.5
828.905	22489.5
829.156	22579.5
829.407	22577.5
829.658	22671.5
829.909	22876.5
830.159	22877.5
830.41	22661.5
830.661	22420.5
830.912	22394.5
831.162	22306.5
831.413	22237.5
831.664	22259.5
831.914	22207.5
832.165	22187.5
832.415	22203.5
832.666	22158.5
832.916	22160.5
833.167	22147.5
833.417	22221.5
833.667	22077.5
833.917	21959.5
834.168	22125.5
834.418	22027.5
834.668	21868.5
834.918	21792.5
835.168	21593.5
835.418	21586.5
835.668	21477.5
835.918	21455.5
836.167	21374.5
836.417	21337.5
836.667	21376.5
836.917	21271.5
837.166	21216.5
837.416	21445.5
837.666	21359.5
837.915	21264.5
838.165	21250.5
838.414	21087.5
838.663	21189.5
838.913	21196.5
839.162	21122.5
839.411	21187.5
839.661	21033.5
839.91	21127.5
840.159	21024.5
840.408	21097.5
840.657	21147.5
840.906	21168.5
841.155	21069.5
841.404	21011.5
841.653	21168.5
841.902	21135.5
842.15	21228.5
842.399	21299.5
842.648	21182.5
842.897	21195.5
843.145	21021.5
843.394	20790.5
843.642	20609.5
843.891	20670.5
844.139	20433.5
844.388	20269.5
844.636	20174.5
844.884	20160.5
845.133	20257.5
845.381	20176.5
845.629	20246.5
845.877	20229.5
846.125	20249.5
846.373	20192.5
846.621	20081.5
846.869	20072.5
847.117	19935.5
847.365	19866.5
847.613	19825.5
847.861	19815.5
848.108	19772.5
848.356	19838.5
848.604	19625.5
848.851	19804.5
849.099	19790.5
849.346	19801.5
849.594	19907.5
849.841	19879.5
850.089	20045.5
850.336	19939.5
850.583	19990.5
850.831	19929.5
851.078	19907.5
851.325	19651.5
851.572	19843.5
851.819	19645.5
852.066	19132.5
852.313	18945.5
852.56	18771.5
852.807	18650.5
853.054	18671.5
853.301	18728.5
853.548	18698.5
853.794	18842.5
854.041	18892.5
854.288	18926.5
854.534	19117.5
854.781	19050.5
855.028	19045.5
855.274	19097.5
855.52	19020.5
855.767	18950.5
856.013	19091.5
856.26	19262.5
856.506	18827.5
856.752	18740.5
856.998	18657.5
857.244	18784.5
857.49	18853.5
857.736	18924.5
857.982	18912.5
858.228	18821.5
858.474	18553.5
858.72	18473.5
858.966	18263.5
859.212	18158.5
859.458	17887.5
859.703	17697.5
859.949	17504.5
860.195	17511.5
860.44	17477.5
860.686	17439.5
860.931	17413.5
861.177	17232.5
861.422	17128.5
861.667	17029.5
861.913	16851.5
862.158	17100.5
862.403	17041.5
862.648	17085.5
862.893	17082.5
863.138	17125.5
863.384	16978.5
863.629	17056.5
863.873	16991.5
864.118	16955.5
864.363	16786.5
864.608	16752.5
864.853	16641.5
865.098	16480.5
865.342	16493.5
865.587	16401.5
865.832	16400.5
866.076	16388.5
866.321	16340.5
866.565	16363.5
866.81	16396.5
867.054	16234.5
867.298	16219.5
867.543	16063.5
867.787	16143.5
868.031	16112.5
868.275	16086.5
868.519	16197.5
868.764	16073.5
869.008	16131.5
869.252	16183.5
869.496	16155.5
869.739	16054.5
869.983	16232.5
870.227	16213.5
870.471	16176.5
870.715	16282.5
870.958	16357.5
871.202	16389.5
871.446	16381.5
871.689	16409.5
871.933	16371.5
872.176	16342.5
872.42	16262.5
872.663	16205.5
872.906	16249.5
873.15	16363.5
873.393	16311.5
873.636	16369.5
873.879	16149.5
874.122	15851.5
874.366	15518.5
874.609	15399.5
874.852	15381.5
875.095	15227.5
875.337	15082.5
875.58	15015.5
875.823	15022.5
876.066	15054.5
876.309	14940.5
876.551	14790.5
876.794	14762.5
877.037	14775.5
877.279	14690.5
877.522	14555.5
877.764	14663.5
878.007	14540.5
878.249	14602.5
878.491	14458.5
878.734	14544.5
878.976	14345.5
879.218	14268.5
879.46	14231.5
879.702	14095.5
879.945	13995.5
880.187	13853.5
880.429	13748.5
880.671	13666.5
880.912	13655.5
881.154	13580.5
881.396	13514.5
881.638	13505.5
881.88	13598.5
882.121	13547.5
882.363	13581.5
882.605	13569.5
882.846	13650.5
883.088	13547.5
883.329	13728.5
883.571	13759.5
883.812	14045.5
884.053	14446.5
884.295	14825.5
884.536	15122.5
884.777	14995.5
885.018	14797.5
885.259	14788.5
885.5	14673.5
885.742	14617.5
885.982	14436.5
886.223	14286.5
886.464	14197.5
886.705	13927.5
886.946	13746.5
887.187	13371.5
887.428	13201.5
887.668	12865.5
887.909	12608.5
888.15	12444.5
888.39	12366.5
888.631	12329.5
888.871	12183.5
889.111	12080.5
889.352	11996.5
889.592	11895.5
889.833	11773.5
890.073	11603.5
890.313	11674.5
890.553	11443.5
890.793	11443.5
891.033	11436.5
891.273	11381.5
891.513	11297.5
891.753	11399.5
891.993	11260.5
892.233	11258.5
892.473	11392.5
892.713	11354.5
892.952	11306.5
893.192	11354.5
893.432	11279.5
893.671	11292.5
893.911	11181.5
894.15	11214.5
894.39	11061.5
894.629	11021.5
894.869	10958.5
895.108	10824.5
895.347	10734.5
895.587	10844.5
895.826	10784.5
896.065	10749.5
896.304	10748.5
896.543	10717.5
896.782	10595.5
897.021	10698.5
897.26	10643.5
897.499	10740.5
897.738	10590.5
897.977	10512.5
898.216	10545.5
898.454	10387.5
898.693	10349.5
898.932	10362.5
899.17	10336.5
899.409	10312.5
899.647	10315.5
899.886	10197.5
900.124	10307.5
900.363	10345.5
900.601	10396.5
900.839	10512.5
901.078	10521.5
901.316	10627.5
901.554	10594.5
901.792	10785.5
902.03	10693.5
902.268	10712.5
902.506	10692.5
902.744	10551.5
902.982	10459.5
903.22	10275.5
903.458	10074.5
903.695	9932.5
903.933	9744.5
904.171	9488.5
904.409	9380.5
904.646	9325.5
904.884	9134.5
905.121	9002.5
905.359	9006.5
905.596	8856.5
905.833	8809.5
906.071	8792.5
906.308	8644.5
906.545	8712.5
906.783	8572.5
907.02	8674.5
907.257	8618.5
907.494	8575.5
907.731	8520.5
907.968	8553.5
908.205	8396.5
908.442	8436.5
908.679	8350.5
908.915	8313.5
909.152	8282.5
909.389	8124.5
909.626	8062.5
909.862	8010.5
910.099	7976.5
910.335	8037.5
910.572	7811.5
910.808	7902.5
911.045	7847.5
911.281	7798.5
911.518	7831.5
911.754	7744.5
911.99	7752.5
912.226	7684.5
912.463	7588.5
912.699	7548.5
912.935	7435.5
913.171	7381.5
913.407	7340.5
913.643	7332.5
913.879	7305.5
914.114	7212.5
914.35	7095.5
914.586	7033.5
914.822	7060.5
915.057	6974.5
915.293	6856.5
915.529	6865.5
915.764	6913.5
916	6874.5
916.235	6862.5
916.471	6828.5
916.706	6774.5
916.941	6815.5
917.177	6779.5
917.412	6841.5
917.647	6765.5
917.882	6694.5
918.117	6767.5
918.352	6721.5
918.588	6715.5
918.823	6659.5
919.057	6568.5
919.292	6406.5
919.527	6446.5
919.762	6346.5
919.997	6366.5
920.232	6287.5
920.466	6189.5
920.701	6095.5
920.935	6133.5
921.17	6096.5
921.405	5983.5
921.639	6065.5
921.873	6039.5
922.108	5925.5
922.342	6010.5
922.576	5904.5
922.811	5919.5
923.045	5933.5
923.279	5940.5
923.513	5801.5
923.747	5897.5
923.981	5853.5
924.215	5763.5
924.449	5717.5
924.683	5666.5
924.917	5657.5
925.151	5605.5
925.385	5737.5
925.618	5584.5
925.852	5682.5
926.086	5537.5
926.319	5599.5
926.553	5493.5
926.786	5550.5
927.02	5572.5
927.253	5558.5
927.486	5578.5
927.72	5464.5
927.953	5519.5
928.186	5481.5
928.42	5463.5
928.653	5370.5
928.886	5389.5
929.119	5372.5
929.352	5329.5
929.585	5358.5
929.818	5266.5
930.051	5226.5
930.284	5232.5
930.516	5089.5
930.749	5099.5
930.982	5126.5
931.215	5051.5
931.447	5026.5
931.68	5016.5
931.912	5025.5
932.145	5017.5
932.377	5022.5
932.61	5159.5
932.842	4951.5
933.074	5015.5
933.307	4914.5
933.539	5018.5
933.771	5072.5
934.003	4983.5
934.236	5032.5
934.468	4971.5
934.7	4964.5
934.932	4990.5
935.164	4891.5
935.395	4901.5
935.627	4905.5
935.859	4887.5
936.091	4849.5
936.323	4842.5
936.554	4911.5
936.786	4809.5
937.017	4761.5
937.249	4791.5
937.481	4687.5
937.712	4796.5
937.943	4758.5
938.175	4717.5
938.406	4739.5
938.637	4734.5
938.869	4673.5
939.1	4750.5
939.331	4662.5
939.562	4660.5
939.793	4645.5
940.024	4666.5
940.255	4651.5
940.486	4576.5
940.717	4560.5
940.948	4527.5
941.179	4516.5
941.409	4512.5
941.64	4559.5
941.871	4544.5
942.102	4486.5
942.332	4501.5
942.563	4544.5
942.793	4523.5
943.024	4433.5
943.254	4482.5
943.484	4559.5
943.715	4502.5
943.945	4484.5
944.175	4448.5
944.405	4391.5
944.636	4425.5
944.866	4447.5
945.096	4426.5
945.326	4341.5
945.556	4424.5
945.786	4417.5
946.016	4349.5
946.245	4288.5
946.475	4287.5
946.705	4274.5
946.935	4233.5
947.164	4263.5
947.394	4202.5
947.624	4210.5
947.853	4210.5
948.083	4172.5
948.312	4128.5
948.542	4094.5
948.771	4055.5
949	4087.5
949.23	4067.5
949.459	4062.5
949.688	4140.5
949.917	4076.5
950.146	4038.5
950.375	4089.5
950.604	4072.5
950.833	4104.5
951.062	4063.5
951.291	4031.5
951.52	3983.5
951.749	3973.5
951.978	4002.5
952.206	3967.5
952.435	3947.5
952.664	3980.5
952.892	3991.5
953.121	3925.5
953.349	3956.5
953.578	3963.5
953.806	3946.5
954.035	3906.5
954.263	3865.5
954.491	3787.5
954.719	3826.5
954.948	3773.5
955.176	3766.5
955.404	3643.5
955.632	3728.5
955.86	3738.5
956.088	3718.5
956.316	3712.5
956.544	3758.5
956.772	3657.5
956.999	3629.5
957.227	3669.5
957.455	3610.5
957.683	3599.5
957.91	3555.5
958.138	3518.5
958.365	3550.5
958.593	3518.5
958.82	3464.5
959.048	3555.5
959.275	3488.5
959.502	3500.5
959.73	3449.5
959.957	3507.5
960.184	3512.5
960.411	3438.5
960.638	3522.5
960.865	3489.5
961.092	3486.5
961.319	3381.5
961.546	3444.5
961.773	3443.5
962	3436.5
962.227	3457.5
962.454	3421.5
962.68	3370.5
962.907	3385.5
963.134	3355.5
963.36	3335.5
963.587	3367.5
963.813	3276.5
964.04	3293.5
964.266	3227.5
964.493	3326.5
964.719	3284.5
964.945	3284.5
965.171	3183.5
965.398	3212.5
965.624	3240.5
965.85	3157.5
966.076	3167.5
966.302	3149.5
966.528	3117.5
966.754	3148.5
966.98	3164.5
967.206	3127.5
967.431	3060.5
967.657	3161.5
967.883	3094.5
968.109	3096.5
968.334	3039.5
968.56	3038.5
968.785	3052.5
969.011	2991.5
969.236	3010.5
969.462	2963.5
969.687	2997.5
969.912	3040.5
970.138	3018.5
970.363	2962.5
970.588	2981.5
970.813	2935.5
971.038	2922.5
971.263	2941.5
971.488	2928.5
971.713	2987.5
971.938	2935.5
972.163	2830.5
972.388	2859.5
972.613	2798.5
972.838	2866.5
973.062	2801.5
973.287	2786.5
973.512	2724.5
973.736	2802.5
973.961	2777.5
974.185	2735.5
974.41	2794.5
974.634	2676.5
974.858	2650.5
975.083	2720.5
975.307	2719.5
975.531	2653.5
975.755	2585.5
975.98	2640.5
976.204	2574.5
976.428	2579.5
976.652	2569.5
976.876	2493.5
977.1	2593.5
977.324	2518.5
977.547	2580.5
977.771	2591.5
977.995	2549.5
978.219	2486.5
978.442	2620.5
978.666	2533.5
978.89	2493.5
979.113	2496.5
979.337	2506.5
979.56	2438.5
979.783	2508.5
980.007	2412.5
980.23	2493.5
980.453	2389.5
980.677	2448.5
980.9	2444.5
981.123	2370.5
981.346	2444.5
981.569	2409.5
981.792	2409.5
982.015	2420.5
982.238	2322.5
982.461	2320.5
982.684	2357.5
982.907	2281.5
983.129	2288.5
983.352	2348.5
983.575	2295.5
983.797	2288.5
984.02	2228.5
984.242	2266.5
984.465	2273.5
984.687	2274.5
984.91	2302.5
985.132	2281.5
985.354	2256.5
985.577	2236.5
985.799	2266.5
986.021	2154.5
986.243	2190.5
986.465	2167.5
986.687	2246.5
986.909	2263.5
987.131	2209.5
987.353	2157.5
987.575	2200.5
987.797	2190.5
988.019	2075.5
988.241	2132.5
988.462	2090.5
988.684	2144.5
988.906	2208.5
989.127	2191.5
989.349	2095.5
989.57	2112.5
989.792	2148.5
990.013	2155.5
990.234	2159.5
990.456	2168.5
990.677	2137.5
990.898	2081.5
991.119	2055.5
991.341	2105.5
991.562	2020.5
991.783	2072.5
992.004	2011.5
992.225	2003.5
992.446	2046.5
992.667	1931.5
992.887	2011.5
993.108	1913.5
993.329	2058.5
993.55	1971.5
993.77	1915.5
993.991	1919.5
994.212	1981.5
994.432	1970.5
994.653	1961.5
994.873	1932.5
995.093	1838.5
995.314	1851.5
995.534	1928.5
995.754	1956.5
995.975	1957.5
996.195	1869.5
996.415	1928.5
996.635	1896.5
996.855	1940.5
997.075	1888.5
997.295	1917.5
997.515	1874.5
997.735	1959.5
997.955	1884.5
998.174	1875.5
998.394	1873.5
998.614	1881.5
998.834	1851.5
999.053	1911.5
999.273	1885.5
999.492	1922.5
999.712	1843.5
999.931	1813.5
1000.151	1875.5
1000.37	1807.5
1000.589	1856.5
1000.809	1795.5
1001.028	1887.5
1001.247	1808.5
1001.466	1711.5
1001.685	1851.5
1001.904	1818.5
1002.123	1793.5
1002.342	1800.5
1002.561	1717.5
1002.78	1750.5
1002.999	1851.5
1003.218	1780.5
1003.436	1749.5
1003.655	1777.5
1003.874	1705.5
1004.092	1740.5
1004.311	1788.5
1004.53	1718.5
1004.748	1808.5
1004.966	1717.5
1005.185	1787.5
1005.403	1769.5
1005.622	1756.5
1005.84	1826.5
1006.058	1724.5
1006.276	1738.5
1006.494	2132.5
1006.712	1732.5
1006.931	1753.5
1007.149	1727.5
1007.367	1739.5
1007.584	1772.5
1007.802	1822.5
1008.02	1805.5
1008.238	1878.5
1008.456	1876.5
1008.673	1779.5
1008.891	1893.5
1009.109	1884.5
1009.326	1923.5
1009.544	2083.5
1009.761	2025.5
1009.979	2133.5
1010.196	2186.5
1010.413	2327.5
1010.631	2440.5
1010.848	2461.5
1011.065	2518.5
1011.282	2455.5
1011.5	2374.5
1011.717	2509.5
1011.934	2431.5
1012.151	2446.5
1012.368	2432.5
1012.585	2357.5
1012.801	2444.5
1013.018	2416.5
1013.235	2392.5
1013.452	2404.5
1013.669	2426.5
1013.885	2405.5
1014.102	2499.5
1014.318	2467.5
1014.535	2417.5
1014.751	2425.5
1014.968	2412.5
1015.184	2410.5
1015.401	2322.5
1015.617	2346.5
1015.833	2257.5
1016.049	2277.5
1016.266	2262.5
1016.482	2242.5
1016.698	2190.5
1016.914	2191.5
1017.13	2143.5
1017.346	2111.5
1017.562	2195.5
1017.778	2110.5
1017.993	2073.5
1018.209	2155.5
1018.425	2124.5
1018.641	2066.5
1018.856	2042.5
1019.072	2092.5
1019.288	2125.5
1019.503	2089.5
1019.719	1989.5
1019.934	1993.5
1020.149	2067.5
1020.365	1991.5
1020.58	1940.5
1020.795	1937.5
1021.011	1838.5
1021.226	1856.5
1021.441	1809.5
1021.656	1678.5
1021.871	1598.5
1022.086	1617.5
1022.301	1616.5
1022.516	1583.5
1022.731	1598.5
1022.946	1527.5
1023.16	1507.5
1023.375	1484.5
1023.59	1457.5
1023.804	1390.5
1024.019	1486.5
1024.234	1338.5
1024.448	1361.5
1024.663	1270.5
1024.877	1275.5
1025.092	1270.5
1025.306	1264.5
1025.52	1163.5
1025.734	1232.5
1025.949	1161.5
1026.163	1103.5
1026.377	1054.5
1026.591	1097.5
1026.805	1017.5
1027.019	995.5
1027.233	962.5
1027.447	940.5
1027.661	1022.5
1027.875	938.5
1028.088	954.5
1028.302	865.5
1028.516	857.5
1028.73	840.5
1028.943	799.5
1029.157	780.5
1029.37	715.5
1029.584	-1.5
1029.797	-3.5
1030.011	-1.5
1030.224	-0.5
