Data from QEP037381__1__14-12-03-765.txt Node

Date: Wed Dec 21 14:12:03 EST 2022
User: dcclab
Spectrometer: QEP03738
Trigger mode: 4
Integration Time (sec): 1.000000E1
Scans to average: 1
Electric dark correction enabled: true
Nonlinearity correction enabled: false
Boxcar width: 0
XAxis mode: Wavelengths
Number of Pixels in Spectrum: 1044
>>>>>Begin Spectral Data<<<<<
784.041	12.25
784.3	2.25
784.558	-1.75
784.817	-5.75
785.075	97331.25
785.334	16868.25
785.592	7936.25
785.851	5494.25
786.109	4146.25
786.368	3233.25
786.626	2640.25
786.884	2183.25
787.143	1850.25
787.401	1533.25
787.659	1378.25
787.917	1191.25
788.175	1104.25
788.433	961.25
788.691	876.25
788.949	809.25
789.207	785.25
789.465	690.25
789.723	647.25
789.98	599.25
790.238	642.25
790.496	606.25
790.753	582.25
791.011	614.25
791.268	549.25
791.526	537.25
791.783	555.25
792.041	537.25
792.298	460.25
792.556	541.25
792.813	520.25
793.07	493.25
793.327	486.25
793.584	535.25
793.841	485.25
794.099	503.25
794.356	556.25
794.613	469.25
794.869	498.25
795.126	457.25
795.383	450.25
795.64	467.25
795.897	414.25
796.153	484.25
796.41	459.25
796.667	462.25
796.923	466.25
797.18	470.25
797.436	493.25
797.693	457.25
797.949	505.25
798.206	513.25
798.462	449.25
798.718	529.25
798.974	511.25
799.231	541.25
799.487	525.25
799.743	531.25
799.999	580.25
800.255	591.25
800.511	580.25
800.767	620.25
801.023	614.25
801.279	670.25
801.534	733.25
801.79	818.25
802.046	846.25
802.302	1044.25
802.557	1225.25
802.813	1580.25
803.068	2047.25
803.324	2871.25
803.579	3998.25
803.835	5537.25
804.09	7724.25
804.345	10205.25
804.601	12842.25
804.856	15641.25
805.111	17991.25
805.366	19862.25
805.621	21247.25
805.876	22255.25
806.131	22708.25
806.386	23176.25
806.641	23507.25
806.896	24068.25
807.151	24420.25
807.406	24739.25
807.661	25356.25
807.915	25684.25
808.17	26001.25
808.425	26272.25
808.679	26345.25
808.934	26810.25
809.188	26935.25
809.443	27290.25
809.697	27589.25
809.951	27653.25
810.206	27888.25
810.46	28204.25
810.714	28452.25
810.968	28690.25
811.223	28792.25
811.477	29080.25
811.731	29227.25
811.985	29321.25
812.239	29592.25
812.493	29763.25
812.747	29837.25
813	29775.25
813.254	29965.25
813.508	30120.25
813.762	30337.25
814.015	30347.25
814.269	30516.25
814.522	30741.25
814.776	31194.25
815.03	31598.25
815.283	32056.25
815.536	32330.25
815.79	32882.25
816.043	33340.25
816.296	33832.25
816.55	34226.25
816.803	34581.25
817.056	34842.25
817.309	35226.25
817.562	35576.25
817.815	35963.25
818.068	36243.25
818.321	36597.25
818.574	36878.25
818.827	37364.25
819.079	37739.25
819.332	38479.25
819.585	38970.25
819.838	39266.25
820.09	39486.25
820.343	39815.25
820.595	39988.25
820.848	40374.25
821.1	40541.25
821.353	40497.25
821.605	40354.25
821.857	40409.25
822.11	40174.25
822.362	40091.25
822.614	40044.25
822.866	40019.25
823.118	39907.25
823.37	40185.25
823.622	40172.25
823.874	40261.25
824.126	40474.25
824.378	40590.25
824.63	40657.25
824.882	40643.25
825.134	40586.25
825.385	40525.25
825.637	40481.25
825.888	40307.25
826.14	40341.25
826.392	40203.25
826.643	39961.25
826.895	39860.25
827.146	39824.25
827.397	39453.25
827.649	39522.25
827.9	39559.25
828.151	39549.25
828.402	39543.25
828.653	39810.25
828.905	39786.25
829.156	39933.25
829.407	39937.25
829.658	39802.25
829.909	39837.25
830.159	39695.25
830.41	39583.25
830.661	39327.25
830.912	38985.25
831.162	38912.25
831.413	38892.25
831.664	38878.25
831.914	38877.25
832.165	38818.25
832.415	38749.25
832.666	38891.25
832.916	38779.25
833.167	38791.25
833.417	38816.25
833.667	38554.25
833.917	38397.25
834.168	38296.25
834.418	38410.25
834.668	38069.25
834.918	37810.25
835.168	37724.25
835.418	37662.25
835.668	37562.25
835.918	37402.25
836.167	37357.25
836.417	37098.25
836.667	37139.25
836.917	37135.25
837.166	37033.25
837.416	37201.25
837.666	37052.25
837.915	36973.25
838.165	36849.25
838.414	36659.25
838.663	36623.25
838.913	36473.25
839.162	36359.25
839.411	36643.25
839.661	36318.25
839.91	36127.25
840.159	35957.25
840.408	36031.25
840.657	36079.25
840.906	36004.25
841.155	36005.25
841.404	35892.25
841.653	36010.25
841.902	36002.25
842.15	36050.25
842.399	36048.25
842.648	36006.25
842.897	35833.25
843.145	35556.25
843.394	35367.25
843.642	35190.25
843.891	34997.25
844.139	34913.25
844.388	34699.25
844.636	34683.25
844.884	34405.25
845.133	34418.25
845.381	34296.25
845.629	34386.25
845.877	34283.25
846.125	34175.25
846.373	34133.25
846.621	34058.25
846.869	33967.25
847.117	33785.25
847.365	33639.25
847.613	33466.25
847.861	33363.25
848.108	33276.25
848.356	33085.25
848.604	33092.25
848.851	33146.25
849.099	33249.25
849.346	33309.25
849.594	33493.25
849.841	33411.25
850.089	33592.25
850.336	33540.25
850.583	33548.25
850.831	33385.25
851.078	32999.25
851.325	32970.25
851.572	32948.25
851.819	32599.25
852.066	32023.25
852.313	31818.25
852.56	31684.25
852.807	31467.25
853.054	31310.25
853.301	31321.25
853.548	31237.25
853.794	31412.25
854.041	31476.25
854.288	31610.25
854.534	31856.25
854.781	31873.25
855.028	31673.25
855.274	31678.25
855.52	31376.25
855.767	31156.25
856.013	31342.25
856.26	31384.25
856.506	30955.25
856.752	30755.25
856.998	30898.25
857.244	30932.25
857.49	31050.25
857.736	31023.25
857.982	30988.25
858.228	30975.25
858.474	30805.25
858.72	30518.25
858.966	30277.25
859.212	30160.25
859.458	29797.25
859.703	29484.25
859.949	29223.25
860.195	28931.25
860.44	28859.25
860.686	28653.25
860.931	28640.25
861.177	28484.25
861.422	28469.25
861.667	28349.25
861.913	28334.25
862.158	28417.25
862.403	28434.25
862.648	28473.25
862.893	28566.25
863.138	28476.25
863.384	28461.25
863.629	28355.25
863.873	28328.25
864.118	28241.25
864.363	28022.25
864.608	28025.25
864.853	27922.25
865.098	27716.25
865.342	27715.25
865.587	27392.25
865.832	27495.25
866.076	27312.25
866.321	27244.25
866.565	27164.25
866.81	26965.25
867.054	26865.25
867.298	26957.25
867.543	26839.25
867.787	26716.25
868.031	26590.25
868.275	26644.25
868.519	26450.25
868.764	26549.25
869.008	26442.25
869.252	26366.25
869.496	26292.25
869.739	26192.25
869.983	26139.25
870.227	25990.25
870.471	25959.25
870.715	26058.25
870.958	26087.25
871.202	26119.25
871.446	26156.25
871.689	26142.25
871.933	26213.25
872.176	26180.25
872.42	26005.25
872.663	26004.25
872.906	25912.25
873.15	25715.25
873.393	25722.25
873.636	25595.25
873.879	25369.25
874.122	25155.25
874.366	24809.25
874.609	24564.25
874.852	24392.25
875.095	24394.25
875.337	24183.25
875.58	24138.25
875.823	24016.25
876.066	24001.25
876.309	23886.25
876.551	23722.25
876.794	23566.25
877.037	23709.25
877.279	23584.25
877.522	23538.25
877.764	23628.25
878.007	23422.25
878.249	23612.25
878.491	23493.25
878.734	23352.25
878.976	23309.25
879.218	23236.25
879.46	23088.25
879.702	22891.25
879.945	22771.25
880.187	22565.25
880.429	22475.25
880.671	22443.25
880.912	22209.25
881.154	22133.25
881.396	22000.25
881.638	22068.25
881.88	22063.25
882.121	22058.25
882.363	22026.25
882.605	21993.25
882.846	21771.25
883.088	21734.25
883.329	21608.25
883.571	21658.25
883.812	21757.25
884.053	21874.25
884.295	22098.25
884.536	22335.25
884.777	22109.25
885.018	22108.25
885.259	22009.25
885.5	21815.25
885.742	22093.25
885.982	21794.25
886.223	21664.25
886.464	21542.25
886.705	21300.25
886.946	21199.25
887.187	20943.25
887.428	20898.25
887.668	20602.25
887.909	20427.25
888.15	20162.25
888.39	20099.25
888.631	20065.25
888.871	19843.25
889.111	19772.25
889.352	19598.25
889.592	19411.25
889.833	19342.25
890.073	19060.25
890.313	19089.25
890.553	18820.25
890.793	18833.25
891.033	18683.25
891.273	18536.25
891.513	18591.25
891.753	18382.25
891.993	18419.25
892.233	18516.25
892.473	18543.25
892.713	18537.25
892.952	18558.25
893.192	18506.25
893.432	18486.25
893.671	18387.25
893.911	18279.25
894.15	18232.25
894.39	18018.25
894.629	17879.25
894.869	17808.25
895.108	17704.25
895.347	17614.25
895.587	17519.25
895.826	17528.25
896.065	17383.25
896.304	17453.25
896.543	17445.25
896.782	17284.25
897.021	17241.25
897.26	17125.25
897.499	17114.25
897.738	17055.25
897.977	16880.25
898.216	16735.25
898.454	16682.25
898.693	16523.25
898.932	16457.25
899.17	16389.25
899.409	16259.25
899.647	16330.25
899.886	16110.25
900.124	16217.25
900.363	16152.25
900.601	16222.25
900.839	16224.25
901.078	16208.25
901.316	16177.25
901.554	16198.25
901.792	16309.25
902.03	16157.25
902.268	16231.25
902.506	16083.25
902.744	15979.25
902.982	15972.25
903.22	15734.25
903.458	15660.25
903.695	15451.25
903.933	15364.25
904.171	15143.25
904.409	14976.25
904.646	14738.25
904.884	14613.25
905.121	14497.25
905.359	14295.25
905.596	14225.25
905.833	14076.25
906.071	14019.25
906.308	14031.25
906.545	13932.25
906.783	13913.25
907.02	13894.25
907.257	13863.25
907.494	13865.25
907.731	13739.25
907.968	13828.25
908.205	13522.25
908.442	13516.25
908.679	13441.25
908.915	13352.25
909.152	13235.25
909.389	13087.25
909.626	13041.25
909.862	12955.25
910.099	12940.25
910.335	12941.25
910.572	12734.25
910.808	12730.25
911.045	12616.25
911.281	12577.25
911.518	12605.25
911.754	12446.25
911.99	12518.25
912.226	12289.25
912.463	12199.25
912.699	12243.25
912.935	12161.25
913.171	11966.25
913.407	11905.25
913.643	11890.25
913.879	11709.25
914.114	11621.25
914.35	11505.25
914.586	11360.25
914.822	11298.25
915.057	11356.25
915.293	11083.25
915.529	11033.25
915.764	11007.25
916	11061.25
916.235	11009.25
916.471	11015.25
916.706	10924.25
916.941	10871.25
917.177	10907.25
917.412	10882.25
917.647	10844.25
917.882	10766.25
918.117	10809.25
918.352	10778.25
918.588	10758.25
918.823	10611.25
919.057	10552.25
919.292	10378.25
919.527	10388.25
919.762	10207.25
919.997	10118.25
920.232	9964.25
920.466	9990.25
920.701	9789.25
920.935	9787.25
921.17	9701.25
921.405	9710.25
921.639	9745.25
921.873	9580.25
922.108	9526.25
922.342	9548.25
922.576	9438.25
922.811	9393.25
923.045	9482.25
923.279	9472.25
923.513	9233.25
923.747	9234.25
923.981	9194.25
924.215	9138.25
924.449	9062.25
924.683	8951.25
924.917	8897.25
925.151	8909.25
925.385	8939.25
925.618	8866.25
925.852	8808.25
926.086	8785.25
926.319	8784.25
926.553	8779.25
926.786	8783.25
927.02	8685.25
927.253	8719.25
927.486	8751.25
927.72	8685.25
927.953	8729.25
928.186	8585.25
928.42	8706.25
928.653	8528.25
928.886	8489.25
929.119	8485.25
929.352	8394.25
929.585	8397.25
929.818	8286.25
930.051	8240.25
930.284	8251.25
930.516	8093.25
930.749	8059.25
930.982	8056.25
931.215	7949.25
931.447	7888.25
931.68	7865.25
931.912	7802.25
932.145	7853.25
932.377	7842.25
932.61	7993.25
932.842	7728.25
933.074	7866.25
933.307	7794.25
933.539	7849.25
933.771	7825.25
934.003	7664.25
934.236	7871.25
934.468	7861.25
934.7	7661.25
934.932	7732.25
935.164	7672.25
935.395	7676.25
935.627	7676.25
935.859	7627.25
936.091	7521.25
936.323	7535.25
936.554	7568.25
936.786	7490.25
937.017	7421.25
937.249	7445.25
937.481	7320.25
937.712	7428.25
937.943	7313.25
938.175	7345.25
938.406	7320.25
938.637	7342.25
938.869	7307.25
939.1	7263.25
939.331	7227.25
939.562	7258.25
939.793	7241.25
940.024	7173.25
940.255	7172.25
940.486	7097.25
940.717	7134.25
940.948	7013.25
941.179	7012.25
941.409	7031.25
941.64	7044.25
941.871	7051.25
942.102	6884.25
942.332	6959.25
942.563	6986.25
942.793	6991.25
943.024	6922.25
943.254	6935.25
943.484	6926.25
943.715	6950.25
943.945	6926.25
944.175	6862.25
944.405	6779.25
944.636	6847.25
944.866	6893.25
945.096	6873.25
945.326	6705.25
945.556	6800.25
945.786	6794.25
946.016	6713.25
946.245	6564.25
946.475	6660.25
946.705	6576.25
946.935	6529.25
947.164	6516.25
947.394	6464.25
947.624	6426.25
947.853	6501.25
948.083	6428.25
948.312	6379.25
948.542	6287.25
948.771	6238.25
949	6322.25
949.23	6254.25
949.459	6317.25
949.688	6316.25
949.917	6243.25
950.146	6265.25
950.375	6311.25
950.604	6172.25
950.833	6234.25
951.062	6232.25
951.291	6154.25
951.52	6155.25
951.749	6127.25
951.978	6080.25
952.206	6104.25
952.435	6068.25
952.664	6059.25
952.892	6050.25
953.121	5988.25
953.349	6027.25
953.578	6010.25
953.806	5947.25
954.035	5835.25
954.263	5868.25
954.491	5870.25
954.719	5896.25
954.948	5806.25
955.176	5719.25
955.404	5693.25
955.632	5716.25
955.86	5685.25
956.088	5675.25
956.316	5719.25
956.544	5700.25
956.772	5559.25
956.999	5590.25
957.227	5570.25
957.455	5486.25
957.683	5490.25
957.91	5372.25
958.138	5414.25
958.365	5318.25
958.593	5330.25
958.82	5285.25
959.048	5347.25
959.275	5296.25
959.502	5304.25
959.73	5239.25
959.957	5285.25
960.184	5248.25
960.411	5196.25
960.638	5292.25
960.865	5253.25
961.092	5205.25
961.319	5148.25
961.546	5183.25
961.773	5260.25
962	5177.25
962.227	5162.25
962.454	5180.25
962.68	5107.25
962.907	5099.25
963.134	5015.25
963.36	5034.25
963.587	5062.25
963.813	4955.25
964.04	4926.25
964.266	4840.25
964.493	4942.25
964.719	4901.25
964.945	4915.25
965.171	4759.25
965.398	4810.25
965.624	4744.25
965.85	4706.25
966.076	4652.25
966.302	4706.25
966.528	4645.25
966.754	4708.25
966.98	4669.25
967.206	4675.25
967.431	4539.25
967.657	4630.25
967.883	4616.25
968.109	4613.25
968.334	4522.25
968.56	4516.25
968.785	4514.25
969.011	4483.25
969.236	4546.25
969.462	4424.25
969.687	4442.25
969.912	4483.25
970.138	4513.25
970.363	4381.25
970.588	4376.25
970.813	4401.25
971.038	4337.25
971.263	4355.25
971.488	4349.25
971.713	4377.25
971.938	4320.25
972.163	4190.25
972.388	4207.25
972.613	4141.25
972.838	4229.25
973.062	4202.25
973.287	4144.25
973.512	4053.25
973.736	4098.25
973.961	4091.25
974.185	4084.25
974.41	4081.25
974.634	4003.25
974.858	3972.25
975.083	3961.25
975.307	3978.25
975.531	3875.25
975.755	3891.25
975.98	3883.25
976.204	3742.25
976.428	3800.25
976.652	3752.25
976.876	3750.25
977.1	3775.25
977.324	3716.25
977.547	3763.25
977.771	3708.25
977.995	3740.25
978.219	3637.25
978.442	3777.25
978.666	3716.25
978.89	3704.25
979.113	3679.25
979.337	3658.25
979.56	3578.25
979.783	3731.25
980.007	3561.25
980.23	3584.25
980.453	3539.25
980.677	3585.25
980.9	3555.25
981.123	3442.25
981.346	3534.25
981.569	3479.25
981.792	3491.25
982.015	3419.25
982.238	3368.25
982.461	3397.25
982.684	3352.25
982.907	3322.25
983.129	3287.25
983.352	3385.25
983.575	3347.25
983.797	3312.25
984.02	3262.25
984.242	3237.25
984.465	3225.25
984.687	3284.25
984.91	3253.25
985.132	3201.25
985.354	3232.25
985.577	3130.25
985.799	3158.25
986.021	3054.25
986.243	3124.25
986.465	3105.25
986.687	3140.25
986.909	3127.25
987.131	3122.25
987.353	3028.25
987.575	3105.25
987.797	3037.25
988.019	2992.25
988.241	3030.25
988.462	3013.25
988.684	3039.25
988.906	3059.25
989.127	3064.25
989.349	2932.25
989.57	2981.25
989.792	3003.25
990.013	3022.25
990.234	2968.25
990.456	3039.25
990.677	2961.25
990.898	2907.25
991.119	2886.25
991.341	2927.25
991.562	2877.25
991.783	2887.25
992.004	2814.25
992.225	2747.25
992.446	2823.25
992.667	2718.25
992.887	2788.25
993.108	2661.25
993.329	2811.25
993.55	2729.25
993.77	2653.25
993.991	2648.25
994.212	2691.25
994.432	2638.25
994.653	2646.25
994.873	2604.25
995.093	2516.25
995.314	2539.25
995.534	2638.25
995.754	2677.25
995.975	2652.25
996.195	2534.25
996.415	2562.25
996.635	2550.25
996.855	2543.25
997.075	2537.25
997.295	2528.25
997.515	2477.25
997.735	2530.25
997.955	2506.25
998.174	2489.25
998.394	2456.25
998.614	2498.25
998.834	2493.25
999.053	2532.25
999.273	2495.25
999.492	2560.25
999.712	2467.25
999.931	2444.25
1000.151	2427.25
1000.37	2414.25
1000.589	2464.25
1000.809	2364.25
1001.028	2447.25
1001.247	2420.25
1001.466	2307.25
1001.685	2415.25
1001.904	2358.25
1002.123	2327.25
1002.342	2329.25
1002.561	2276.25
1002.78	2282.25
1002.999	2354.25
1003.218	2275.25
1003.436	2221.25
1003.655	2297.25
1003.874	2211.25
1004.092	2241.25
1004.311	2267.25
1004.53	2206.25
1004.748	2292.25
1004.966	2212.25
1005.185	2243.25
1005.403	2205.25
1005.622	2217.25
1005.84	2298.25
1006.058	2162.25
1006.276	2202.25
1006.494	2658.25
1006.712	2150.25
1006.931	2235.25
1007.149	2145.25
1007.367	2157.25
1007.584	2142.25
1007.802	2244.25
1008.02	2170.25
1008.238	2276.25
1008.456	2280.25
1008.673	2119.25
1008.891	2212.25
1009.109	2187.25
1009.326	2247.25
1009.544	2279.25
1009.761	2232.25
1009.979	2363.25
1010.196	2308.25
1010.413	2478.25
1010.631	2507.25
1010.848	2565.25
1011.065	2581.25
1011.282	2532.25
1011.5	2400.25
1011.717	2549.25
1011.934	2455.25
1012.151	2467.25
1012.368	2425.25
1012.585	2386.25
1012.801	2418.25
1013.018	2417.25
1013.235	2375.25
1013.452	2427.25
1013.669	2388.25
1013.885	2415.25
1014.102	2427.25
1014.318	2412.25
1014.535	2390.25
1014.751	2390.25
1014.968	2354.25
1015.184	2390.25
1015.401	2264.25
1015.617	2291.25
1015.833	2249.25
1016.049	2221.25
1016.266	2189.25
1016.482	2209.25
1016.698	2104.25
1016.914	2157.25
1017.13	2071.25
1017.346	2086.25
1017.562	2135.25
1017.778	2050.25
1017.993	2029.25
1018.209	2097.25
1018.425	2065.25
1018.641	2004.25
1018.856	1989.25
1019.072	1998.25
1019.288	2037.25
1019.503	2016.25
1019.719	1912.25
1019.934	1903.25
1020.149	1975.25
1020.365	1904.25
1020.58	1863.25
1020.795	1888.25
1021.011	1846.25
1021.226	1796.25
1021.441	1792.25
1021.656	1712.25
1021.871	1641.25
1022.086	1641.25
1022.301	1635.25
1022.516	1581.25
1022.731	1674.25
1022.946	1528.25
1023.16	1548.25
1023.375	1505.25
1023.59	1491.25
1023.804	1448.25
1024.019	1533.25
1024.234	1385.25
1024.448	1405.25
1024.663	1306.25
1024.877	1350.25
1025.092	1349.25
1025.306	1323.25
1025.52	1236.25
1025.734	1316.25
1025.949	1216.25
1026.163	1202.25
1026.377	1122.25
1026.591	1172.25
1026.805	1098.25
1027.019	1074.25
1027.233	1029.25
1027.447	984.25
1027.661	1101.25
1027.875	1026.25
1028.088	1014.25
1028.302	934.25
1028.516	922.25
1028.73	906.25
1028.943	896.25
1029.157	830.25
1029.37	791.25
1029.584	-2.75
1029.797	-2.75
1030.011	0.25
1030.224	-1.75
