Data from QEP037381__22__14-15-33-765.txt Node

Date: Wed Dec 21 14:15:33 EST 2022
User: dcclab
Spectrometer: QEP03738
Trigger mode: 4
Integration Time (sec): 1.000000E1
Scans to average: 1
Electric dark correction enabled: true
Nonlinearity correction enabled: false
Boxcar width: 0
XAxis mode: Wavelengths
Number of Pixels in Spectrum: 1044
>>>>>Begin Spectral Data<<<<<
784.041	11.5
784.3	-2.5
784.558	-2.5
784.817	-3.5
785.075	101640.5
785.334	17518.5
785.592	8278.5
785.851	5695.5
786.109	4307.5
786.368	3349.5
786.626	2706.5
786.884	2250.5
787.143	1887.5
787.401	1581.5
787.659	1431.5
787.917	1240.5
788.175	1123.5
788.433	963.5
788.691	882.5
788.949	813.5
789.207	776.5
789.465	655.5
789.723	651.5
789.98	588.5
790.238	621.5
790.496	591.5
790.753	569.5
791.011	611.5
791.268	538.5
791.526	532.5
791.783	554.5
792.041	538.5
792.298	444.5
792.556	509.5
792.813	501.5
793.07	473.5
793.327	460.5
793.584	540.5
793.841	456.5
794.099	473.5
794.356	546.5
794.613	441.5
794.869	467.5
795.126	435.5
795.383	423.5
795.64	458.5
795.897	398.5
796.153	465.5
796.41	445.5
796.667	422.5
796.923	438.5
797.18	448.5
797.436	463.5
797.693	430.5
797.949	488.5
798.206	524.5
798.462	425.5
798.718	498.5
798.974	467.5
799.231	527.5
799.487	505.5
799.743	511.5
799.999	563.5
800.255	550.5
800.511	541.5
800.767	591.5
801.023	578.5
801.279	606.5
801.534	656.5
801.79	730.5
802.046	776.5
802.302	956.5
802.557	1098.5
802.813	1388.5
803.068	1763.5
803.324	2464.5
803.579	3352.5
803.835	4613.5
804.09	6360.5
804.345	8302.5
804.601	10478.5
804.856	12693.5
805.111	14653.5
805.366	16137.5
805.621	17253.5
805.876	18101.5
806.131	18622.5
806.386	19012.5
806.641	19285.5
806.896	19635.5
807.151	20075.5
807.406	20276.5
807.661	20669.5
807.915	21019.5
808.17	21415.5
808.425	21690.5
808.679	21803.5
808.934	22030.5
809.188	22238.5
809.443	22392.5
809.697	22685.5
809.951	22822.5
810.206	23103.5
810.46	23295.5
810.714	23433.5
810.968	23569.5
811.223	23997.5
811.477	24085.5
811.731	24328.5
811.985	24520.5
812.239	24553.5
812.493	24706.5
812.747	24855.5
813	24857.5
813.254	24917.5
813.508	25110.5
813.762	25166.5
814.015	25218.5
814.269	25532.5
814.522	25679.5
814.776	26059.5
815.03	26250.5
815.283	26742.5
815.536	27128.5
815.79	27610.5
816.043	27981.5
816.296	28390.5
816.55	28719.5
816.803	29076.5
817.056	29454.5
817.309	29586.5
817.562	29890.5
817.815	30200.5
818.068	30497.5
818.321	30863.5
818.574	31264.5
818.827	31586.5
819.079	31997.5
819.332	32631.5
819.585	32932.5
819.838	33438.5
820.09	33744.5
820.343	33772.5
820.595	33909.5
820.848	34280.5
821.1	34370.5
821.353	34375.5
821.605	34324.5
821.857	34453.5
822.11	34266.5
822.362	34161.5
822.614	34048.5
822.866	33934.5
823.118	34127.5
823.37	34202.5
823.622	34185.5
823.874	34448.5
824.126	34550.5
824.378	34651.5
824.63	34736.5
824.882	34736.5
825.134	34778.5
825.385	34701.5
825.637	34718.5
825.888	34559.5
826.14	34494.5
826.392	34275.5
826.643	34196.5
826.895	34126.5
827.146	34052.5
827.397	34010.5
827.649	34181.5
827.9	34054.5
828.151	34091.5
828.402	34303.5
828.653	34246.5
828.905	34489.5
829.156	34400.5
829.407	34378.5
829.658	34369.5
829.909	34441.5
830.159	34625.5
830.41	34360.5
830.661	34078.5
830.912	33932.5
831.162	33709.5
831.413	33753.5
831.664	33886.5
831.914	33752.5
832.165	33647.5
832.415	33763.5
832.666	33815.5
832.916	33870.5
833.167	33602.5
833.417	33741.5
833.667	33681.5
833.917	33566.5
834.168	33540.5
834.418	33509.5
834.668	33364.5
834.918	33153.5
835.168	32995.5
835.418	32966.5
835.668	32858.5
835.918	32981.5
836.167	32865.5
836.417	32655.5
836.667	32723.5
836.917	32655.5
837.166	32648.5
837.416	32606.5
837.666	32718.5
837.915	32683.5
838.165	32602.5
838.414	32492.5
838.663	32446.5
838.913	32445.5
839.162	32390.5
839.411	32403.5
839.661	32262.5
839.91	32143.5
840.159	32270.5
840.408	32143.5
840.657	32102.5
840.906	32129.5
841.155	32323.5
841.404	32187.5
841.653	32247.5
841.902	32319.5
842.15	32396.5
842.399	32426.5
842.648	32389.5
842.897	32161.5
843.145	32081.5
843.394	31923.5
843.642	31656.5
843.891	31630.5
844.139	31193.5
844.388	31200.5
844.636	31189.5
844.884	31277.5
845.133	31119.5
845.381	31233.5
845.629	31147.5
845.877	31153.5
846.125	31105.5
846.373	31072.5
846.621	31004.5
846.869	30932.5
847.117	30633.5
847.365	30625.5
847.613	30459.5
847.861	30356.5
848.108	30485.5
848.356	30374.5
848.604	30254.5
848.851	30173.5
849.099	30237.5
849.346	30360.5
849.594	30602.5
849.841	30656.5
850.089	30803.5
850.336	30899.5
850.583	30848.5
850.831	30678.5
851.078	30708.5
851.325	30549.5
851.572	30543.5
851.819	30285.5
852.066	29634.5
852.313	29266.5
852.56	29131.5
852.807	28956.5
853.054	28989.5
853.301	28827.5
853.548	28951.5
853.794	29158.5
854.041	29253.5
854.288	29313.5
854.534	29587.5
854.781	29532.5
855.028	29481.5
855.274	29531.5
855.52	29230.5
855.767	29148.5
856.013	29273.5
856.26	29482.5
856.506	28954.5
856.752	28968.5
856.998	29008.5
857.244	28905.5
857.49	29189.5
857.736	29256.5
857.982	29340.5
858.228	29071.5
858.474	28862.5
858.72	28652.5
858.966	28475.5
859.212	28138.5
859.458	27920.5
859.703	27694.5
859.949	27477.5
860.195	27239.5
860.44	27114.5
860.686	27256.5
860.931	27125.5
861.177	26909.5
861.422	26760.5
861.667	26748.5
861.913	26718.5
862.158	26776.5
862.403	26702.5
862.648	26940.5
862.893	26819.5
863.138	26811.5
863.384	26736.5
863.629	26753.5
863.873	26808.5
864.118	26642.5
864.363	26560.5
864.608	26511.5
864.853	26410.5
865.098	26227.5
865.342	26209.5
865.587	26085.5
865.832	26049.5
866.076	26040.5
866.321	25993.5
866.565	25895.5
866.81	25843.5
867.054	25767.5
867.298	25624.5
867.543	25513.5
867.787	25609.5
868.031	25521.5
868.275	25497.5
868.519	25504.5
868.764	25311.5
869.008	25327.5
869.252	25282.5
869.496	25237.5
869.739	25155.5
869.983	25245.5
870.227	25233.5
870.471	25257.5
870.715	25413.5
870.958	25325.5
871.202	25393.5
871.446	25356.5
871.689	25358.5
871.933	25483.5
872.176	25497.5
872.42	25471.5
872.663	25334.5
872.906	25372.5
873.15	25378.5
873.393	25244.5
873.636	25215.5
873.879	24826.5
874.122	24569.5
874.366	24359.5
874.609	24107.5
874.852	23941.5
875.095	23897.5
875.337	23827.5
875.58	23644.5
875.823	23606.5
876.066	23486.5
876.309	23350.5
876.551	23224.5
876.794	23195.5
877.037	23203.5
877.279	22993.5
877.522	22986.5
877.764	23129.5
878.007	23020.5
878.249	22964.5
878.491	22929.5
878.734	22893.5
878.976	22759.5
879.218	22708.5
879.46	22670.5
879.702	22477.5
879.945	22314.5
880.187	22095.5
880.429	22072.5
880.671	21908.5
880.912	21783.5
881.154	21796.5
881.396	21764.5
881.638	21679.5
881.88	21764.5
882.121	21723.5
882.363	21568.5
882.605	21569.5
882.846	21551.5
883.088	21471.5
883.329	21496.5
883.571	21530.5
883.812	21794.5
884.053	22193.5
884.295	22505.5
884.536	22713.5
884.777	22699.5
885.018	22583.5
885.259	22345.5
885.5	22196.5
885.742	22549.5
885.982	22238.5
886.223	22071.5
886.464	21877.5
886.705	21648.5
886.946	21419.5
887.187	20994.5
887.428	20896.5
887.668	20491.5
887.909	20301.5
888.15	20103.5
888.39	19946.5
888.631	19848.5
888.871	19658.5
889.111	19571.5
889.352	19323.5
889.592	19229.5
889.833	19052.5
890.073	18971.5
890.313	18793.5
890.553	18655.5
890.793	18707.5
891.033	18546.5
891.273	18471.5
891.513	18335.5
891.753	18416.5
891.993	18393.5
892.233	18320.5
892.473	18448.5
892.713	18418.5
892.952	18495.5
893.192	18472.5
893.432	18326.5
893.671	18396.5
893.911	18286.5
894.15	18190.5
894.39	18050.5
894.629	17974.5
894.869	17950.5
895.108	17779.5
895.347	17634.5
895.587	17639.5
895.826	17507.5
896.065	17507.5
896.304	17484.5
896.543	17424.5
896.782	17411.5
897.021	17375.5
897.26	17312.5
897.499	17252.5
897.738	17148.5
897.977	17125.5
898.216	16965.5
898.454	16800.5
898.693	16708.5
898.932	16671.5
899.17	16580.5
899.409	16652.5
899.647	16516.5
899.886	16454.5
900.124	16546.5
900.363	16550.5
900.601	16580.5
900.839	16563.5
901.078	16627.5
901.316	16754.5
901.554	16704.5
901.792	16907.5
902.03	16752.5
902.268	16783.5
902.506	16702.5
902.744	16569.5
902.982	16548.5
903.22	16261.5
903.458	16031.5
903.695	15861.5
903.933	15608.5
904.171	15361.5
904.409	15143.5
904.646	14938.5
904.884	14717.5
905.121	14742.5
905.359	14394.5
905.596	14364.5
905.833	14256.5
906.071	14138.5
906.308	14160.5
906.545	14126.5
906.783	13995.5
907.02	14029.5
907.257	13973.5
907.494	13952.5
907.731	13908.5
907.968	13838.5
908.205	13742.5
908.442	13759.5
908.679	13526.5
908.915	13441.5
909.152	13362.5
909.389	13192.5
909.626	13181.5
909.862	13018.5
910.099	13031.5
910.335	13038.5
910.572	12863.5
910.808	12857.5
911.045	12908.5
911.281	12715.5
911.518	12788.5
911.754	12659.5
911.99	12601.5
912.226	12523.5
912.463	12374.5
912.699	12329.5
912.935	12146.5
913.171	12183.5
913.407	11960.5
913.643	11991.5
913.879	11846.5
914.114	11746.5
914.35	11556.5
914.586	11597.5
914.822	11408.5
915.057	11433.5
915.293	11250.5
915.529	11170.5
915.764	11258.5
916	11237.5
916.235	11147.5
916.471	11131.5
916.706	11071.5
916.941	11006.5
917.177	10967.5
917.412	11067.5
917.647	11041.5
917.882	10931.5
918.117	11027.5
918.352	10909.5
918.588	10905.5
918.823	10741.5
919.057	10710.5
919.292	10504.5
919.527	10547.5
919.762	10386.5
919.997	10342.5
920.232	10138.5
920.466	10159.5
920.701	9969.5
920.935	9922.5
921.17	9841.5
921.405	9825.5
921.639	9854.5
921.873	9791.5
922.108	9699.5
922.342	9759.5
922.576	9674.5
922.811	9605.5
923.045	9620.5
923.279	9594.5
923.513	9440.5
923.747	9481.5
923.981	9362.5
924.215	9277.5
924.449	9270.5
924.683	9161.5
924.917	9111.5
925.151	9112.5
925.385	9108.5
925.618	9017.5
925.852	8944.5
926.086	8987.5
926.319	8941.5
926.553	8944.5
926.786	8963.5
927.02	8922.5
927.253	8909.5
927.486	8882.5
927.72	8753.5
927.953	8899.5
928.186	8785.5
928.42	8825.5
928.653	8718.5
928.886	8621.5
929.119	8684.5
929.352	8572.5
929.585	8573.5
929.818	8458.5
930.051	8436.5
930.284	8411.5
930.516	8261.5
930.749	8194.5
930.982	8242.5
931.215	8182.5
931.447	8041.5
931.68	8058.5
931.912	8060.5
932.145	8005.5
932.377	8057.5
932.61	8136.5
932.842	7959.5
933.074	8054.5
933.307	7952.5
933.539	8038.5
933.771	8036.5
934.003	8014.5
934.236	8023.5
934.468	8003.5
934.7	7912.5
934.932	7937.5
935.164	7885.5
935.395	7889.5
935.627	7808.5
935.859	7832.5
936.091	7725.5
936.323	7820.5
936.554	7741.5
936.786	7675.5
937.017	7558.5
937.249	7656.5
937.481	7570.5
937.712	7564.5
937.943	7564.5
938.175	7537.5
938.406	7505.5
938.637	7539.5
938.869	7453.5
939.1	7444.5
939.331	7413.5
939.562	7444.5
939.793	7421.5
940.024	7441.5
940.255	7366.5
940.486	7331.5
940.717	7251.5
940.948	7227.5
941.179	7163.5
941.409	7179.5
941.64	7182.5
941.871	7117.5
942.102	7091.5
942.332	7152.5
942.563	7198.5
942.793	7084.5
943.024	7085.5
943.254	7074.5
943.484	7133.5
943.715	7142.5
943.945	7110.5
944.175	7060.5
944.405	7008.5
944.636	6992.5
944.866	7090.5
945.096	7039.5
945.326	6907.5
945.556	6960.5
945.786	6978.5
946.016	6857.5
946.245	6816.5
946.475	6760.5
946.705	6784.5
946.935	6757.5
947.164	6710.5
947.394	6637.5
947.624	6584.5
947.853	6634.5
948.083	6589.5
948.312	6527.5
948.542	6419.5
948.771	6440.5
949	6489.5
949.23	6448.5
949.459	6434.5
949.688	6504.5
949.917	6411.5
950.146	6447.5
950.375	6458.5
950.604	6291.5
950.833	6394.5
951.062	6402.5
951.291	6317.5
951.52	6355.5
951.749	6281.5
951.978	6250.5
952.206	6221.5
952.435	6229.5
952.664	6283.5
952.892	6224.5
953.121	6190.5
953.349	6202.5
953.578	6110.5
953.806	6106.5
954.035	5988.5
954.263	6039.5
954.491	6001.5
954.719	6024.5
954.948	5969.5
955.176	5880.5
955.404	5853.5
955.632	5863.5
955.86	5851.5
956.088	5815.5
956.316	5828.5
956.544	5766.5
956.772	5758.5
956.999	5716.5
957.227	5731.5
957.455	5624.5
957.683	5574.5
957.91	5597.5
958.138	5491.5
958.365	5492.5
958.593	5470.5
958.82	5437.5
959.048	5447.5
959.275	5440.5
959.502	5412.5
959.73	5407.5
959.957	5402.5
960.184	5435.5
960.411	5356.5
960.638	5430.5
960.865	5323.5
961.092	5361.5
961.319	5253.5
961.546	5376.5
961.773	5349.5
962	5290.5
962.227	5323.5
962.454	5265.5
962.68	5296.5
962.907	5233.5
963.134	5185.5
963.36	5162.5
963.587	5218.5
963.813	5076.5
964.04	5047.5
964.266	4983.5
964.493	5015.5
964.719	5042.5
964.945	4993.5
965.171	4874.5
965.398	4934.5
965.624	4919.5
965.85	4819.5
966.076	4793.5
966.302	4828.5
966.528	4775.5
966.754	4801.5
966.98	4778.5
967.206	4772.5
967.431	4697.5
967.657	4782.5
967.883	4696.5
968.109	4723.5
968.334	4637.5
968.56	4651.5
968.785	4636.5
969.011	4566.5
969.236	4669.5
969.462	4500.5
969.687	4565.5
969.912	4570.5
970.138	4571.5
970.363	4413.5
970.588	4483.5
970.813	4479.5
971.038	4450.5
971.263	4469.5
971.488	4478.5
971.713	4495.5
971.938	4418.5
972.163	4315.5
972.388	4390.5
972.613	4285.5
972.838	4323.5
973.062	4305.5
973.287	4242.5
973.512	4189.5
973.736	4195.5
973.961	4188.5
974.185	4125.5
974.41	4123.5
974.634	4044.5
974.858	4039.5
975.083	4108.5
975.307	4095.5
975.531	4008.5
975.755	3958.5
975.98	3943.5
976.204	3901.5
976.428	3868.5
976.652	3904.5
976.876	3860.5
977.1	3853.5
977.324	3790.5
977.547	3835.5
977.771	3833.5
977.995	3776.5
978.219	3701.5
978.442	3830.5
978.666	3768.5
978.89	3720.5
979.113	3720.5
979.337	3743.5
979.56	3663.5
979.783	3786.5
980.007	3660.5
980.23	3677.5
980.453	3598.5
980.677	3691.5
980.9	3619.5
981.123	3531.5
981.346	3595.5
981.569	3581.5
981.792	3601.5
982.015	3556.5
982.238	3469.5
982.461	3481.5
982.684	3384.5
982.907	3438.5
983.129	3425.5
983.352	3422.5
983.575	3403.5
983.797	3395.5
984.02	3332.5
984.242	3320.5
984.465	3331.5
984.687	3346.5
984.91	3353.5
985.132	3316.5
985.354	3324.5
985.577	3258.5
985.799	3257.5
986.021	3176.5
986.243	3206.5
986.465	3182.5
986.687	3221.5
986.909	3241.5
987.131	3225.5
987.353	3151.5
987.575	3179.5
987.797	3157.5
988.019	3077.5
988.241	3149.5
988.462	3075.5
988.684	3123.5
988.906	3143.5
989.127	3182.5
989.349	3014.5
989.57	3065.5
989.792	3083.5
990.013	3094.5
990.234	3045.5
990.456	3114.5
990.677	3062.5
990.898	3000.5
991.119	2989.5
991.341	2993.5
991.562	2925.5
991.783	2959.5
992.004	2906.5
992.225	2868.5
992.446	2886.5
992.667	2783.5
992.887	2888.5
993.108	2780.5
993.329	2910.5
993.55	2838.5
993.77	2772.5
993.991	2715.5
994.212	2786.5
994.432	2709.5
994.653	2785.5
994.873	2729.5
995.093	2590.5
995.314	2629.5
995.534	2692.5
995.754	2700.5
995.975	2708.5
996.195	2630.5
996.415	2642.5
996.635	2639.5
996.855	2672.5
997.075	2641.5
997.295	2597.5
997.515	2615.5
997.735	2641.5
997.955	2605.5
998.174	2598.5
998.394	2597.5
998.614	2597.5
998.834	2524.5
999.053	2649.5
999.273	2590.5
999.492	2583.5
999.712	2539.5
999.931	2522.5
1000.151	2554.5
1000.37	2487.5
1000.589	2536.5
1000.809	2456.5
1001.028	2549.5
1001.247	2482.5
1001.466	2348.5
1001.685	2508.5
1001.904	2452.5
1002.123	2397.5
1002.342	2418.5
1002.561	2338.5
1002.78	2373.5
1002.999	2406.5
1003.218	2369.5
1003.436	2314.5
1003.655	2347.5
1003.874	2282.5
1004.092	2298.5
1004.311	2312.5
1004.53	2299.5
1004.748	2364.5
1004.966	2287.5
1005.185	2310.5
1005.403	2294.5
1005.622	2274.5
1005.84	2344.5
1006.058	2230.5
1006.276	2294.5
1006.494	2785.5
1006.712	2311.5
1006.931	2320.5
1007.149	2250.5
1007.367	2241.5
1007.584	2282.5
1007.802	2328.5
1008.02	2289.5
1008.238	2382.5
1008.456	2360.5
1008.673	2270.5
1008.891	2375.5
1009.109	2347.5
1009.326	2445.5
1009.544	2524.5
1009.761	2478.5
1009.979	2564.5
1010.196	2612.5
1010.413	2782.5
1010.631	2862.5
1010.848	2949.5
1011.065	2963.5
1011.282	2908.5
1011.5	2835.5
1011.717	2948.5
1011.934	2890.5
1012.151	2861.5
1012.368	2863.5
1012.585	2793.5
1012.801	2846.5
1013.018	2796.5
1013.235	2788.5
1013.452	2813.5
1013.669	2858.5
1013.885	2823.5
1014.102	2858.5
1014.318	2831.5
1014.535	2800.5
1014.751	2818.5
1014.968	2759.5
1015.184	2817.5
1015.401	2693.5
1015.617	2716.5
1015.833	2635.5
1016.049	2648.5
1016.266	2614.5
1016.482	2596.5
1016.698	2532.5
1016.914	2518.5
1017.13	2467.5
1017.346	2460.5
1017.562	2527.5
1017.778	2447.5
1017.993	2426.5
1018.209	2440.5
1018.425	2420.5
1018.641	2388.5
1018.856	2353.5
1019.072	2409.5
1019.288	2437.5
1019.503	2365.5
1019.719	2265.5
1019.934	2275.5
1020.149	2349.5
1020.365	2258.5
1020.58	2201.5
1020.795	2197.5
1021.011	2127.5
1021.226	2097.5
1021.441	2112.5
1021.656	1968.5
1021.871	1912.5
1022.086	1897.5
1022.301	1908.5
1022.516	1828.5
1022.731	1894.5
1022.946	1737.5
1023.16	1751.5
1023.375	1720.5
1023.59	1689.5
1023.804	1619.5
1024.019	1706.5
1024.234	1546.5
1024.448	1569.5
1024.663	1506.5
1024.877	1482.5
1025.092	1495.5
1025.306	1489.5
1025.52	1386.5
1025.734	1411.5
1025.949	1340.5
1026.163	1322.5
1026.377	1235.5
1026.591	1278.5
1026.805	1210.5
1027.019	1213.5
1027.233	1143.5
1027.447	1078.5
1027.661	1179.5
1027.875	1118.5
1028.088	1094.5
1028.302	1013.5
1028.516	1010.5
1028.73	989.5
1028.943	981.5
1029.157	897.5
1029.37	843.5
1029.584	0.5
1029.797	-1.5
1030.011	-1.5
1030.224	-0.5
