Data from QEP037381__7__14-13-03-766.txt Node

Date: Wed Dec 21 14:13:03 EST 2022
User: dcclab
Spectrometer: QEP03738
Trigger mode: 4
Integration Time (sec): 1.000000E1
Scans to average: 1
Electric dark correction enabled: true
Nonlinearity correction enabled: false
Boxcar width: 0
XAxis mode: Wavelengths
Number of Pixels in Spectrum: 1044
>>>>>Begin Spectral Data<<<<<
784.041	13.62
784.3	-1.38
784.558	-3.38
784.817	-1.38
785.075	103301.62
785.334	17945.62
785.592	8279.62
785.851	5744.62
786.109	4280.62
786.368	3333.62
786.626	2676.62
786.884	2224.62
787.143	1860.62
787.401	1533.62
787.659	1394.62
787.917	1199.62
788.175	1108.62
788.433	982.62
788.691	862.62
788.949	824.62
789.207	778.62
789.465	682.62
789.723	643.62
789.98	595.62
790.238	648.62
790.496	596.62
790.753	567.62
791.011	626.62
791.268	565.62
791.526	542.62
791.783	532.62
792.041	535.62
792.298	452.62
792.556	509.62
792.813	505.62
793.07	480.62
793.327	467.62
793.584	554.62
793.841	465.62
794.099	489.62
794.356	541.62
794.613	437.62
794.869	470.62
795.126	447.62
795.383	421.62
795.64	448.62
795.897	417.62
796.153	453.62
796.41	458.62
796.667	428.62
796.923	439.62
797.18	441.62
797.436	462.62
797.693	446.62
797.949	493.62
798.206	516.62
798.462	429.62
798.718	490.62
798.974	467.62
799.231	512.62
799.487	507.62
799.743	522.62
799.999	561.62
800.255	537.62
800.511	533.62
800.767	574.62
801.023	577.62
801.279	606.62
801.534	663.62
801.79	719.62
802.046	767.62
802.302	915.62
802.557	1089.62
802.813	1315.62
803.068	1691.62
803.324	2379.62
803.579	3225.62
803.835	4497.62
804.09	6190.62
804.345	8012.62
804.601	10087.62
804.856	12235.62
805.111	14084.62
805.366	15500.62
805.621	16586.62
805.876	17389.62
806.131	17883.62
806.386	18205.62
806.641	18431.62
806.896	18771.62
807.151	19189.62
807.406	19374.62
807.661	19684.62
807.915	20086.62
808.17	20367.62
808.425	20563.62
808.679	20743.62
808.934	20934.62
809.188	21115.62
809.443	21381.62
809.697	21649.62
809.951	21644.62
810.206	21893.62
810.46	22059.62
810.714	22215.62
810.968	22531.62
811.223	22572.62
811.477	22736.62
811.731	23031.62
811.985	23109.62
812.239	23208.62
812.493	23231.62
812.747	23315.62
813	23359.62
813.254	23496.62
813.508	23619.62
813.762	23684.62
814.015	23761.62
814.269	23998.62
814.522	24204.62
814.776	24413.62
815.03	24737.62
815.283	25140.62
815.536	25501.62
815.79	25895.62
816.043	26211.62
816.296	26451.62
816.55	26869.62
816.803	27212.62
817.056	27473.62
817.309	27647.62
817.562	27929.62
817.815	28217.62
818.068	28481.62
818.321	28693.62
818.574	29039.62
818.827	29379.62
819.079	29609.62
819.332	30299.62
819.585	30592.62
819.838	31047.62
820.09	31036.62
820.343	31501.62
820.595	31575.62
820.848	31636.62
821.1	31802.62
821.353	31716.62
821.605	31819.62
821.857	31763.62
822.11	31500.62
822.362	31541.62
822.614	31485.62
822.866	31534.62
823.118	31492.62
823.37	31696.62
823.622	31745.62
823.874	31735.62
824.126	31914.62
824.378	31956.62
824.63	31897.62
824.882	32099.62
825.134	32099.62
825.385	32066.62
825.637	31876.62
825.888	31724.62
826.14	31846.62
826.392	31498.62
826.643	31383.62
826.895	31459.62
827.146	31184.62
827.397	31157.62
827.649	31163.62
827.9	31073.62
828.151	31163.62
828.402	31255.62
828.653	31407.62
828.905	31334.62
829.156	31559.62
829.407	31294.62
829.658	31370.62
829.909	31522.62
830.159	31485.62
830.41	31448.62
830.661	31178.62
830.912	30914.62
831.162	30890.62
831.413	30794.62
831.664	30650.62
831.914	30707.62
832.165	30554.62
832.415	30707.62
832.666	30575.62
832.916	30705.62
833.167	30536.62
833.417	30571.62
833.667	30400.62
833.917	30453.62
834.168	30324.62
834.418	30234.62
834.668	30071.62
834.918	30084.62
835.168	29841.62
835.418	29791.62
835.668	29745.62
835.918	29693.62
836.167	29655.62
836.417	29449.62
836.667	29483.62
836.917	29436.62
837.166	29350.62
837.416	29500.62
837.666	29442.62
837.915	29392.62
838.165	29330.62
838.414	29097.62
838.663	29176.62
838.913	29166.62
839.162	29087.62
839.411	28948.62
839.661	28813.62
839.91	28846.62
840.159	28754.62
840.408	28701.62
840.657	28786.62
840.906	28725.62
841.155	28770.62
841.404	28757.62
841.653	28809.62
841.902	28833.62
842.15	28746.62
842.399	29014.62
842.648	28737.62
842.897	28670.62
843.145	28489.62
843.394	28276.62
843.642	28213.62
843.891	28059.62
844.139	27891.62
844.388	27684.62
844.636	27570.62
844.884	27559.62
845.133	27558.62
845.381	27529.62
845.629	27452.62
845.877	27479.62
846.125	27389.62
846.373	27400.62
846.621	27243.62
846.869	27246.62
847.117	27093.62
847.365	26926.62
847.613	26820.62
847.861	26799.62
848.108	26806.62
848.356	26623.62
848.604	26569.62
848.851	26622.62
849.099	26647.62
849.346	26624.62
849.594	26824.62
849.841	26948.62
850.089	26833.62
850.336	26962.62
850.583	26922.62
850.831	26741.62
851.078	26564.62
851.325	26685.62
851.572	26625.62
851.819	26291.62
852.066	25871.62
852.313	25482.62
852.56	25346.62
852.807	25326.62
853.054	25165.62
853.301	25200.62
853.548	25123.62
853.794	25293.62
854.041	25281.62
854.288	25458.62
854.534	25632.62
854.781	25566.62
855.028	25603.62
855.274	25549.62
855.52	25455.62
855.767	25331.62
856.013	25423.62
856.26	25619.62
856.506	25048.62
856.752	25068.62
856.998	24943.62
857.244	25105.62
857.49	25085.62
857.736	25281.62
857.982	25261.62
858.228	25156.62
858.474	24984.62
858.72	24825.62
858.966	24480.62
859.212	24356.62
859.458	24110.62
859.703	23855.62
859.949	23660.62
860.195	23489.62
860.44	23373.62
860.686	23335.62
860.931	23472.62
861.177	23123.62
861.422	23027.62
861.667	22906.62
861.913	22924.62
862.158	22887.62
862.403	22983.62
862.648	23064.62
862.893	23150.62
863.138	22956.62
863.384	23010.62
863.629	23025.62
863.873	22851.62
864.118	22824.62
864.363	22740.62
864.608	22672.62
864.853	22555.62
865.098	22449.62
865.342	22253.62
865.587	22262.62
865.832	22286.62
866.076	22279.62
866.321	22134.62
866.565	22056.62
866.81	21837.62
867.054	21857.62
867.298	21826.62
867.543	21708.62
867.787	21757.62
868.031	21631.62
868.275	21555.62
868.519	21552.62
868.764	21706.62
869.008	21521.62
869.252	21437.62
869.496	21409.62
869.739	21344.62
869.983	21381.62
870.227	21413.62
870.471	21194.62
870.715	21371.62
870.958	21349.62
871.202	21435.62
871.446	21501.62
871.689	21422.62
871.933	21569.62
872.176	21523.62
872.42	21401.62
872.663	21307.62
872.906	21302.62
873.15	21239.62
873.393	21096.62
873.636	21116.62
873.879	20992.62
874.122	20753.62
874.366	20440.62
874.609	20262.62
874.852	20105.62
875.095	20017.62
875.337	19959.62
875.58	19754.62
875.823	19689.62
876.066	19715.62
876.309	19577.62
876.551	19545.62
876.794	19296.62
877.037	19338.62
877.279	19272.62
877.522	19334.62
877.764	19341.62
878.007	19232.62
878.249	19368.62
878.491	19201.62
878.734	19234.62
878.976	19226.62
879.218	18970.62
879.46	18921.62
879.702	18686.62
879.945	18546.62
880.187	18421.62
880.429	18342.62
880.671	18216.62
880.912	18242.62
881.154	18149.62
881.396	18017.62
881.638	18111.62
881.88	18058.62
882.121	17987.62
882.363	18006.62
882.605	17999.62
882.846	17955.62
883.088	17988.62
883.329	17833.62
883.571	17915.62
883.812	18054.62
884.053	18418.62
884.295	18792.62
884.536	18887.62
884.777	18917.62
885.018	18608.62
885.259	18607.62
885.5	18379.62
885.742	18618.62
885.982	18311.62
886.223	18137.62
886.464	18059.62
886.705	17883.62
886.946	17705.62
887.187	17402.62
887.428	17290.62
887.668	17037.62
887.909	16803.62
888.15	16587.62
888.39	16581.62
888.631	16456.62
888.871	16317.62
889.111	16237.62
889.352	16106.62
889.592	15988.62
889.833	15718.62
890.073	15732.62
890.313	15735.62
890.553	15462.62
890.793	15385.62
891.033	15300.62
891.273	15263.62
891.513	15286.62
891.753	15173.62
891.993	15053.62
892.233	15055.62
892.473	15139.62
892.713	15134.62
892.952	15188.62
893.192	15156.62
893.432	15112.62
893.671	15147.62
893.911	15064.62
894.15	14921.62
894.39	14747.62
894.629	14707.62
894.869	14629.62
895.108	14594.62
895.347	14491.62
895.587	14527.62
895.826	14375.62
896.065	14327.62
896.304	14353.62
896.543	14323.62
896.782	14166.62
897.021	14162.62
897.26	14159.62
897.499	14155.62
897.738	14102.62
897.977	13974.62
898.216	13889.62
898.454	13787.62
898.693	13628.62
898.932	13557.62
899.17	13518.62
899.409	13518.62
899.647	13456.62
899.886	13418.62
900.124	13467.62
900.363	13397.62
900.601	13458.62
900.839	13493.62
901.078	13555.62
901.316	13453.62
901.554	13547.62
901.792	13691.62
902.03	13541.62
902.268	13591.62
902.506	13637.62
902.744	13452.62
902.982	13489.62
903.22	13260.62
903.458	13049.62
903.695	12958.62
903.933	12678.62
904.171	12533.62
904.409	12305.62
904.646	12271.62
904.884	12017.62
905.121	11993.62
905.359	11907.62
905.596	11703.62
905.833	11584.62
906.071	11650.62
906.308	11677.62
906.545	11565.62
906.783	11578.62
907.02	11503.62
907.257	11396.62
907.494	11431.62
907.731	11431.62
907.968	11333.62
908.205	11270.62
908.442	11148.62
908.679	11172.62
908.915	11105.62
909.152	10826.62
909.389	10769.62
909.626	10800.62
909.862	10687.62
910.099	10702.62
910.335	10656.62
910.572	10510.62
910.808	10524.62
911.045	10504.62
911.281	10450.62
911.518	10492.62
911.754	10417.62
911.99	10347.62
912.226	10255.62
912.463	10099.62
912.699	10062.62
912.935	10046.62
913.171	9986.62
913.407	9884.62
913.643	9830.62
913.879	9713.62
914.114	9613.62
914.35	9504.62
914.586	9434.62
914.822	9345.62
915.057	9406.62
915.293	9212.62
915.529	9206.62
915.764	9212.62
916	9199.62
916.235	9160.62
916.471	9149.62
916.706	8992.62
916.941	9102.62
917.177	9056.62
917.412	9054.62
917.647	8988.62
917.882	8948.62
918.117	8958.62
918.352	8978.62
918.588	8931.62
918.823	8854.62
919.057	8701.62
919.292	8601.62
919.527	8610.62
919.762	8510.62
919.997	8447.62
920.232	8458.62
920.466	8289.62
920.701	8157.62
920.935	8153.62
921.17	8127.62
921.405	8044.62
921.639	8015.62
921.873	8036.62
922.108	7974.62
922.342	8068.62
922.576	7898.62
922.811	7872.62
923.045	7866.62
923.279	7831.62
923.513	7678.62
923.747	7805.62
923.981	7744.62
924.215	7588.62
924.449	7536.62
924.683	7519.62
924.917	7449.62
925.151	7438.62
925.385	7493.62
925.618	7401.62
925.852	7406.62
926.086	7234.62
926.319	7353.62
926.553	7310.62
926.786	7306.62
927.02	7285.62
927.253	7318.62
927.486	7321.62
927.72	7262.62
927.953	7264.62
928.186	7208.62
928.42	7220.62
928.653	7129.62
928.886	7123.62
929.119	7128.62
929.352	7057.62
929.585	7021.62
929.818	6933.62
930.051	6953.62
930.284	6923.62
930.516	6725.62
930.749	6762.62
930.982	6751.62
931.215	6717.62
931.447	6654.62
931.68	6650.62
931.912	6546.62
932.145	6594.62
932.377	6644.62
932.61	6767.62
932.842	6542.62
933.074	6561.62
933.307	6537.62
933.539	6624.62
933.771	6591.62
934.003	6558.62
934.236	6629.62
934.468	6607.62
934.7	6492.62
934.932	6561.62
935.164	6409.62
935.395	6437.62
935.627	6454.62
935.859	6445.62
936.091	6326.62
936.323	6327.62
936.554	6382.62
936.786	6307.62
937.017	6250.62
937.249	6339.62
937.481	6144.62
937.712	6270.62
937.943	6261.62
938.175	6170.62
938.406	6193.62
938.637	6223.62
938.869	6132.62
939.1	6138.62
939.331	6120.62
939.562	6123.62
939.793	6084.62
940.024	6092.62
940.255	6140.62
940.486	6061.62
940.717	6006.62
940.948	6031.62
941.179	5891.62
941.409	5938.62
941.64	5926.62
941.871	5923.62
942.102	5857.62
942.332	5874.62
942.563	5961.62
942.793	5861.62
943.024	5818.62
943.254	5891.62
943.484	5943.62
943.715	5880.62
943.945	5929.62
944.175	5741.62
944.405	5849.62
944.636	5807.62
944.866	5810.62
945.096	5819.62
945.326	5689.62
945.556	5756.62
945.786	5709.62
946.016	5690.62
946.245	5600.62
946.475	5579.62
946.705	5536.62
946.935	5565.62
947.164	5578.62
947.394	5484.62
947.624	5450.62
947.853	5505.62
948.083	5436.62
948.312	5415.62
948.542	5364.62
948.771	5325.62
949	5340.62
949.23	5309.62
949.459	5352.62
949.688	5387.62
949.917	5278.62
950.146	5298.62
950.375	5389.62
950.604	5240.62
950.833	5359.62
951.062	5295.62
951.291	5215.62
951.52	5239.62
951.749	5247.62
951.978	5182.62
952.206	5191.62
952.435	5123.62
952.664	5178.62
952.892	5115.62
953.121	5139.62
953.349	5125.62
953.578	5128.62
953.806	5054.62
954.035	4931.62
954.263	5002.62
954.491	4947.62
954.719	5018.62
954.948	4957.62
955.176	4922.62
955.404	4825.62
955.632	4885.62
955.86	4843.62
956.088	4834.62
956.316	4844.62
956.544	4826.62
956.772	4724.62
956.999	4744.62
957.227	4776.62
957.455	4648.62
957.683	4642.62
957.91	4640.62
958.138	4624.62
958.365	4595.62
958.593	4583.62
958.82	4490.62
959.048	4607.62
959.275	4498.62
959.502	4499.62
959.73	4437.62
959.957	4526.62
960.184	4488.62
960.411	4462.62
960.638	4533.62
960.865	4439.62
961.092	4489.62
961.319	4385.62
961.546	4445.62
961.773	4443.62
962	4445.62
962.227	4434.62
962.454	4398.62
962.68	4378.62
962.907	4398.62
963.134	4328.62
963.36	4306.62
963.587	4313.62
963.813	4210.62
964.04	4253.62
964.266	4149.62
964.493	4218.62
964.719	4211.62
964.945	4201.62
965.171	4072.62
965.398	4138.62
965.624	4089.62
965.85	4042.62
966.076	4027.62
966.302	4018.62
966.528	3997.62
966.754	4033.62
966.98	4017.62
967.206	3949.62
967.431	3896.62
967.657	4019.62
967.883	3988.62
968.109	3930.62
968.334	3885.62
968.56	3866.62
968.785	3863.62
969.011	3823.62
969.236	3875.62
969.462	3836.62
969.687	3834.62
969.912	3842.62
970.138	3859.62
970.363	3804.62
970.588	3839.62
970.813	3779.62
971.038	3723.62
971.263	3745.62
971.488	3750.62
971.713	3770.62
971.938	3727.62
972.163	3663.62
972.388	3644.62
972.613	3616.62
972.838	3613.62
973.062	3625.62
973.287	3574.62
973.512	3522.62
973.736	3579.62
973.961	3517.62
974.185	3494.62
974.41	3503.62
974.634	3392.62
974.858	3400.62
975.083	3472.62
975.307	3426.62
975.531	3376.62
975.755	3296.62
975.98	3337.62
976.204	3267.62
976.428	3226.62
976.652	3297.62
976.876	3234.62
977.1	3277.62
977.324	3204.62
977.547	3286.62
977.771	3268.62
977.995	3212.62
978.219	3137.62
978.442	3265.62
978.666	3195.62
978.89	3194.62
979.113	3220.62
979.337	3160.62
979.56	3105.62
979.783	3216.62
980.007	3043.62
980.23	3106.62
980.453	3061.62
980.677	3053.62
980.9	3102.62
981.123	2981.62
981.346	3095.62
981.569	3011.62
981.792	3058.62
982.015	2960.62
982.238	2959.62
982.461	2996.62
982.684	2945.62
982.907	2883.62
983.129	2909.62
983.352	2924.62
983.575	2877.62
983.797	2894.62
984.02	2831.62
984.242	2819.62
984.465	2835.62
984.687	2833.62
984.91	2842.62
985.132	2835.62
985.354	2833.62
985.577	2818.62
985.799	2771.62
986.021	2697.62
986.243	2705.62
986.465	2720.62
986.687	2790.62
986.909	2814.62
987.131	2704.62
987.353	2664.62
987.575	2728.62
987.797	2685.62
988.019	2586.62
988.241	2647.62
988.462	2607.62
988.684	2652.62
988.906	2719.62
989.127	2684.62
989.349	2551.62
989.57	2572.62
989.792	2642.62
990.013	2634.62
990.234	2615.62
990.456	2654.62
990.677	2615.62
990.898	2574.62
991.119	2553.62
991.341	2580.62
991.562	2531.62
991.783	2574.62
992.004	2450.62
992.225	2449.62
992.446	2481.62
992.667	2393.62
992.887	2471.62
993.108	2342.62
993.329	2494.62
993.55	2430.62
993.77	2358.62
993.991	2341.62
994.212	2362.62
994.432	2343.62
994.653	2336.62
994.873	2339.62
995.093	2230.62
995.314	2306.62
995.534	2331.62
995.754	2336.62
995.975	2346.62
996.195	2262.62
996.415	2295.62
996.635	2253.62
996.855	2287.62
997.075	2276.62
997.295	2270.62
997.515	2256.62
997.735	2304.62
997.955	2219.62
998.174	2227.62
998.394	2206.62
998.614	2273.62
998.834	2189.62
999.053	2282.62
999.273	2231.62
999.492	2244.62
999.712	2211.62
999.931	2113.62
1000.151	2206.62
1000.37	2142.62
1000.589	2248.62
1000.809	2101.62
1001.028	2280.62
1001.247	2167.62
1001.466	2042.62
1001.685	2152.62
1001.904	2120.62
1002.123	2096.62
1002.342	2126.62
1002.561	2054.62
1002.78	2060.62
1002.999	2077.62
1003.218	2033.62
1003.436	2028.62
1003.655	2078.62
1003.874	2025.62
1004.092	2009.62
1004.311	2065.62
1004.53	2015.62
1004.748	2082.62
1004.966	1989.62
1005.185	2026.62
1005.403	2045.62
1005.622	2017.62
1005.84	2073.62
1006.058	1978.62
1006.276	2000.62
1006.494	2474.62
1006.712	1998.62
1006.931	2038.62
1007.149	1984.62
1007.367	1979.62
1007.584	2000.62
1007.802	2034.62
1008.02	1990.62
1008.238	2090.62
1008.456	2083.62
1008.673	1936.62
1008.891	2072.62
1009.109	2067.62
1009.326	2082.62
1009.544	2200.62
1009.761	2094.62
1009.979	2207.62
1010.196	2268.62
1010.413	2383.62
1010.631	2442.62
1010.848	2481.62
1011.065	2519.62
1011.282	2445.62
1011.5	2390.62
1011.717	2485.62
1011.934	2415.62
1012.151	2439.62
1012.368	2407.62
1012.585	2382.62
1012.801	2418.62
1013.018	2387.62
1013.235	2331.62
1013.452	2354.62
1013.669	2367.62
1013.885	2357.62
1014.102	2416.62
1014.318	2346.62
1014.535	2344.62
1014.751	2364.62
1014.968	2350.62
1015.184	2346.62
1015.401	2283.62
1015.617	2294.62
1015.833	2229.62
1016.049	2200.62
1016.266	2191.62
1016.482	2189.62
1016.698	2105.62
1016.914	2154.62
1017.13	2040.62
1017.346	2049.62
1017.562	2122.62
1017.778	2064.62
1017.993	1988.62
1018.209	2054.62
1018.425	2011.62
1018.641	1990.62
1018.856	1943.62
1019.072	1986.62
1019.288	2037.62
1019.503	1957.62
1019.719	1903.62
1019.934	1900.62
1020.149	1951.62
1020.365	1897.62
1020.58	1853.62
1020.795	1882.62
1021.011	1742.62
1021.226	1726.62
1021.441	1762.62
1021.656	1641.62
1021.871	1614.62
1022.086	1587.62
1022.301	1591.62
1022.516	1551.62
1022.731	1588.62
1022.946	1498.62
1023.16	1467.62
1023.375	1431.62
1023.59	1431.62
1023.804	1365.62
1024.019	1457.62
1024.234	1323.62
1024.448	1335.62
1024.663	1287.62
1024.877	1266.62
1025.092	1268.62
1025.306	1285.62
1025.52	1198.62
1025.734	1236.62
1025.949	1166.62
1026.163	1119.62
1026.377	1070.62
1026.591	1112.62
1026.805	1041.62
1027.019	1031.62
1027.233	1006.62
1027.447	935.62
1027.661	1038.62
1027.875	946.62
1028.088	964.62
1028.302	884.62
1028.516	863.62
1028.73	856.62
1028.943	845.62
1029.157	779.62
1029.37	734.62
1029.584	-3.38
1029.797	-1.38
1030.011	-2.38
1030.224	-0.38
