Data from QEP037381__11__14-13-43-766.txt Node

Date: Wed Dec 21 14:13:43 EST 2022
User: dcclab
Spectrometer: QEP03738
Trigger mode: 4
Integration Time (sec): 1.000000E1
Scans to average: 1
Electric dark correction enabled: true
Nonlinearity correction enabled: false
Boxcar width: 0
XAxis mode: Wavelengths
Number of Pixels in Spectrum: 1044
>>>>>Begin Spectral Data<<<<<
784.041	11.5
784.3	2.5
784.558	-2.5
784.817	-3.5
785.075	96527.5
785.334	16531.5
785.592	7727.5
785.851	5310.5
786.109	4011.5
786.368	3110.5
786.626	2509.5
786.884	2082.5
787.143	1735.5
787.401	1440.5
787.659	1323.5
787.917	1126.5
788.175	1054.5
788.433	928.5
788.691	832.5
788.949	768.5
789.207	743.5
789.465	653.5
789.723	637.5
789.98	574.5
790.238	616.5
790.496	552.5
790.753	559.5
791.011	609.5
791.268	533.5
791.526	522.5
791.783	536.5
792.041	537.5
792.298	448.5
792.556	511.5
792.813	476.5
793.07	472.5
793.327	440.5
793.584	536.5
793.841	461.5
794.099	461.5
794.356	528.5
794.613	423.5
794.869	471.5
795.126	441.5
795.383	433.5
795.64	445.5
795.897	405.5
796.153	450.5
796.41	449.5
796.667	433.5
796.923	419.5
797.18	436.5
797.436	478.5
797.693	425.5
797.949	475.5
798.206	513.5
798.462	425.5
798.718	489.5
798.974	471.5
799.231	501.5
799.487	502.5
799.743	505.5
799.999	549.5
800.255	538.5
800.511	526.5
800.767	563.5
801.023	572.5
801.279	605.5
801.534	659.5
801.79	713.5
802.046	766.5
802.302	903.5
802.557	1063.5
802.813	1351.5
803.068	1681.5
803.324	2349.5
803.579	3246.5
803.835	4456.5
804.09	6144.5
804.345	8051.5
804.601	10181.5
804.856	12367.5
805.111	14194.5
805.366	15613.5
805.621	16808.5
805.876	17592.5
806.131	18013.5
806.386	18402.5
806.641	18627.5
806.896	18966.5
807.151	19329.5
807.406	19651.5
807.661	20008.5
807.915	20241.5
808.17	20514.5
808.425	20754.5
808.679	20921.5
808.934	21138.5
809.188	21422.5
809.443	21571.5
809.697	21685.5
809.951	21858.5
810.206	22079.5
810.46	22388.5
810.714	22405.5
810.968	22755.5
811.223	22725.5
811.477	22973.5
811.731	23237.5
811.985	23269.5
812.239	23370.5
812.493	23517.5
812.747	23618.5
813	23591.5
813.254	23741.5
813.508	23792.5
813.762	23938.5
814.015	23991.5
814.269	24122.5
814.522	24291.5
814.776	24627.5
815.03	24909.5
815.283	25296.5
815.536	25675.5
815.79	25961.5
816.043	26349.5
816.296	26779.5
816.55	27087.5
816.803	27304.5
817.056	27690.5
817.309	27921.5
817.562	28157.5
817.815	28374.5
818.068	28619.5
818.321	28929.5
818.574	29152.5
818.827	29553.5
819.079	29908.5
819.332	30436.5
819.585	30744.5
819.838	31128.5
820.09	31350.5
820.343	31589.5
820.595	31548.5
820.848	31755.5
821.1	31882.5
821.353	31968.5
821.605	31829.5
821.857	31841.5
822.11	31678.5
822.362	31690.5
822.614	31539.5
822.866	31632.5
823.118	31617.5
823.37	31761.5
823.622	31676.5
823.874	31766.5
824.126	32122.5
824.378	32024.5
824.63	32045.5
824.882	32074.5
825.134	31979.5
825.385	31907.5
825.637	31996.5
825.888	31824.5
826.14	31892.5
826.392	31597.5
826.643	31460.5
826.895	31398.5
827.146	31171.5
827.397	31215.5
827.649	31263.5
827.9	31070.5
828.151	31246.5
828.402	31227.5
828.653	31227.5
828.905	31458.5
829.156	31452.5
829.407	31383.5
829.658	31424.5
829.909	31370.5
830.159	31490.5
830.41	31453.5
830.661	31145.5
830.912	30927.5
831.162	30817.5
831.413	30773.5
831.664	30688.5
831.914	30666.5
832.165	30713.5
832.415	30651.5
832.666	30649.5
832.916	30728.5
833.167	30667.5
833.417	30613.5
833.667	30423.5
833.917	30369.5
834.168	30242.5
834.418	30196.5
834.668	30156.5
834.918	29862.5
835.168	29919.5
835.418	29819.5
835.668	29666.5
835.918	29725.5
836.167	29466.5
836.417	29444.5
836.667	29471.5
836.917	29329.5
837.166	29246.5
837.416	29495.5
837.666	29409.5
837.915	29304.5
838.165	29081.5
838.414	29100.5
838.663	29027.5
838.913	29023.5
839.162	28887.5
839.411	28865.5
839.661	28759.5
839.91	28782.5
840.159	28618.5
840.408	28699.5
840.657	28674.5
840.906	28672.5
841.155	28621.5
841.404	28661.5
841.653	28645.5
841.902	28829.5
842.15	28642.5
842.399	28684.5
842.648	28667.5
842.897	28517.5
843.145	28304.5
843.394	28212.5
843.642	28048.5
843.891	27921.5
844.139	27779.5
844.388	27601.5
844.636	27492.5
844.884	27373.5
845.133	27350.5
845.381	27357.5
845.629	27410.5
845.877	27311.5
846.125	27367.5
846.373	27188.5
846.621	27050.5
846.869	27056.5
847.117	26884.5
847.365	26659.5
847.613	26678.5
847.861	26552.5
848.108	26500.5
848.356	26514.5
848.604	26349.5
848.851	26341.5
849.099	26537.5
849.346	26541.5
849.594	26538.5
849.841	26772.5
850.089	26875.5
850.336	26792.5
850.583	26923.5
850.831	26590.5
851.078	26321.5
851.325	26360.5
851.572	26481.5
851.819	26120.5
852.066	25658.5
852.313	25248.5
852.56	25184.5
852.807	25118.5
853.054	24939.5
853.301	25033.5
853.548	24960.5
853.794	25078.5
854.041	25243.5
854.288	25202.5
854.534	25391.5
854.781	25361.5
855.028	25354.5
855.274	25345.5
855.52	25161.5
855.767	25010.5
856.013	25074.5
856.26	25296.5
856.506	24766.5
856.752	24845.5
856.998	24724.5
857.244	24891.5
857.49	25001.5
857.736	24834.5
857.982	24939.5
858.228	24866.5
858.474	24618.5
858.72	24450.5
858.966	24155.5
859.212	24174.5
859.458	23844.5
859.703	23561.5
859.949	23231.5
860.195	23267.5
860.44	23069.5
860.686	22936.5
860.931	23060.5
861.177	22876.5
861.422	22618.5
861.667	22529.5
861.913	22679.5
862.158	22640.5
862.403	22654.5
862.648	22758.5
862.893	22803.5
863.138	22780.5
863.384	22634.5
863.629	22552.5
863.873	22732.5
864.118	22542.5
864.363	22305.5
864.608	22355.5
864.853	22137.5
865.098	22116.5
865.342	21954.5
865.587	21936.5
865.832	21882.5
866.076	21814.5
866.321	21709.5
866.565	21715.5
866.81	21560.5
867.054	21458.5
867.298	21531.5
867.543	21373.5
867.787	21464.5
868.031	21339.5
868.275	21228.5
868.519	21107.5
868.764	21095.5
869.008	21096.5
869.252	21005.5
869.496	20983.5
869.739	20851.5
869.983	20843.5
870.227	20850.5
870.471	20812.5
870.715	20905.5
870.958	21140.5
871.202	21000.5
871.446	21033.5
871.689	21026.5
871.933	21074.5
872.176	21021.5
872.42	20848.5
872.663	20917.5
872.906	20841.5
873.15	20830.5
873.393	20755.5
873.636	20871.5
873.879	20515.5
874.122	20316.5
874.366	19993.5
874.609	19850.5
874.852	19611.5
875.095	19641.5
875.337	19503.5
875.58	19376.5
875.823	19267.5
876.066	19208.5
876.309	19251.5
876.551	19022.5
876.794	18921.5
877.037	18952.5
877.279	18845.5
877.522	18896.5
877.764	18925.5
878.007	18851.5
878.249	18845.5
878.491	18789.5
878.734	18738.5
878.976	18726.5
879.218	18528.5
879.46	18433.5
879.702	18355.5
879.945	18149.5
880.187	18003.5
880.429	17954.5
880.671	17844.5
880.912	17698.5
881.154	17644.5
881.396	17575.5
881.638	17580.5
881.88	17538.5
882.121	17402.5
882.363	17531.5
882.605	17502.5
882.846	17542.5
883.088	17467.5
883.329	17408.5
883.571	17439.5
883.812	17524.5
884.053	17898.5
884.295	18245.5
884.536	18369.5
884.777	18348.5
885.018	18086.5
885.259	18021.5
885.5	17853.5
885.742	18102.5
885.982	17742.5
886.223	17567.5
886.464	17521.5
886.705	17406.5
886.946	17158.5
887.187	16892.5
887.428	16688.5
887.668	16512.5
887.909	16302.5
888.15	16153.5
888.39	16076.5
888.631	16012.5
888.871	15816.5
889.111	15660.5
889.352	15640.5
889.592	15343.5
889.833	15337.5
890.073	15204.5
890.313	15284.5
890.553	14972.5
890.793	14907.5
891.033	14829.5
891.273	14738.5
891.513	14656.5
891.753	14741.5
891.993	14630.5
892.233	14633.5
892.473	14794.5
892.713	14667.5
892.952	14671.5
893.192	14711.5
893.432	14692.5
893.671	14677.5
893.911	14601.5
894.15	14454.5
894.39	14289.5
894.629	14265.5
894.869	14146.5
895.108	14139.5
895.347	14027.5
895.587	14043.5
895.826	13918.5
896.065	13805.5
896.304	13891.5
896.543	13844.5
896.782	13770.5
897.021	13780.5
897.26	13703.5
897.499	13667.5
897.738	13652.5
897.977	13447.5
898.216	13414.5
898.454	13366.5
898.693	13168.5
898.932	13200.5
899.17	13140.5
899.409	13003.5
899.647	13012.5
899.886	12966.5
900.124	12983.5
900.363	12934.5
900.601	13064.5
900.839	13033.5
901.078	13071.5
901.316	13056.5
901.554	13137.5
901.792	13115.5
902.03	13063.5
902.268	13112.5
902.506	13126.5
902.744	12958.5
902.982	12957.5
903.22	12783.5
903.458	12666.5
903.695	12463.5
903.933	12266.5
904.171	12113.5
904.409	11919.5
904.646	11819.5
904.884	11604.5
905.121	11603.5
905.359	11409.5
905.596	11285.5
905.833	11194.5
906.071	11253.5
906.308	11213.5
906.545	11094.5
906.783	11053.5
907.02	11047.5
907.257	11036.5
907.494	11010.5
907.731	11027.5
907.968	10907.5
908.205	10828.5
908.442	10806.5
908.679	10665.5
908.915	10587.5
909.152	10552.5
909.389	10373.5
909.626	10395.5
909.862	10330.5
910.099	10302.5
910.335	10242.5
910.572	10141.5
910.808	10126.5
911.045	10035.5
911.281	9990.5
911.518	10037.5
911.754	9934.5
911.99	9913.5
912.226	9850.5
912.463	9764.5
912.699	9638.5
912.935	9618.5
913.171	9578.5
913.407	9426.5
913.643	9419.5
913.879	9295.5
914.114	9257.5
914.35	9121.5
914.586	9081.5
914.822	8937.5
915.057	8983.5
915.293	8809.5
915.529	8787.5
915.764	8849.5
916	8723.5
916.235	8759.5
916.471	8766.5
916.706	8617.5
916.941	8703.5
917.177	8644.5
917.412	8699.5
917.647	8710.5
917.882	8617.5
918.117	8626.5
918.352	8506.5
918.588	8536.5
918.823	8438.5
919.057	8344.5
919.292	8217.5
919.527	8318.5
919.762	8122.5
919.997	8090.5
920.232	7956.5
920.466	7955.5
920.701	7774.5
920.935	7795.5
921.17	7721.5
921.405	7704.5
921.639	7767.5
921.873	7682.5
922.108	7619.5
922.342	7626.5
922.576	7516.5
922.811	7545.5
923.045	7553.5
923.279	7514.5
923.513	7384.5
923.747	7432.5
923.981	7336.5
924.215	7232.5
924.449	7177.5
924.683	7142.5
924.917	7143.5
925.151	7097.5
925.385	7141.5
925.618	7068.5
925.852	7046.5
926.086	6936.5
926.319	7024.5
926.553	6989.5
926.786	7020.5
927.02	7009.5
927.253	6991.5
927.486	6982.5
927.72	6936.5
927.953	6949.5
928.186	6908.5
928.42	6858.5
928.653	6844.5
928.886	6793.5
929.119	6790.5
929.352	6817.5
929.585	6756.5
929.818	6595.5
930.051	6640.5
930.284	6556.5
930.516	6452.5
930.749	6424.5
930.982	6461.5
931.215	6435.5
931.447	6335.5
931.68	6379.5
931.912	6292.5
932.145	6299.5
932.377	6297.5
932.61	6437.5
932.842	6215.5
933.074	6279.5
933.307	6224.5
933.539	6323.5
933.771	6317.5
934.003	6229.5
934.236	6277.5
934.468	6347.5
934.7	6222.5
934.932	6230.5
935.164	6171.5
935.395	6134.5
935.627	6138.5
935.859	6098.5
936.091	6011.5
936.323	6090.5
936.554	6094.5
936.786	6042.5
937.017	5924.5
937.249	5975.5
937.481	5904.5
937.712	5939.5
937.943	5922.5
938.175	5919.5
938.406	5920.5
938.637	5905.5
938.869	5831.5
939.1	5876.5
939.331	5802.5
939.562	5850.5
939.793	5814.5
940.024	5823.5
940.255	5794.5
940.486	5691.5
940.717	5725.5
940.948	5675.5
941.179	5565.5
941.409	5671.5
941.64	5649.5
941.871	5681.5
942.102	5599.5
942.332	5545.5
942.563	5673.5
942.793	5633.5
943.024	5555.5
943.254	5585.5
943.484	5618.5
943.715	5594.5
943.945	5596.5
944.175	5503.5
944.405	5522.5
944.636	5418.5
944.866	5564.5
945.096	5540.5
945.326	5403.5
945.556	5488.5
945.786	5481.5
946.016	5413.5
946.245	5367.5
946.475	5330.5
946.705	5259.5
946.935	5260.5
947.164	5258.5
947.394	5240.5
947.624	5193.5
947.853	5199.5
948.083	5113.5
948.312	5160.5
948.542	5022.5
948.771	5060.5
949	5044.5
949.23	5053.5
949.459	5043.5
949.688	5110.5
949.917	5103.5
950.146	5050.5
950.375	5086.5
950.604	4964.5
950.833	5077.5
951.062	5038.5
951.291	4998.5
951.52	4919.5
951.749	4943.5
951.978	4914.5
952.206	4909.5
952.435	4880.5
952.664	4966.5
952.892	4935.5
953.121	4893.5
953.349	4888.5
953.578	4865.5
953.806	4816.5
954.035	4712.5
954.263	4750.5
954.491	4694.5
954.719	4685.5
954.948	4672.5
955.176	4692.5
955.404	4624.5
955.632	4613.5
955.86	4614.5
956.088	4620.5
956.316	4610.5
956.544	4614.5
956.772	4520.5
956.999	4484.5
957.227	4588.5
957.455	4420.5
957.683	4413.5
957.91	4413.5
958.138	4369.5
958.365	4333.5
958.593	4363.5
958.82	4302.5
959.048	4333.5
959.275	4290.5
959.502	4289.5
959.73	4247.5
959.957	4247.5
960.184	4323.5
960.411	4254.5
960.638	4336.5
960.865	4242.5
961.092	4254.5
961.319	4179.5
961.546	4215.5
961.773	4261.5
962	4215.5
962.227	4235.5
962.454	4173.5
962.68	4174.5
962.907	4112.5
963.134	4129.5
963.36	4103.5
963.587	4127.5
963.813	3996.5
964.04	4030.5
964.266	3961.5
964.493	4021.5
964.719	3979.5
964.945	3981.5
965.171	3902.5
965.398	3951.5
965.624	3913.5
965.85	3825.5
966.076	3841.5
966.302	3878.5
966.528	3805.5
966.754	3810.5
966.98	3830.5
967.206	3802.5
967.431	3683.5
967.657	3812.5
967.883	3769.5
968.109	3786.5
968.334	3706.5
968.56	3711.5
968.785	3697.5
969.011	3609.5
969.236	3686.5
969.462	3672.5
969.687	3634.5
969.912	3706.5
970.138	3682.5
970.363	3597.5
970.588	3624.5
970.813	3579.5
971.038	3537.5
971.263	3553.5
971.488	3538.5
971.713	3548.5
971.938	3541.5
972.163	3448.5
972.388	3468.5
972.613	3434.5
972.838	3458.5
973.062	3397.5
973.287	3398.5
973.512	3351.5
973.736	3379.5
973.961	3374.5
974.185	3335.5
974.41	3366.5
974.634	3243.5
974.858	3280.5
975.083	3255.5
975.307	3316.5
975.531	3227.5
975.755	3158.5
975.98	3175.5
976.204	3126.5
976.428	3110.5
976.652	3051.5
976.876	3072.5
977.1	3110.5
977.324	3053.5
977.547	3073.5
977.771	3114.5
977.995	3058.5
978.219	3002.5
978.442	3119.5
978.666	3083.5
978.89	3038.5
979.113	3009.5
979.337	3001.5
979.56	2964.5
979.783	3018.5
980.007	2938.5
980.23	2979.5
980.453	2920.5
980.677	2937.5
980.9	2896.5
981.123	2797.5
981.346	2922.5
981.569	2868.5
981.792	2913.5
982.015	2855.5
982.238	2815.5
982.461	2833.5
982.684	2768.5
982.907	2749.5
983.129	2721.5
983.352	2786.5
983.575	2725.5
983.797	2745.5
984.02	2678.5
984.242	2676.5
984.465	2678.5
984.687	2696.5
984.91	2704.5
985.132	2702.5
985.354	2688.5
985.577	2652.5
985.799	2606.5
986.021	2558.5
986.243	2594.5
986.465	2579.5
986.687	2639.5
986.909	2660.5
987.131	2622.5
987.353	2527.5
987.575	2564.5
987.797	2513.5
988.019	2484.5
988.241	2558.5
988.462	2467.5
988.684	2539.5
988.906	2568.5
989.127	2580.5
989.349	2445.5
989.57	2493.5
989.792	2505.5
990.013	2527.5
990.234	2502.5
990.456	2546.5
990.677	2474.5
990.898	2451.5
991.119	2406.5
991.341	2452.5
991.562	2384.5
991.783	2459.5
992.004	2362.5
992.225	2359.5
992.446	2389.5
992.667	2298.5
992.887	2378.5
993.108	2275.5
993.329	2366.5
993.55	2330.5
993.77	2263.5
993.991	2247.5
994.212	2268.5
994.432	2272.5
994.653	2293.5
994.873	2227.5
995.093	2123.5
995.314	2190.5
995.534	2267.5
995.754	2261.5
995.975	2272.5
996.195	2128.5
996.415	2205.5
996.635	2190.5
996.855	2184.5
997.075	2153.5
997.295	2155.5
997.515	2128.5
997.735	2192.5
997.955	2159.5
998.174	2155.5
998.394	2114.5
998.614	2150.5
998.834	2091.5
999.053	2175.5
999.273	2124.5
999.492	2181.5
999.712	2114.5
999.931	2062.5
1000.151	2136.5
1000.37	2068.5
1000.589	2118.5
1000.809	2051.5
1001.028	2136.5
1001.247	2057.5
1001.466	1944.5
1001.685	2078.5
1001.904	2038.5
1002.123	2020.5
1002.342	2007.5
1002.561	1948.5
1002.78	2016.5
1002.999	2054.5
1003.218	1967.5
1003.436	1971.5
1003.655	1989.5
1003.874	1928.5
1004.092	1941.5
1004.311	2010.5
1004.53	1930.5
1004.748	1985.5
1004.966	1929.5
1005.185	1971.5
1005.403	1957.5
1005.622	1939.5
1005.84	2022.5
1006.058	1923.5
1006.276	1907.5
1006.494	2405.5
1006.712	1894.5
1006.931	1953.5
1007.149	1893.5
1007.367	1892.5
1007.584	1951.5
1007.802	1981.5
1008.02	1928.5
1008.238	2019.5
1008.456	2034.5
1008.673	1898.5
1008.891	2010.5
1009.109	1959.5
1009.326	2027.5
1009.544	2095.5
1009.761	2048.5
1009.979	2149.5
1010.196	2196.5
1010.413	2265.5
1010.631	2353.5
1010.848	2391.5
1011.065	2436.5
1011.282	2345.5
1011.5	2274.5
1011.717	2415.5
1011.934	2361.5
1012.151	2379.5
1012.368	2340.5
1012.585	2276.5
1012.801	2360.5
1013.018	2280.5
1013.235	2264.5
1013.452	2312.5
1013.669	2311.5
1013.885	2260.5
1014.102	2358.5
1014.318	2338.5
1014.535	2277.5
1014.751	2271.5
1014.968	2272.5
1015.184	2281.5
1015.401	2184.5
1015.617	2230.5
1015.833	2142.5
1016.049	2170.5
1016.266	2118.5
1016.482	2092.5
1016.698	2030.5
1016.914	2072.5
1017.13	1990.5
1017.346	1994.5
1017.562	2037.5
1017.778	1991.5
1017.993	1939.5
1018.209	1994.5
1018.425	1961.5
1018.641	1943.5
1018.856	1909.5
1019.072	1928.5
1019.288	1969.5
1019.503	1908.5
1019.719	1832.5
1019.934	1844.5
1020.149	1920.5
1020.365	1853.5
1020.58	1780.5
1020.795	1816.5
1021.011	1714.5
1021.226	1691.5
1021.441	1686.5
1021.656	1614.5
1021.871	1539.5
1022.086	1556.5
1022.301	1529.5
1022.516	1517.5
1022.731	1563.5
1022.946	1465.5
1023.16	1456.5
1023.375	1395.5
1023.59	1383.5
1023.804	1346.5
1024.019	1428.5
1024.234	1292.5
1024.448	1320.5
1024.663	1229.5
1024.877	1255.5
1025.092	1262.5
1025.306	1238.5
1025.52	1160.5
1025.734	1225.5
1025.949	1139.5
1026.163	1116.5
1026.377	1048.5
1026.591	1084.5
1026.805	986.5
1027.019	1010.5
1027.233	962.5
1027.447	902.5
1027.661	989.5
1027.875	937.5
1028.088	937.5
1028.302	830.5
1028.516	845.5
1028.73	825.5
1028.943	809.5
1029.157	767.5
1029.37	726.5
1029.584	-0.5
1029.797	-0.5
1030.011	-2.5
1030.224	-4.5
