Data from QEP037381__24__14-15-53-766.txt Node

Date: Wed Dec 21 14:15:53 EST 2022
User: dcclab
Spectrometer: QEP03738
Trigger mode: 4
Integration Time (sec): 1.000000E1
Scans to average: 1
Electric dark correction enabled: true
Nonlinearity correction enabled: false
Boxcar width: 0
XAxis mode: Wavelengths
Number of Pixels in Spectrum: 1044
>>>>>Begin Spectral Data<<<<<
784.041	13
784.3	1
784.558	-1
784.817	-6
785.075	97857
785.334	16807
785.592	7871
785.851	5418
786.109	4104
786.368	3187
786.626	2553
786.884	2148
787.143	1812
787.401	1554
787.659	1371
787.917	1170
788.175	1064
788.433	935
788.691	850
788.949	767
789.207	753
789.465	652
789.723	623
789.98	580
790.238	599
790.496	587
790.753	551
791.011	585
791.268	554
791.526	521
791.783	542
792.041	526
792.298	422
792.556	491
792.813	485
793.07	457
793.327	449
793.584	509
793.841	436
794.099	452
794.356	521
794.613	422
794.869	462
795.126	432
795.383	409
795.64	421
795.897	391
796.153	440
796.41	421
796.667	420
796.923	429
797.18	423
797.436	463
797.693	422
797.949	457
798.206	505
798.462	407
798.718	458
798.974	438
799.231	479
799.487	468
799.743	487
799.999	511
800.255	513
800.511	473
800.767	525
801.023	516
801.279	542
801.534	587
801.79	630
802.046	655
802.302	783
802.557	863
802.813	1071
803.068	1310
803.324	1804
803.579	2442
803.835	3350
804.09	4637
804.345	6026
804.601	7608
804.856	9280
805.111	10747
805.366	11825
805.621	12698
805.876	13317
806.131	13659
806.386	13874
806.641	14126
806.896	14369
807.151	14637
807.406	14781
807.661	15180
807.915	15242
808.17	15539
808.425	15685
808.679	15777
808.934	15975
809.188	16126
809.443	16293
809.697	16610
809.951	16506
810.206	16717
810.46	16961
810.714	17062
810.968	17206
811.223	17392
811.477	17511
811.731	17608
811.985	17750
812.239	17654
812.493	17857
812.747	17902
813	17917
813.254	18083
813.508	18135
813.762	18193
814.015	18279
814.269	18462
814.522	18614
814.776	18783
815.03	19030
815.283	19311
815.536	19580
815.79	19934
816.043	20276
816.296	20424
816.55	20570
816.803	20825
817.056	21335
817.309	21434
817.562	21473
817.815	21844
818.068	21873
818.321	22010
818.574	22412
818.827	22780
819.079	22916
819.332	23449
819.585	23650
819.838	24017
820.09	24018
820.343	24218
820.595	24248
820.848	24417
821.1	24538
821.353	24566
821.605	24760
821.857	24737
822.11	24375
822.362	24313
822.614	24291
822.866	24342
823.118	24464
823.37	24591
823.622	24623
823.874	24671
824.126	24878
824.378	24729
824.63	24784
824.882	24995
825.134	24850
825.385	24907
825.637	24928
825.888	24699
826.14	24738
826.392	24756
826.643	24577
826.895	24421
827.146	24327
827.397	24263
827.649	24338
827.9	24266
828.151	24263
828.402	24397
828.653	24524
828.905	24498
829.156	24636
829.407	24602
829.658	24716
829.909	24844
830.159	24993
830.41	24776
830.661	24569
830.912	24438
831.162	24361
831.413	24272
831.664	24353
831.914	24277
832.165	24333
832.415	24246
832.666	24341
832.916	24365
833.167	24275
833.417	24285
833.667	24224
833.917	24109
834.168	24103
834.418	24037
834.668	23992
834.918	23816
835.168	23829
835.418	23750
835.668	23665
835.918	23660
836.167	23626
836.417	23455
836.667	23516
836.917	23550
837.166	23553
837.416	23479
837.666	23578
837.915	23568
838.165	23491
838.414	23435
838.663	23481
838.913	23479
839.162	23296
839.411	23434
839.661	23346
839.91	23301
840.159	23222
840.408	23215
840.657	23371
840.906	23362
841.155	23343
841.404	23415
841.653	23329
841.902	23381
842.15	23493
842.399	23597
842.648	23466
842.897	23445
843.145	23260
843.394	23111
843.642	22999
843.891	22860
844.139	22779
844.388	22668
844.636	22599
844.884	22581
845.133	22507
845.381	22457
845.629	22536
845.877	22489
846.125	22475
846.373	22406
846.621	22342
846.869	22283
847.117	22278
847.365	22041
847.613	22097
847.861	22033
848.108	22037
848.356	22041
848.604	21937
848.851	22036
849.099	22023
849.346	21983
849.594	22137
849.841	22229
850.089	22271
850.336	22387
850.583	22300
850.831	22215
851.078	22139
851.325	22144
851.572	22300
851.819	21974
852.066	21593
852.313	21267
852.56	21143
852.807	21082
853.054	21089
853.301	21037
853.548	21021
853.794	21256
854.041	21249
854.288	21470
854.534	21561
854.781	21498
855.028	21422
855.274	21510
855.52	21427
855.767	21542
856.013	21755
856.26	21930
856.506	21311
856.752	21228
856.998	21268
857.244	21346
857.49	21482
857.736	21551
857.982	21615
858.228	21465
858.474	21283
858.72	21026
858.966	20843
859.212	20644
859.458	20527
859.703	20201
859.949	20086
860.195	19991
860.44	19962
860.686	19943
860.931	20003
861.177	19770
861.422	19565
861.667	19606
861.913	19374
862.158	19425
862.403	19495
862.648	19526
862.893	19596
863.138	19514
863.384	19471
863.629	19495
863.873	19495
864.118	19508
864.363	19344
864.608	19353
864.853	19253
865.098	19169
865.342	19089
865.587	19012
865.832	19000
866.076	18985
866.321	18905
866.565	18912
866.81	18729
867.054	18879
867.298	18614
867.543	18690
867.787	18679
868.031	18677
868.275	18582
868.519	18530
868.764	18528
869.008	18575
869.252	18522
869.496	18391
869.739	18549
869.983	18623
870.227	18639
870.471	18520
870.715	18636
870.958	18774
871.202	18848
871.446	18897
871.689	18864
871.933	18817
872.176	18870
872.42	18819
872.663	18775
872.906	18880
873.15	18970
873.393	19022
873.636	19075
873.879	18785
874.122	18632
874.366	18243
874.609	17972
874.852	17883
875.095	17695
875.337	17631
875.58	17447
875.823	17421
876.066	17387
876.309	17348
876.551	17114
876.794	17088
877.037	17109
877.279	17009
877.522	17004
877.764	17143
878.007	16889
878.249	16989
878.491	16922
878.734	16837
878.976	16932
879.218	16698
879.46	16692
879.702	16517
879.945	16260
880.187	16237
880.429	16187
880.671	16048
880.912	16036
881.154	15911
881.396	15877
881.638	15947
881.88	15928
882.121	15957
882.363	15937
882.605	15991
882.846	15901
883.088	15915
883.329	16042
883.571	16135
883.812	16542
884.053	17068
884.295	17572
884.536	17797
884.777	17682
885.018	17517
885.259	17385
885.5	17134
885.742	17470
885.982	17074
886.223	16911
886.464	16755
886.705	16463
886.946	16253
887.187	15873
887.428	15722
887.668	15301
887.909	15080
888.15	14915
888.39	14715
888.631	14707
888.871	14493
889.111	14357
889.352	14247
889.592	14174
889.833	14043
890.073	14023
890.313	13964
890.553	13766
890.793	13757
891.033	13639
891.273	13558
891.513	13555
891.753	13561
891.993	13505
892.233	13556
892.473	13629
892.713	13523
892.952	13557
893.192	13517
893.432	13518
893.671	13592
893.911	13477
894.15	13433
894.39	13267
894.629	13294
894.869	13205
895.108	13166
895.347	13035
895.587	13115
895.826	13006
896.065	12969
896.304	13001
896.543	13003
896.782	12819
897.021	12843
897.26	12867
897.499	12910
897.738	12880
897.977	12698
898.216	12670
898.454	12576
898.693	12502
898.932	12373
899.17	12383
899.409	12321
899.647	12418
899.886	12318
900.124	12366
900.363	12377
900.601	12481
900.839	12588
901.078	12505
901.316	12707
901.554	12790
901.792	12860
902.03	12788
902.268	12866
902.506	12846
902.744	12809
902.982	12682
903.22	12446
903.458	12263
903.695	12106
903.933	11884
904.171	11591
904.409	11377
904.646	11263
904.884	11162
905.121	11083
905.359	10976
905.596	10903
905.833	10656
906.071	10682
906.308	10603
906.545	10569
906.783	10559
907.02	10560
907.257	10519
907.494	10498
907.731	10477
907.968	10412
908.205	10376
908.442	10325
908.679	10238
908.915	10242
909.152	10127
909.389	9972
909.626	9886
909.862	9870
910.099	9768
910.335	9835
910.572	9715
910.808	9770
911.045	9641
911.281	9640
911.518	9601
911.754	9616
911.99	9510
912.226	9472
912.463	9336
912.699	9344
912.935	9233
913.171	9204
913.407	9097
913.643	9115
913.879	8994
914.114	8898
914.35	8821
914.586	8753
914.822	8653
915.057	8730
915.293	8495
915.529	8453
915.764	8635
916	8535
916.235	8502
916.471	8501
916.706	8351
916.941	8484
917.177	8432
917.412	8454
917.647	8435
917.882	8266
918.117	8455
918.352	8391
918.588	8371
918.823	8220
919.057	8225
919.292	8039
919.527	8153
919.762	7943
919.997	7906
920.232	7817
920.466	7812
920.701	7636
920.935	7603
921.17	7592
921.405	7516
921.639	7585
921.873	7539
922.108	7510
922.342	7533
922.576	7453
922.811	7408
923.045	7416
923.279	7420
923.513	7294
923.747	7273
923.981	7254
924.215	7175
924.449	7209
924.683	7117
924.917	7068
925.151	6990
925.385	7089
925.618	6987
925.852	7059
926.086	6935
926.319	6950
926.553	6936
926.786	7001
927.02	6902
927.253	6979
927.486	6958
927.72	6873
927.953	6946
928.186	6919
928.42	6884
928.653	6838
928.886	6719
929.119	6747
929.352	6775
929.585	6728
929.818	6619
930.051	6637
930.284	6554
930.516	6449
930.749	6431
930.982	6465
931.215	6502
931.447	6386
931.68	6379
931.912	6299
932.145	6311
932.377	6357
932.61	6453
932.842	6292
933.074	6318
933.307	6215
933.539	6411
933.771	6374
934.003	6308
934.236	6317
934.468	6389
934.7	6231
934.932	6297
935.164	6236
935.395	6210
935.627	6167
935.859	6215
936.091	6116
936.323	6172
936.554	6161
936.786	6108
937.017	6013
937.249	6096
937.481	6032
937.712	6027
937.943	5987
938.175	5968
938.406	6026
938.637	6034
938.869	5935
939.1	5981
939.331	5919
939.562	5931
939.793	5937
940.024	5965
940.255	5845
940.486	5817
940.717	5848
940.948	5787
941.179	5744
941.409	5746
941.64	5728
941.871	5766
942.102	5737
942.332	5727
942.563	5831
942.793	5765
943.024	5709
943.254	5704
943.484	5770
943.715	5775
943.945	5734
944.175	5703
944.405	5618
944.636	5663
944.866	5629
945.096	5718
945.326	5578
945.556	5719
945.786	5671
946.016	5592
946.245	5516
946.475	5507
946.705	5499
946.935	5435
947.164	5425
947.394	5357
947.624	5382
947.853	5395
948.083	5386
948.312	5335
948.542	5250
948.771	5176
949	5250
949.23	5237
949.459	5257
949.688	5285
949.917	5226
950.146	5201
950.375	5277
950.604	5187
950.833	5254
951.062	5233
951.291	5157
951.52	5150
951.749	5153
951.978	5101
952.206	5095
952.435	5060
952.664	5122
952.892	5114
953.121	5124
953.349	5110
953.578	5023
953.806	5006
954.035	4992
954.263	4992
954.491	4936
954.719	4961
954.948	4875
955.176	4863
955.404	4810
955.632	4854
955.86	4842
956.088	4824
956.316	4782
956.544	4792
956.772	4735
956.999	4749
957.227	4766
957.455	4660
957.683	4651
957.91	4598
958.138	4574
958.365	4560
958.593	4547
958.82	4447
959.048	4571
959.275	4567
959.502	4493
959.73	4482
959.957	4462
960.184	4500
960.411	4472
960.638	4550
960.865	4443
961.092	4461
961.319	4387
961.546	4505
961.773	4500
962	4414
962.227	4458
962.454	4418
962.68	4367
962.907	4402
963.134	4376
963.36	4315
963.587	4374
963.813	4249
964.04	4284
964.266	4222
964.493	4235
964.719	4203
964.945	4198
965.171	4071
965.398	4166
965.624	4186
965.85	4026
966.076	4061
966.302	4085
966.528	4063
966.754	4056
966.98	4054
967.206	4071
967.431	3939
967.657	4013
967.883	4001
968.109	3987
968.334	3913
968.56	3889
968.785	3916
969.011	3824
969.236	3932
969.462	3863
969.687	3884
969.912	3916
970.138	3875
970.363	3797
970.588	3868
970.813	3835
971.038	3776
971.263	3806
971.488	3811
971.713	3784
971.938	3782
972.163	3668
972.388	3703
972.613	3668
972.838	3659
973.062	3645
973.287	3648
973.512	3575
973.736	3597
973.961	3599
974.185	3538
974.41	3589
974.634	3495
974.858	3496
975.083	3509
975.307	3494
975.531	3469
975.755	3343
975.98	3435
976.204	3330
976.428	3331
976.652	3298
976.876	3276
977.1	3312
977.324	3297
977.547	3316
977.771	3316
977.995	3301
978.219	3224
978.442	3325
978.666	3290
978.89	3251
979.113	3279
979.337	3217
979.56	3190
979.783	3295
980.007	3191
980.23	3155
980.453	3155
980.677	3149
980.9	3185
981.123	3027
981.346	3127
981.569	3143
981.792	3114
982.015	3093
982.238	3056
982.461	3024
982.684	3057
982.907	2971
983.129	2988
983.352	2981
983.575	2976
983.797	2985
984.02	2942
984.242	2921
984.465	2897
984.687	2920
984.91	2907
985.132	2938
985.354	2919
985.577	2914
985.799	2875
986.021	2797
986.243	2844
986.465	2816
986.687	2852
986.909	2919
987.131	2833
987.353	2767
987.575	2798
987.797	2793
988.019	2725
988.241	2742
988.462	2706
988.684	2768
988.906	2841
989.127	2769
989.349	2654
989.57	2696
989.792	2728
990.013	2736
990.234	2748
990.456	2771
990.677	2750
990.898	2708
991.119	2699
991.341	2707
991.562	2618
991.783	2682
992.004	2597
992.225	2583
992.446	2598
992.667	2512
992.887	2599
993.108	2480
993.329	2602
993.55	2576
993.77	2447
993.991	2471
994.212	2506
994.432	2471
994.653	2483
994.873	2485
995.093	2361
995.314	2433
995.534	2482
995.754	2512
995.975	2525
996.195	2428
996.415	2423
996.635	2398
996.855	2462
997.075	2424
997.295	2438
997.515	2422
997.735	2483
997.955	2405
998.174	2424
998.394	2394
998.614	2453
998.834	2371
999.053	2418
999.273	2406
999.492	2413
999.712	2342
999.931	2318
1000.151	2384
1000.37	2308
1000.589	2357
1000.809	2309
1001.028	2356
1001.247	2298
1001.466	2177
1001.685	2336
1001.904	2278
1002.123	2244
1002.342	2236
1002.561	2182
1002.78	2191
1002.999	2281
1003.218	2203
1003.436	2170
1003.655	2208
1003.874	2142
1004.092	2157
1004.311	2216
1004.53	2158
1004.748	2223
1004.966	2138
1005.185	2218
1005.403	2184
1005.622	2154
1005.84	2243
1006.058	2134
1006.276	2166
1006.494	2648
1006.712	2190
1006.931	2234
1007.149	2184
1007.367	2180
1007.584	2251
1007.802	2268
1008.02	2228
1008.238	2344
1008.456	2364
1008.673	2247
1008.891	2436
1009.109	2444
1009.326	2536
1009.544	2623
1009.761	2622
1009.979	2818
1010.196	2936
1010.413	3153
1010.631	3324
1010.848	3433
1011.065	3534
1011.282	3475
1011.5	3365
1011.717	3449
1011.934	3416
1012.151	3416
1012.368	3366
1012.585	3298
1012.801	3342
1013.018	3317
1013.235	3334
1013.452	3353
1013.669	3380
1013.885	3425
1014.102	3415
1014.318	3419
1014.535	3408
1014.751	3383
1014.968	3417
1015.184	3375
1015.401	3245
1015.617	3255
1015.833	3158
1016.049	3150
1016.266	3110
1016.482	3117
1016.698	3008
1016.914	3025
1017.13	2930
1017.346	2915
1017.562	2945
1017.778	2898
1017.993	2807
1018.209	2884
1018.425	2863
1018.641	2791
1018.856	2784
1019.072	2815
1019.288	2839
1019.503	2775
1019.719	2706
1019.934	2663
1020.149	2754
1020.365	2616
1020.58	2583
1020.795	2559
1021.011	2457
1021.226	2403
1021.441	2366
1021.656	2252
1021.871	2143
1022.086	2147
1022.301	2100
1022.516	2053
1022.731	2071
1022.946	1998
1023.16	1939
1023.375	1889
1023.59	1842
1023.804	1770
1024.019	1856
1024.234	1699
1024.448	1688
1024.663	1573
1024.877	1582
1025.092	1577
1025.306	1576
1025.52	1414
1025.734	1487
1025.949	1398
1026.163	1364
1026.377	1297
1026.591	1331
1026.805	1251
1027.019	1228
1027.233	1163
1027.447	1132
1027.661	1218
1027.875	1168
1028.088	1165
1028.302	1071
1028.516	1021
1028.73	1018
1028.943	999
1029.157	926
1029.37	837
1029.584	1
1029.797	-3
1030.011	-2
1030.224	-3
