Data from QEP037381__18__14-14-53-766.txt Node

Date: Wed Dec 21 14:14:53 EST 2022
User: dcclab
Spectrometer: QEP03738
Trigger mode: 4
Integration Time (sec): 1.000000E1
Scans to average: 1
Electric dark correction enabled: true
Nonlinearity correction enabled: false
Boxcar width: 0
XAxis mode: Wavelengths
Number of Pixels in Spectrum: 1044
>>>>>Begin Spectral Data<<<<<
784.041	10.88
784.3	-2.12
784.558	0.88
784.817	-2.12
785.075	106142.88
785.334	18202.88
785.592	8475.88
785.851	5848.88
786.109	4419.88
786.368	3374.88
786.626	2767.88
786.884	2309.88
787.143	1947.88
787.401	1595.88
787.659	1429.88
787.917	1230.88
788.175	1087.88
788.433	1006.88
788.691	871.88
788.949	822.88
789.207	787.88
789.465	689.88
789.723	663.88
789.98	597.88
790.238	644.88
790.496	597.88
790.753	558.88
791.011	620.88
791.268	548.88
791.526	538.88
791.783	547.88
792.041	520.88
792.298	442.88
792.556	517.88
792.813	487.88
793.07	483.88
793.327	458.88
793.584	545.88
793.841	458.88
794.099	482.88
794.356	546.88
794.613	438.88
794.869	472.88
795.126	445.88
795.383	409.88
795.64	444.88
795.897	392.88
796.153	449.88
796.41	444.88
796.667	430.88
796.923	441.88
797.18	438.88
797.436	454.88
797.693	406.88
797.949	482.88
798.206	521.88
798.462	426.88
798.718	478.88
798.974	463.88
799.231	498.88
799.487	503.88
799.743	502.88
799.999	544.88
800.255	537.88
800.511	530.88
800.767	565.88
801.023	558.88
801.279	603.88
801.534	629.88
801.79	695.88
802.046	737.88
802.302	900.88
802.557	1023.88
802.813	1297.88
803.068	1646.88
803.324	2245.88
803.579	3107.88
803.835	4313.88
804.09	5901.88
804.345	7665.88
804.601	9691.88
804.856	11717.88
805.111	13473.88
805.366	14941.88
805.621	15966.88
805.876	16559.88
806.131	17126.88
806.386	17449.88
806.641	17684.88
806.896	18052.88
807.151	18448.88
807.406	18658.88
807.661	18898.88
807.915	19282.88
808.17	19626.88
808.425	19777.88
808.679	19906.88
808.934	20108.88
809.188	20280.88
809.443	20461.88
809.697	20801.88
809.951	20882.88
810.206	20921.88
810.46	21364.88
810.714	21466.88
810.968	21581.88
811.223	21654.88
811.477	21909.88
811.731	22208.88
811.985	22233.88
812.239	22281.88
812.493	22374.88
812.747	22526.88
813	22476.88
813.254	22606.88
813.508	22783.88
813.762	22754.88
814.015	22880.88
814.269	23135.88
814.522	23322.88
814.776	23497.88
815.03	23794.88
815.283	24076.88
815.536	24459.88
815.79	24975.88
816.043	25277.88
816.296	25565.88
816.55	25800.88
816.803	26049.88
817.056	26460.88
817.309	26731.88
817.562	26989.88
817.815	27254.88
818.068	27469.88
818.321	27718.88
818.574	28044.88
818.827	28297.88
819.079	28632.88
819.332	29140.88
819.585	29539.88
819.838	29737.88
820.09	30063.88
820.343	30134.88
820.595	30398.88
820.848	30423.88
821.1	30636.88
821.353	30602.88
821.605	30539.88
821.857	30656.88
822.11	30494.88
822.362	30357.88
822.614	30321.88
822.866	30340.88
823.118	30348.88
823.37	30452.88
823.622	30459.88
823.874	30524.88
824.126	30650.88
824.378	30666.88
824.63	30637.88
824.882	30771.88
825.134	30703.88
825.385	30794.88
825.637	30593.88
825.888	30596.88
826.14	30595.88
826.392	30400.88
826.643	30115.88
826.895	30097.88
827.146	29825.88
827.397	29884.88
827.649	29961.88
827.9	29834.88
828.151	29826.88
828.402	29994.88
828.653	30021.88
828.905	30257.88
829.156	30152.88
829.407	30046.88
829.658	30175.88
829.909	30243.88
830.159	30339.88
830.41	30173.88
830.661	29957.88
830.912	29664.88
831.162	29573.88
831.413	29500.88
831.664	29474.88
831.914	29564.88
832.165	29307.88
832.415	29321.88
832.666	29539.88
832.916	29509.88
833.167	29287.88
833.417	29336.88
833.667	29269.88
833.917	29159.88
834.168	29101.88
834.418	29007.88
834.668	28892.88
834.918	28760.88
835.168	28657.88
835.418	28423.88
835.668	28568.88
835.918	28376.88
836.167	28381.88
836.417	28247.88
836.667	28307.88
836.917	28236.88
837.166	28073.88
837.416	28318.88
837.666	28200.88
837.915	28107.88
838.165	28116.88
838.414	28001.88
838.663	27933.88
838.913	27915.88
839.162	27844.88
839.411	27933.88
839.661	27661.88
839.91	27557.88
840.159	27580.88
840.408	27602.88
840.657	27525.88
840.906	27630.88
841.155	27598.88
841.404	27641.88
841.653	27637.88
841.902	27713.88
842.15	27658.88
842.399	27791.88
842.648	27630.88
842.897	27648.88
843.145	27302.88
843.394	27188.88
843.642	27040.88
843.891	26793.88
844.139	26643.88
844.388	26440.88
844.636	26388.88
844.884	26480.88
845.133	26325.88
845.381	26368.88
845.629	26388.88
845.877	26366.88
846.125	26188.88
846.373	26224.88
846.621	26042.88
846.869	26033.88
847.117	25898.88
847.365	25691.88
847.613	25700.88
847.861	25635.88
848.108	25490.88
848.356	25487.88
848.604	25457.88
848.851	25386.88
849.099	25510.88
849.346	25491.88
849.594	25485.88
849.841	25686.88
850.089	25693.88
850.336	25950.88
850.583	25894.88
850.831	25761.88
851.078	25517.88
851.325	25435.88
851.572	25402.88
851.819	25297.88
852.066	24779.88
852.313	24381.88
852.56	24213.88
852.807	24066.88
853.054	24040.88
853.301	24078.88
853.548	24097.88
853.794	24278.88
854.041	24310.88
854.288	24408.88
854.534	24523.88
854.781	24470.88
855.028	24426.88
855.274	24494.88
855.52	24283.88
855.767	24283.88
856.013	24258.88
856.26	24510.88
856.506	23975.88
856.752	23979.88
856.998	23966.88
857.244	23921.88
857.49	24038.88
857.736	24149.88
857.982	24122.88
858.228	24102.88
858.474	23816.88
858.72	23534.88
858.966	23425.88
859.212	23140.88
859.458	23076.88
859.703	22710.88
859.949	22434.88
860.195	22323.88
860.44	22097.88
860.686	22196.88
860.931	22123.88
861.177	21921.88
861.422	21889.88
861.667	21773.88
861.913	21697.88
862.158	21740.88
862.403	21812.88
862.648	21949.88
862.893	21903.88
863.138	21776.88
863.384	21856.88
863.629	21827.88
863.873	21754.88
864.118	21656.88
864.363	21485.88
864.608	21446.88
864.853	21259.88
865.098	21335.88
865.342	21182.88
865.587	21085.88
865.832	21094.88
866.076	21058.88
866.321	20968.88
866.565	20920.88
866.81	20748.88
867.054	20738.88
867.298	20654.88
867.543	20662.88
867.787	20657.88
868.031	20519.88
868.275	20495.88
868.519	20475.88
868.764	20420.88
869.008	20287.88
869.252	20343.88
869.496	20214.88
869.739	20213.88
869.983	20248.88
870.227	20221.88
870.471	20110.88
870.715	20219.88
870.958	20340.88
871.202	20323.88
871.446	20274.88
871.689	20372.88
871.933	20315.88
872.176	20358.88
872.42	20235.88
872.663	20146.88
872.906	20192.88
873.15	20142.88
873.393	20128.88
873.636	20131.88
873.879	19905.88
874.122	19677.88
874.366	19354.88
874.609	19220.88
874.852	19039.88
875.095	19033.88
875.337	18800.88
875.58	18623.88
875.823	18713.88
876.066	18580.88
876.309	18605.88
876.551	18363.88
876.794	18311.88
877.037	18245.88
877.279	18278.88
877.522	18233.88
877.764	18211.88
878.007	18313.88
878.249	18157.88
878.491	18072.88
878.734	18136.88
878.976	17981.88
879.218	17893.88
879.46	17814.88
879.702	17728.88
879.945	17622.88
880.187	17410.88
880.429	17331.88
880.671	17084.88
880.912	17045.88
881.154	17053.88
881.396	16956.88
881.638	17064.88
881.88	17011.88
882.121	16983.88
882.363	16897.88
882.605	16940.88
882.846	16847.88
883.088	16845.88
883.329	16798.88
883.571	16840.88
883.812	17061.88
884.053	17283.88
884.295	17689.88
884.536	17854.88
884.777	17791.88
885.018	17661.88
885.259	17628.88
885.5	17423.88
885.742	17609.88
885.982	17288.88
886.223	17163.88
886.464	17036.88
886.705	16884.88
886.946	16736.88
887.187	16396.88
887.428	16258.88
887.668	15923.88
887.909	15633.88
888.15	15556.88
888.39	15396.88
888.631	15416.88
888.871	15233.88
889.111	15129.88
889.352	15027.88
889.592	14845.88
889.833	14767.88
890.073	14696.88
890.313	14637.88
890.553	14441.88
890.793	14441.88
891.033	14316.88
891.273	14314.88
891.513	14261.88
891.753	14091.88
891.993	14154.88
892.233	14120.88
892.473	14252.88
892.713	14207.88
892.952	14170.88
893.192	14187.88
893.432	14097.88
893.671	14142.88
893.911	13996.88
894.15	13913.88
894.39	13753.88
894.629	13779.88
894.869	13748.88
895.108	13626.88
895.347	13512.88
895.587	13502.88
895.826	13371.88
896.065	13336.88
896.304	13413.88
896.543	13334.88
896.782	13215.88
897.021	13246.88
897.26	13168.88
897.499	13200.88
897.738	13147.88
897.977	13086.88
898.216	12883.88
898.454	12784.88
898.693	12783.88
898.932	12743.88
899.17	12659.88
899.409	12659.88
899.647	12620.88
899.886	12520.88
900.124	12543.88
900.363	12527.88
900.601	12615.88
900.839	12602.88
901.078	12572.88
901.316	12702.88
901.554	12713.88
901.792	12757.88
902.03	12651.88
902.268	12702.88
902.506	12737.88
902.744	12554.88
902.982	12608.88
903.22	12308.88
903.458	12265.88
903.695	12060.88
903.933	11832.88
904.171	11742.88
904.409	11482.88
904.646	11444.88
904.884	11199.88
905.121	11128.88
905.359	11004.88
905.596	10885.88
905.833	10841.88
906.071	10759.88
906.308	10713.88
906.545	10694.88
906.783	10652.88
907.02	10754.88
907.257	10606.88
907.494	10575.88
907.731	10580.88
907.968	10527.88
908.205	10425.88
908.442	10344.88
908.679	10298.88
908.915	10253.88
909.152	10203.88
909.389	10026.88
909.626	9960.88
909.862	9894.88
910.099	9926.88
910.335	10025.88
910.572	9760.88
910.808	9768.88
911.045	9724.88
911.281	9711.88
911.518	9699.88
911.754	9600.88
911.99	9528.88
912.226	9465.88
912.463	9327.88
912.699	9325.88
912.935	9289.88
913.171	9206.88
913.407	9085.88
913.643	9106.88
913.879	8973.88
914.114	8919.88
914.35	8754.88
914.586	8743.88
914.822	8607.88
915.057	8671.88
915.293	8451.88
915.529	8460.88
915.764	8553.88
916	8488.88
916.235	8439.88
916.471	8384.88
916.706	8357.88
916.941	8375.88
917.177	8426.88
917.412	8320.88
917.647	8366.88
917.882	8282.88
918.117	8266.88
918.352	8287.88
918.588	8283.88
918.823	8148.88
919.057	8086.88
919.292	7917.88
919.527	8002.88
919.762	7797.88
919.997	7807.88
920.232	7661.88
920.466	7664.88
920.701	7517.88
920.935	7539.88
921.17	7445.88
921.405	7350.88
921.639	7403.88
921.873	7427.88
922.108	7341.88
922.342	7342.88
922.576	7277.88
922.811	7262.88
923.045	7335.88
923.279	7271.88
923.513	7121.88
923.747	7130.88
923.981	7080.88
924.215	7029.88
924.449	6960.88
924.683	6869.88
924.917	6892.88
925.151	6919.88
925.385	6865.88
925.618	6845.88
925.852	6798.88
926.086	6681.88
926.319	6783.88
926.553	6730.88
926.786	6749.88
927.02	6703.88
927.253	6719.88
927.486	6719.88
927.72	6663.88
927.953	6676.88
928.186	6595.88
928.42	6641.88
928.653	6550.88
928.886	6534.88
929.119	6525.88
929.352	6512.88
929.585	6451.88
929.818	6423.88
930.051	6364.88
930.284	6371.88
930.516	6244.88
930.749	6167.88
930.982	6220.88
931.215	6193.88
931.447	6089.88
931.68	6097.88
931.912	6102.88
932.145	6065.88
932.377	6067.88
932.61	6136.88
932.842	6018.88
933.074	6091.88
933.307	6010.88
933.539	6087.88
933.771	6062.88
934.003	5990.88
934.236	6082.88
934.468	6092.88
934.7	5970.88
934.932	5989.88
935.164	5919.88
935.395	5924.88
935.627	5916.88
935.859	5883.88
936.091	5854.88
936.323	5855.88
936.554	5873.88
936.786	5768.88
937.017	5737.88
937.249	5786.88
937.481	5720.88
937.712	5759.88
937.943	5718.88
938.175	5695.88
938.406	5637.88
938.637	5734.88
938.869	5574.88
939.1	5668.88
939.331	5608.88
939.562	5606.88
939.793	5573.88
940.024	5597.88
940.255	5553.88
940.486	5461.88
940.717	5436.88
940.948	5468.88
941.179	5387.88
941.409	5467.88
941.64	5404.88
941.871	5441.88
942.102	5363.88
942.332	5329.88
942.563	5448.88
942.793	5424.88
943.024	5335.88
943.254	5398.88
943.484	5410.88
943.715	5384.88
943.945	5428.88
944.175	5319.88
944.405	5309.88
944.636	5296.88
944.866	5378.88
945.096	5356.88
945.326	5226.88
945.556	5264.88
945.786	5226.88
946.016	5242.88
946.245	5140.88
946.475	5150.88
946.705	5080.88
946.935	5095.88
947.164	5068.88
947.394	4992.88
947.624	5028.88
947.853	5032.88
948.083	4972.88
948.312	4923.88
948.542	4918.88
948.771	4891.88
949	4859.88
949.23	4889.88
949.459	4880.88
949.688	4924.88
949.917	4851.88
950.146	4855.88
950.375	4921.88
950.604	4768.88
950.833	4921.88
951.062	4902.88
951.291	4803.88
951.52	4761.88
951.749	4765.88
951.978	4752.88
952.206	4728.88
952.435	4698.88
952.664	4760.88
952.892	4665.88
953.121	4661.88
953.349	4697.88
953.578	4678.88
953.806	4624.88
954.035	4573.88
954.263	4606.88
954.491	4538.88
954.719	4571.88
954.948	4500.88
955.176	4520.88
955.404	4435.88
955.632	4458.88
955.86	4441.88
956.088	4412.88
956.316	4418.88
956.544	4453.88
956.772	4308.88
956.999	4326.88
957.227	4366.88
957.455	4261.88
957.683	4283.88
957.91	4227.88
958.138	4235.88
958.365	4210.88
958.593	4199.88
958.82	4139.88
959.048	4179.88
959.275	4136.88
959.502	4126.88
959.73	4119.88
959.957	4149.88
960.184	4142.88
960.411	4081.88
960.638	4143.88
960.865	4027.88
961.092	4098.88
961.319	3952.88
961.546	4123.88
961.773	4067.88
962	4060.88
962.227	4065.88
962.454	4043.88
962.68	3968.88
962.907	4038.88
963.134	3951.88
963.36	3964.88
963.587	3949.88
963.813	3873.88
964.04	3904.88
964.266	3781.88
964.493	3910.88
964.719	3844.88
964.945	3837.88
965.171	3760.88
965.398	3791.88
965.624	3747.88
965.85	3676.88
966.076	3703.88
966.302	3750.88
966.528	3686.88
966.754	3700.88
966.98	3661.88
967.206	3604.88
967.431	3588.88
967.657	3674.88
967.883	3645.88
968.109	3618.88
968.334	3571.88
968.56	3563.88
968.785	3553.88
969.011	3534.88
969.236	3579.88
969.462	3469.88
969.687	3506.88
969.912	3549.88
970.138	3564.88
970.363	3439.88
970.588	3470.88
970.813	3418.88
971.038	3408.88
971.263	3498.88
971.488	3481.88
971.713	3450.88
971.938	3441.88
972.163	3328.88
972.388	3328.88
972.613	3274.88
972.838	3314.88
973.062	3296.88
973.287	3285.88
973.512	3195.88
973.736	3254.88
973.961	3232.88
974.185	3167.88
974.41	3246.88
974.634	3116.88
974.858	3132.88
975.083	3170.88
975.307	3194.88
975.531	3119.88
975.755	3038.88
975.98	3081.88
976.204	2996.88
976.428	2971.88
976.652	2991.88
976.876	2974.88
977.1	2966.88
977.324	2933.88
977.547	2999.88
977.771	3011.88
977.995	2947.88
978.219	2879.88
978.442	3041.88
978.666	2940.88
978.89	2918.88
979.113	2955.88
979.337	2909.88
979.56	2876.88
979.783	2950.88
980.007	2823.88
980.23	2854.88
980.453	2825.88
980.677	2843.88
980.9	2848.88
981.123	2717.88
981.346	2789.88
981.569	2794.88
981.792	2795.88
982.015	2793.88
982.238	2713.88
982.461	2726.88
982.684	2644.88
982.907	2677.88
983.129	2650.88
983.352	2704.88
983.575	2634.88
983.797	2644.88
984.02	2629.88
984.242	2587.88
984.465	2601.88
984.687	2612.88
984.91	2668.88
985.132	2553.88
985.354	2596.88
985.577	2565.88
985.799	2566.88
986.021	2457.88
986.243	2474.88
986.465	2474.88
986.687	2524.88
986.909	2578.88
987.131	2517.88
987.353	2459.88
987.575	2503.88
987.797	2458.88
988.019	2403.88
988.241	2454.88
988.462	2369.88
988.684	2486.88
988.906	2473.88
989.127	2501.88
989.349	2356.88
989.57	2413.88
989.792	2435.88
990.013	2431.88
990.234	2399.88
990.456	2472.88
990.677	2425.88
990.898	2374.88
991.119	2372.88
991.341	2373.88
991.562	2326.88
991.783	2350.88
992.004	2288.88
992.225	2242.88
992.446	2333.88
992.667	2195.88
992.887	2274.88
993.108	2183.88
993.329	2313.88
993.55	2234.88
993.77	2175.88
993.991	2183.88
994.212	2201.88
994.432	2178.88
994.653	2207.88
994.873	2168.88
995.093	2061.88
995.314	2108.88
995.534	2195.88
995.754	2194.88
995.975	2183.88
996.195	2086.88
996.415	2159.88
996.635	2085.88
996.855	2136.88
997.075	2099.88
997.295	2097.88
997.515	2080.88
997.735	2108.88
997.955	2089.88
998.174	2066.88
998.394	2069.88
998.614	2074.88
998.834	2031.88
999.053	2096.88
999.273	2069.88
999.492	2130.88
999.712	2056.88
999.931	2019.88
1000.151	2066.88
1000.37	2001.88
1000.589	2056.88
1000.809	1998.88
1001.028	2076.88
1001.247	2043.88
1001.466	1921.88
1001.685	2053.88
1001.904	1965.88
1002.123	1968.88
1002.342	1946.88
1002.561	1904.88
1002.78	1940.88
1002.999	1996.88
1003.218	1930.88
1003.436	1917.88
1003.655	1948.88
1003.874	1883.88
1004.092	1880.88
1004.311	1942.88
1004.53	1863.88
1004.748	2000.88
1004.966	1901.88
1005.185	1921.88
1005.403	1894.88
1005.622	1899.88
1005.84	1942.88
1006.058	1864.88
1006.276	1858.88
1006.494	2352.88
1006.712	1883.88
1006.931	1970.88
1007.149	1851.88
1007.367	1883.88
1007.584	1920.88
1007.802	1889.88
1008.02	1909.88
1008.238	2011.88
1008.456	1925.88
1008.673	1842.88
1008.891	1976.88
1009.109	1957.88
1009.326	1989.88
1009.544	2103.88
1009.761	2036.88
1009.979	2140.88
1010.196	2153.88
1010.413	2293.88
1010.631	2351.88
1010.848	2438.88
1011.065	2454.88
1011.282	2395.88
1011.5	2303.88
1011.717	2424.88
1011.934	2339.88
1012.151	2425.88
1012.368	2361.88
1012.585	2313.88
1012.801	2360.88
1013.018	2324.88
1013.235	2292.88
1013.452	2345.88
1013.669	2325.88
1013.885	2307.88
1014.102	2299.88
1014.318	2357.88
1014.535	2283.88
1014.751	2337.88
1014.968	2305.88
1015.184	2299.88
1015.401	2216.88
1015.617	2220.88
1015.833	2185.88
1016.049	2134.88
1016.266	2111.88
1016.482	2103.88
1016.698	2059.88
1016.914	2065.88
1017.13	2000.88
1017.346	2015.88
1017.562	2065.88
1017.778	1993.88
1017.993	1956.88
1018.209	2008.88
1018.425	1977.88
1018.641	1940.88
1018.856	1917.88
1019.072	1918.88
1019.288	1949.88
1019.503	1916.88
1019.719	1843.88
1019.934	1863.88
1020.149	1941.88
1020.365	1850.88
1020.58	1775.88
1020.795	1785.88
1021.011	1735.88
1021.226	1699.88
1021.441	1695.88
1021.656	1605.88
1021.871	1561.88
1022.086	1550.88
1022.301	1517.88
1022.516	1510.88
1022.731	1585.88
1022.946	1466.88
1023.16	1440.88
1023.375	1372.88
1023.59	1366.88
1023.804	1339.88
1024.019	1417.88
1024.234	1286.88
1024.448	1297.88
1024.663	1207.88
1024.877	1222.88
1025.092	1234.88
1025.306	1257.88
1025.52	1107.88
1025.734	1202.88
1025.949	1119.88
1026.163	1088.88
1026.377	1013.88
1026.591	1081.88
1026.805	980.88
1027.019	978.88
1027.233	932.88
1027.447	892.88
1027.661	992.88
1027.875	924.88
1028.088	920.88
1028.302	853.88
1028.516	826.88
1028.73	830.88
1028.943	814.88
1029.157	756.88
1029.37	718.88
1029.584	-2.12
1029.797	1.88
1030.011	-2.12
1030.224	-5.12
