Data from QEP037381__14__14-14-13-765.txt Node

Date: Wed Dec 21 14:14:13 EST 2022
User: dcclab
Spectrometer: QEP03738
Trigger mode: 4
Integration Time (sec): 1.000000E1
Scans to average: 1
Electric dark correction enabled: true
Nonlinearity correction enabled: false
Boxcar width: 0
XAxis mode: Wavelengths
Number of Pixels in Spectrum: 1044
>>>>>Begin Spectral Data<<<<<
784.041	13.62
784.3	1.62
784.558	-2.38
784.817	-0.38
785.075	102465.62
785.334	17412.62
785.592	8152.62
785.851	5527.62
786.109	4163.62
786.368	3205.62
786.626	2590.62
786.884	2152.62
787.143	1791.62
787.401	1487.62
787.659	1337.62
787.917	1187.62
788.175	1063.62
788.433	937.62
788.691	839.62
788.949	774.62
789.207	767.62
789.465	652.62
789.723	644.62
789.98	582.62
790.238	627.62
790.496	584.62
790.753	567.62
791.011	600.62
791.268	547.62
791.526	519.62
791.783	556.62
792.041	515.62
792.298	441.62
792.556	497.62
792.813	485.62
793.07	453.62
793.327	450.62
793.584	520.62
793.841	444.62
794.099	474.62
794.356	530.62
794.613	427.62
794.869	466.62
795.126	432.62
795.383	419.62
795.64	440.62
795.897	397.62
796.153	452.62
796.41	442.62
796.667	441.62
796.923	424.62
797.18	430.62
797.436	461.62
797.693	428.62
797.949	481.62
798.206	511.62
798.462	407.62
798.718	480.62
798.974	450.62
799.231	483.62
799.487	484.62
799.743	496.62
799.999	523.62
800.255	527.62
800.511	515.62
800.767	550.62
801.023	539.62
801.279	581.62
801.534	601.62
801.79	681.62
802.046	697.62
802.302	851.62
802.557	973.62
802.813	1223.62
803.068	1520.62
803.324	2126.62
803.579	2870.62
803.835	3930.62
804.09	5402.62
804.345	6967.62
804.601	8831.62
804.856	10661.62
805.111	12254.62
805.366	13489.62
805.621	14457.62
805.876	15188.62
806.131	15638.62
806.386	15859.62
806.641	16175.62
806.896	16432.62
807.151	16685.62
807.406	16946.62
807.661	17234.62
807.915	17525.62
808.17	17770.62
808.425	17971.62
808.679	18100.62
808.934	18303.62
809.188	18392.62
809.443	18725.62
809.697	18930.62
809.951	19035.62
810.206	19180.62
810.46	19303.62
810.714	19490.62
810.968	19686.62
811.223	19810.62
811.477	20033.62
811.731	20271.62
811.985	20242.62
812.239	20329.62
812.493	20428.62
812.747	20523.62
813	20429.62
813.254	20673.62
813.508	20805.62
813.762	20807.62
814.015	21054.62
814.269	21026.62
814.522	21229.62
814.776	21532.62
815.03	21754.62
815.283	22126.62
815.536	22407.62
815.79	22755.62
816.043	23105.62
816.296	23348.62
816.55	23649.62
816.803	23847.62
817.056	24320.62
817.309	24435.62
817.562	24661.62
817.815	24975.62
818.068	25075.62
818.321	25398.62
818.574	25561.62
818.827	26003.62
819.079	26113.62
819.332	26705.62
819.585	27114.62
819.838	27348.62
820.09	27532.62
820.343	27667.62
820.595	27712.62
820.848	27965.62
821.1	28178.62
821.353	28061.62
821.605	28141.62
821.857	28082.62
822.11	27855.62
822.362	27832.62
822.614	27789.62
822.866	27954.62
823.118	27855.62
823.37	27920.62
823.622	28066.62
823.874	28150.62
824.126	28299.62
824.378	28230.62
824.63	28438.62
824.882	28434.62
825.134	28365.62
825.385	28386.62
825.637	28351.62
825.888	28117.62
826.14	28225.62
826.392	28057.62
826.643	27946.62
826.895	27865.62
827.146	27796.62
827.397	27760.62
827.649	27739.62
827.9	27831.62
828.151	27699.62
828.402	27734.62
828.653	27799.62
828.905	28077.62
829.156	28066.62
829.407	27988.62
829.658	28112.62
829.909	28250.62
830.159	28297.62
830.41	28189.62
830.661	27846.62
830.912	27765.62
831.162	27686.62
831.413	27552.62
831.664	27613.62
831.914	27578.62
832.165	27572.62
832.415	27531.62
832.666	27608.62
832.916	27597.62
833.167	27506.62
833.417	27671.62
833.667	27541.62
833.917	27367.62
834.168	27422.62
834.418	27272.62
834.668	27163.62
834.918	27103.62
835.168	26945.62
835.418	26935.62
835.668	26748.62
835.918	26771.62
836.167	26605.62
836.417	26732.62
836.667	26627.62
836.917	26711.62
837.166	26643.62
837.416	26702.62
837.666	26741.62
837.915	26638.62
838.165	26654.62
838.414	26610.62
838.663	26595.62
838.913	26469.62
839.162	26389.62
839.411	26442.62
839.661	26356.62
839.91	26295.62
840.159	26323.62
840.408	26448.62
840.657	26277.62
840.906	26355.62
841.155	26388.62
841.404	26305.62
841.653	26386.62
841.902	26320.62
842.15	26482.62
842.399	26617.62
842.648	26405.62
842.897	26459.62
843.145	26182.62
843.394	26049.62
843.642	26009.62
843.891	25725.62
844.139	25684.62
844.388	25505.62
844.636	25493.62
844.884	25405.62
845.133	25425.62
845.381	25403.62
845.629	25341.62
845.877	25269.62
846.125	25279.62
846.373	25247.62
846.621	25180.62
846.869	25151.62
847.117	24954.62
847.365	24929.62
847.613	24846.62
847.861	24854.62
848.108	24797.62
848.356	24730.62
848.604	24663.62
848.851	24716.62
849.099	24751.62
849.346	24727.62
849.594	24856.62
849.841	24909.62
850.089	25089.62
850.336	25134.62
850.583	25073.62
850.831	24955.62
851.078	24861.62
851.325	24725.62
851.572	24742.62
851.819	24703.62
852.066	24252.62
852.313	23781.62
852.56	23662.62
852.807	23558.62
853.054	23471.62
853.301	23498.62
853.548	23576.62
853.794	23723.62
854.041	23789.62
854.288	23939.62
854.534	24094.62
854.781	24067.62
855.028	24040.62
855.274	24092.62
855.52	24026.62
855.767	23947.62
856.013	24191.62
856.26	24406.62
856.506	23722.62
856.752	23737.62
856.998	23821.62
857.244	23676.62
857.49	23886.62
857.736	23881.62
857.982	23906.62
858.228	23897.62
858.474	23534.62
858.72	23373.62
858.966	23195.62
859.212	22959.62
859.458	22803.62
859.703	22548.62
859.949	22272.62
860.195	22212.62
860.44	22054.62
860.686	22140.62
860.931	22207.62
861.177	21912.62
861.422	21879.62
861.667	21646.62
861.913	21626.62
862.158	21649.62
862.403	21702.62
862.648	21749.62
862.893	21713.62
863.138	21771.62
863.384	21618.62
863.629	21771.62
863.873	21667.62
864.118	21675.62
864.363	21427.62
864.608	21312.62
864.853	21346.62
865.098	21283.62
865.342	21271.62
865.587	21104.62
865.832	21012.62
866.076	21072.62
866.321	21008.62
866.565	20913.62
866.81	20880.62
867.054	20831.62
867.298	20726.62
867.543	20715.62
867.787	20624.62
868.031	20574.62
868.275	20548.62
868.519	20554.62
868.764	20569.62
869.008	20540.62
869.252	20400.62
869.496	20410.62
869.739	20443.62
869.983	20536.62
870.227	20505.62
870.471	20564.62
870.715	20574.62
870.958	20748.62
871.202	20692.62
871.446	20812.62
871.689	20732.62
871.933	20850.62
872.176	20737.62
872.42	20738.62
872.663	20720.62
872.906	20635.62
873.15	20679.62
873.393	20794.62
873.636	20774.62
873.879	20475.62
874.122	20317.62
874.366	19756.62
874.609	19738.62
874.852	19548.62
875.095	19369.62
875.337	19267.62
875.58	19104.62
875.823	19161.62
876.066	19121.62
876.309	19053.62
876.551	18840.62
876.794	18799.62
877.037	18758.62
877.279	18648.62
877.522	18641.62
877.764	18803.62
878.007	18630.62
878.249	18650.62
878.491	18448.62
878.734	18593.62
878.976	18420.62
879.218	18389.62
879.46	18267.62
879.702	18140.62
879.945	17918.62
880.187	17762.62
880.429	17702.62
880.671	17606.62
880.912	17513.62
881.154	17539.62
881.396	17365.62
881.638	17429.62
881.88	17382.62
882.121	17331.62
882.363	17424.62
882.605	17480.62
882.846	17434.62
883.088	17457.62
883.329	17495.62
883.571	17637.62
883.812	18048.62
884.053	18584.62
884.295	19086.62
884.536	19426.62
884.777	19333.62
885.018	19029.62
885.259	18819.62
885.5	18573.62
885.742	18956.62
885.982	18626.62
886.223	18270.62
886.464	18214.62
886.705	17863.62
886.946	17704.62
887.187	17239.62
887.428	17085.62
887.668	16730.62
887.909	16456.62
888.15	16210.62
888.39	15980.62
888.631	16033.62
888.871	15781.62
889.111	15689.62
889.352	15678.62
889.592	15454.62
889.833	15291.62
890.073	15143.62
890.313	15176.62
890.553	15012.62
890.793	14954.62
891.033	14870.62
891.273	14756.62
891.513	14769.62
891.753	14771.62
891.993	14690.62
892.233	14720.62
892.473	14747.62
892.713	14792.62
892.952	14740.62
893.192	14721.62
893.432	14717.62
893.671	14712.62
893.911	14616.62
894.15	14598.62
894.39	14361.62
894.629	14272.62
894.869	14318.62
895.108	14162.62
895.347	14091.62
895.587	14112.62
895.826	14055.62
896.065	13992.62
896.304	13980.62
896.543	14080.62
896.782	13914.62
897.021	13891.62
897.26	13842.62
897.499	13895.62
897.738	13841.62
897.977	13758.62
898.216	13673.62
898.454	13522.62
898.693	13427.62
898.932	13453.62
899.17	13287.62
899.409	13293.62
899.647	13248.62
899.886	13334.62
900.124	13350.62
900.363	13322.62
900.601	13374.62
900.839	13471.62
901.078	13505.62
901.316	13521.62
901.554	13635.62
901.792	13700.62
902.03	13649.62
902.268	13844.62
902.506	13720.62
902.744	13564.62
902.982	13562.62
903.22	13299.62
903.458	13106.62
903.695	13001.62
903.933	12684.62
904.171	12544.62
904.409	12253.62
904.646	12097.62
904.884	11917.62
905.121	11870.62
905.359	11745.62
905.596	11570.62
905.833	11472.62
906.071	11443.62
906.308	11431.62
906.545	11319.62
906.783	11276.62
907.02	11320.62
907.257	11289.62
907.494	11244.62
907.731	11299.62
907.968	11232.62
908.205	11135.62
908.442	11076.62
908.679	10966.62
908.915	10871.62
909.152	10821.62
909.389	10696.62
909.626	10628.62
909.862	10629.62
910.099	10547.62
910.335	10518.62
910.572	10386.62
910.808	10395.62
911.045	10368.62
911.281	10220.62
911.518	10327.62
911.754	10173.62
911.99	10146.62
912.226	10153.62
912.463	9896.62
912.699	9991.62
912.935	9844.62
913.171	9828.62
913.407	9630.62
913.643	9677.62
913.879	9580.62
914.114	9481.62
914.35	9408.62
914.586	9287.62
914.822	9205.62
915.057	9239.62
915.293	9043.62
915.529	9060.62
915.764	9158.62
916	9034.62
916.235	9014.62
916.471	9012.62
916.706	8912.62
916.941	8895.62
917.177	8979.62
917.412	9014.62
917.647	8909.62
917.882	8865.62
918.117	8905.62
918.352	8867.62
918.588	8864.62
918.823	8709.62
919.057	8640.62
919.292	8573.62
919.527	8523.62
919.762	8394.62
919.997	8420.62
920.232	8321.62
920.466	8275.62
920.701	8128.62
920.935	8054.62
921.17	8105.62
921.405	7923.62
921.639	7989.62
921.873	7921.62
922.108	7892.62
922.342	7926.62
922.576	7792.62
922.811	7795.62
923.045	7900.62
923.279	7844.62
923.513	7613.62
923.747	7701.62
923.981	7572.62
924.215	7575.62
924.449	7543.62
924.683	7427.62
924.917	7438.62
925.151	7389.62
925.385	7467.62
925.618	7369.62
925.852	7380.62
926.086	7223.62
926.319	7303.62
926.553	7320.62
926.786	7286.62
927.02	7355.62
927.253	7287.62
927.486	7327.62
927.72	7186.62
927.953	7316.62
928.186	7171.62
928.42	7163.62
928.653	7139.62
928.886	7067.62
929.119	7112.62
929.352	6988.62
929.585	7028.62
929.818	6926.62
930.051	6899.62
930.284	6849.62
930.516	6737.62
930.749	6738.62
930.982	6712.62
931.215	6693.62
931.447	6593.62
931.68	6663.62
931.912	6631.62
932.145	6598.62
932.377	6631.62
932.61	6728.62
932.842	6549.62
933.074	6565.62
933.307	6566.62
933.539	6688.62
933.771	6600.62
934.003	6564.62
934.236	6626.62
934.468	6645.62
934.7	6510.62
934.932	6515.62
935.164	6417.62
935.395	6383.62
935.627	6446.62
935.859	6460.62
936.091	6376.62
936.323	6465.62
936.554	6384.62
936.786	6264.62
937.017	6248.62
937.249	6318.62
937.481	6160.62
937.712	6258.62
937.943	6182.62
938.175	6251.62
938.406	6207.62
938.637	6292.62
938.869	6216.62
939.1	6182.62
939.331	6105.62
939.562	6105.62
939.793	6130.62
940.024	6136.62
940.255	6094.62
940.486	6057.62
940.717	6011.62
940.948	5915.62
941.179	5906.62
941.409	5961.62
941.64	5934.62
941.871	5933.62
942.102	5914.62
942.332	5900.62
942.563	5902.62
942.793	5951.62
943.024	5845.62
943.254	5886.62
943.484	5914.62
943.715	5933.62
943.945	5878.62
944.175	5818.62
944.405	5767.62
944.636	5804.62
944.866	5838.62
945.096	5883.62
945.326	5749.62
945.556	5797.62
945.786	5747.62
946.016	5714.62
946.245	5643.62
946.475	5622.62
946.705	5641.62
946.935	5651.62
947.164	5596.62
947.394	5504.62
947.624	5509.62
947.853	5590.62
948.083	5508.62
948.312	5420.62
948.542	5343.62
948.771	5306.62
949	5348.62
949.23	5359.62
949.459	5379.62
949.688	5434.62
949.917	5338.62
950.146	5343.62
950.375	5383.62
950.604	5267.62
950.833	5330.62
951.062	5321.62
951.291	5271.62
951.52	5282.62
951.749	5240.62
951.978	5226.62
952.206	5228.62
952.435	5184.62
952.664	5240.62
952.892	5191.62
953.121	5167.62
953.349	5200.62
953.578	5141.62
953.806	5130.62
954.035	5040.62
954.263	5045.62
954.491	5009.62
954.719	5042.62
954.948	5005.62
955.176	4945.62
955.404	4831.62
955.632	4968.62
955.86	4889.62
956.088	4861.62
956.316	4910.62
956.544	4870.62
956.772	4832.62
956.999	4767.62
957.227	4871.62
957.455	4712.62
957.683	4741.62
957.91	4649.62
958.138	4649.62
958.365	4661.62
958.593	4592.62
958.82	4545.62
959.048	4614.62
959.275	4585.62
959.502	4572.62
959.73	4504.62
959.957	4539.62
960.184	4546.62
960.411	4470.62
960.638	4550.62
960.865	4494.62
961.092	4504.62
961.319	4389.62
961.546	4527.62
961.773	4501.62
962	4464.62
962.227	4497.62
962.454	4481.62
962.68	4446.62
962.907	4451.62
963.134	4345.62
963.36	4398.62
963.587	4366.62
963.813	4285.62
964.04	4307.62
964.266	4261.62
964.493	4294.62
964.719	4219.62
964.945	4215.62
965.171	4117.62
965.398	4167.62
965.624	4194.62
965.85	4114.62
966.076	4096.62
966.302	4104.62
966.528	4024.62
966.754	4080.62
966.98	4116.62
967.206	4045.62
967.431	3984.62
967.657	4017.62
967.883	4060.62
968.109	4046.62
968.334	3912.62
968.56	3915.62
968.785	3964.62
969.011	3857.62
969.236	3948.62
969.462	3890.62
969.687	3877.62
969.912	3924.62
970.138	3898.62
970.363	3813.62
970.588	3826.62
970.813	3832.62
971.038	3791.62
971.263	3813.62
971.488	3804.62
971.713	3789.62
971.938	3784.62
972.163	3672.62
972.388	3685.62
972.613	3674.62
972.838	3699.62
973.062	3626.62
973.287	3652.62
973.512	3519.62
973.736	3621.62
973.961	3577.62
974.185	3547.62
974.41	3563.62
974.634	3448.62
974.858	3455.62
975.083	3527.62
975.307	3476.62
975.531	3416.62
975.755	3332.62
975.98	3383.62
976.204	3344.62
976.428	3344.62
976.652	3311.62
976.876	3275.62
977.1	3294.62
977.324	3307.62
977.547	3261.62
977.771	3308.62
977.995	3241.62
978.219	3183.62
978.442	3323.62
978.666	3246.62
978.89	3231.62
979.113	3220.62
979.337	3194.62
979.56	3175.62
979.783	3267.62
980.007	3109.62
980.23	3164.62
980.453	3118.62
980.677	3147.62
980.9	3115.62
981.123	3047.62
981.346	3143.62
981.569	3069.62
981.792	3073.62
982.015	3054.62
982.238	3029.62
982.461	3038.62
982.684	2987.62
982.907	2939.62
983.129	2889.62
983.352	2950.62
983.575	2925.62
983.797	2946.62
984.02	2891.62
984.242	2887.62
984.465	2864.62
984.687	2902.62
984.91	2929.62
985.132	2880.62
985.354	2887.62
985.577	2817.62
985.799	2823.62
986.021	2733.62
986.243	2751.62
986.465	2762.62
986.687	2819.62
986.909	2804.62
987.131	2744.62
987.353	2737.62
987.575	2792.62
987.797	2709.62
988.019	2671.62
988.241	2716.62
988.462	2670.62
988.684	2759.62
988.906	2748.62
989.127	2733.62
989.349	2632.62
989.57	2628.62
989.792	2700.62
990.013	2704.62
990.234	2704.62
990.456	2701.62
990.677	2684.62
990.898	2639.62
991.119	2640.62
991.341	2663.62
991.562	2558.62
991.783	2592.62
992.004	2582.62
992.225	2510.62
992.446	2528.62
992.667	2476.62
992.887	2531.62
993.108	2414.62
993.329	2540.62
993.55	2491.62
993.77	2443.62
993.991	2399.62
994.212	2433.62
994.432	2442.62
994.653	2437.62
994.873	2408.62
995.093	2303.62
995.314	2353.62
995.534	2412.62
995.754	2423.62
995.975	2455.62
996.195	2326.62
996.415	2425.62
996.635	2345.62
996.855	2381.62
997.075	2342.62
997.295	2351.62
997.515	2328.62
997.735	2394.62
997.955	2352.62
998.174	2351.62
998.394	2325.62
998.614	2357.62
998.834	2306.62
999.053	2359.62
999.273	2308.62
999.492	2383.62
999.712	2286.62
999.931	2205.62
1000.151	2260.62
1000.37	2234.62
1000.589	2312.62
1000.809	2189.62
1001.028	2290.62
1001.247	2214.62
1001.466	2116.62
1001.685	2261.62
1001.904	2212.62
1002.123	2136.62
1002.342	2188.62
1002.561	2108.62
1002.78	2098.62
1002.999	2205.62
1003.218	2116.62
1003.436	2100.62
1003.655	2126.62
1003.874	2072.62
1004.092	2071.62
1004.311	2124.62
1004.53	2068.62
1004.748	2168.62
1004.966	2065.62
1005.185	2095.62
1005.403	2132.62
1005.622	2077.62
1005.84	2151.62
1006.058	2027.62
1006.276	2077.62
1006.494	2583.62
1006.712	2071.62
1006.931	2149.62
1007.149	2026.62
1007.367	2064.62
1007.584	2124.62
1007.802	2158.62
1008.02	2116.62
1008.238	2227.62
1008.456	2249.62
1008.673	2144.62
1008.891	2248.62
1009.109	2271.62
1009.326	2322.62
1009.544	2438.62
1009.761	2419.62
1009.979	2573.62
1010.196	2665.62
1010.413	2848.62
1010.631	2938.62
1010.848	3094.62
1011.065	3084.62
1011.282	3084.62
1011.5	2978.62
1011.717	3048.62
1011.934	2957.62
1012.151	3040.62
1012.368	2953.62
1012.585	2944.62
1012.801	2951.62
1013.018	2950.62
1013.235	2950.62
1013.452	2946.62
1013.669	2960.62
1013.885	2938.62
1014.102	3042.62
1014.318	3013.62
1014.535	2953.62
1014.751	2992.62
1014.968	2954.62
1015.184	2915.62
1015.401	2794.62
1015.617	2805.62
1015.833	2772.62
1016.049	2733.62
1016.266	2666.62
1016.482	2683.62
1016.698	2582.62
1016.914	2630.62
1017.13	2552.62
1017.346	2533.62
1017.562	2607.62
1017.778	2493.62
1017.993	2455.62
1018.209	2525.62
1018.425	2490.62
1018.641	2441.62
1018.856	2401.62
1019.072	2443.62
1019.288	2478.62
1019.503	2398.62
1019.719	2301.62
1019.934	2317.62
1020.149	2381.62
1020.365	2313.62
1020.58	2233.62
1020.795	2261.62
1021.011	2142.62
1021.226	2093.62
1021.441	2087.62
1021.656	1957.62
1021.871	1897.62
1022.086	1896.62
1022.301	1857.62
1022.516	1822.62
1022.731	1850.62
1022.946	1759.62
1023.16	1722.62
1023.375	1670.62
1023.59	1630.62
1023.804	1567.62
1024.019	1667.62
1024.234	1517.62
1024.448	1536.62
1024.663	1426.62
1024.877	1432.62
1025.092	1450.62
1025.306	1428.62
1025.52	1326.62
1025.734	1376.62
1025.949	1283.62
1026.163	1255.62
1026.377	1175.62
1026.591	1239.62
1026.805	1139.62
1027.019	1115.62
1027.233	1095.62
1027.447	1024.62
1027.661	1115.62
1027.875	1043.62
1028.088	1039.62
1028.302	947.62
1028.516	960.62
1028.73	917.62
1028.943	897.62
1029.157	865.62
1029.37	812.62
1029.584	-3.38
1029.797	-3.38
1030.011	-6.38
1030.224	0.62
