Data from QEP037381__135__13-49-34-881.txt Node

Date: Wed Dec 21 13:49:34 EST 2022
User: dcclab
Spectrometer: QEP03738
Trigger mode: 4
Integration Time (sec): 1.000000E1
Scans to average: 1
Electric dark correction enabled: true
Nonlinearity correction enabled: false
Boxcar width: 0
XAxis mode: Wavelengths
Number of Pixels in Spectrum: 1044
>>>>>Begin Spectral Data<<<<<
784.041	11.88
784.3	-3.12
784.558	-0.12
784.817	-3.12
785.075	90327.88
785.334	15030.88
785.592	6914.88
785.851	4771.88
786.109	3590.88
786.368	2818.88
786.626	2287.88
786.884	1874.88
787.143	1587.88
787.401	1317.88
787.659	1212.88
787.917	1024.88
788.175	958.88
788.433	824.88
788.691	760.88
788.949	716.88
789.207	670.88
789.465	592.88
789.723	585.88
789.98	532.88
790.238	559.88
790.496	517.88
790.753	491.88
791.011	554.88
791.268	498.88
791.526	480.88
791.783	496.88
792.041	483.88
792.298	397.88
792.556	475.88
792.813	454.88
793.07	420.88
793.327	416.88
793.584	490.88
793.841	412.88
794.099	431.88
794.356	490.88
794.613	398.88
794.869	431.88
795.126	392.88
795.383	366.88
795.64	385.88
795.897	341.88
796.153	397.88
796.41	397.88
796.667	368.88
796.923	381.88
797.18	388.88
797.436	409.88
797.693	374.88
797.949	429.88
798.206	458.88
798.462	360.88
798.718	426.88
798.974	393.88
799.231	438.88
799.487	414.88
799.743	420.88
799.999	443.88
800.255	442.88
800.511	418.88
800.767	451.88
801.023	419.88
801.279	454.88
801.534	473.88
801.79	481.88
802.046	487.88
802.302	593.88
802.557	602.88
802.813	753.88
803.068	821.88
803.324	1084.88
803.579	1404.88
803.835	1871.88
804.09	2543.88
804.345	3263.88
804.601	4006.88
804.856	4886.88
805.111	5607.88
805.366	6155.88
805.621	6549.88
805.876	6795.88
806.131	6971.88
806.386	7147.88
806.641	7162.88
806.896	7289.88
807.151	7476.88
807.406	7562.88
807.661	7727.88
807.915	7807.88
808.17	8000.88
808.425	8002.88
808.679	8130.88
808.934	8198.88
809.188	8261.88
809.443	8415.88
809.697	8452.88
809.951	8504.88
810.206	8636.88
810.46	8735.88
810.714	8781.88
810.968	8936.88
811.223	8911.88
811.477	8987.88
811.731	9149.88
811.985	9063.88
812.239	9095.88
812.493	9242.88
812.747	9192.88
813	9240.88
813.254	9312.88
813.508	9403.88
813.762	9320.88
814.015	9431.88
814.269	9477.88
814.522	9532.88
814.776	9684.88
815.03	9872.88
815.283	9968.88
815.536	10170.88
815.79	10264.88
816.043	10437.88
816.296	10522.88
816.55	10702.88
816.803	10805.88
817.056	11005.88
817.309	11085.88
817.562	11231.88
817.815	11316.88
818.068	11388.88
818.321	11547.88
818.574	11625.88
818.827	11827.88
819.079	11974.88
819.332	12281.88
819.585	12430.88
819.838	12569.88
820.09	12590.88
820.343	12701.88
820.595	12655.88
820.848	12873.88
821.1	12898.88
821.353	12801.88
821.605	12872.88
821.857	12816.88
822.11	12639.88
822.362	12624.88
822.614	12694.88
822.866	12726.88
823.118	12747.88
823.37	12835.88
823.622	12854.88
823.874	12936.88
824.126	13035.88
824.378	12986.88
824.63	13042.88
824.882	13118.88
825.134	13047.88
825.385	13021.88
825.637	12995.88
825.888	12902.88
826.14	12909.88
826.392	12868.88
826.643	12803.88
826.895	12841.88
827.146	12667.88
827.397	12578.88
827.649	12763.88
827.9	12633.88
828.151	12666.88
828.402	12769.88
828.653	12757.88
828.905	12744.88
829.156	12919.88
829.407	12825.88
829.658	12861.88
829.909	13052.88
830.159	13053.88
830.41	12947.88
830.661	12960.88
830.912	12823.88
831.162	12725.88
831.413	12838.88
831.664	12893.88
831.914	12809.88
832.165	12744.88
832.415	12819.88
832.666	12784.88
832.916	12797.88
833.167	12808.88
833.417	12835.88
833.667	12747.88
833.917	12775.88
834.168	12771.88
834.418	12785.88
834.668	12653.88
834.918	12604.88
835.168	12559.88
835.418	12459.88
835.668	12544.88
835.918	12475.88
836.167	12464.88
836.417	12360.88
836.667	12370.88
836.917	12378.88
837.166	12433.88
837.416	12480.88
837.666	12511.88
837.915	12406.88
838.165	12426.88
838.414	12386.88
838.663	12286.88
838.913	12476.88
839.162	12411.88
839.411	12448.88
839.661	12448.88
839.91	12398.88
840.159	12480.88
840.408	12455.88
840.657	12541.88
840.906	12470.88
841.155	12453.88
841.404	12482.88
841.653	12612.88
841.902	12528.88
842.15	12607.88
842.399	12540.88
842.648	12617.88
842.897	12562.88
843.145	12424.88
843.394	12413.88
843.642	12289.88
843.891	12260.88
844.139	12119.88
844.388	12043.88
844.636	11969.88
844.884	12010.88
845.133	12006.88
845.381	12074.88
845.629	12077.88
845.877	12012.88
846.125	12143.88
846.373	12109.88
846.621	11973.88
846.869	12016.88
847.117	11926.88
847.365	11877.88
847.613	11856.88
847.861	11863.88
848.108	11860.88
848.356	11853.88
848.604	11823.88
848.851	11809.88
849.099	11883.88
849.346	11927.88
849.594	12013.88
849.841	12145.88
850.089	12092.88
850.336	12065.88
850.583	12179.88
850.831	12183.88
851.078	12037.88
851.325	12044.88
851.572	12137.88
851.819	12130.88
852.066	11672.88
852.313	11547.88
852.56	11419.88
852.807	11405.88
853.054	11333.88
853.301	11410.88
853.548	11407.88
853.794	11597.88
854.041	11538.88
854.288	11601.88
854.534	11838.88
854.781	11765.88
855.028	11741.88
855.274	11792.88
855.52	11757.88
855.767	11751.88
856.013	11894.88
856.26	12238.88
856.506	11645.88
856.752	11599.88
856.998	11656.88
857.244	11621.88
857.49	11789.88
857.736	11767.88
857.982	11827.88
858.228	11682.88
858.474	11555.88
858.72	11456.88
858.966	11413.88
859.212	11224.88
859.458	11058.88
859.703	11003.88
859.949	10887.88
860.195	10900.88
860.44	10886.88
860.686	10799.88
860.931	10954.88
861.177	10675.88
861.422	10628.88
861.667	10516.88
861.913	10552.88
862.158	10549.88
862.403	10584.88
862.648	10608.88
862.893	10696.88
863.138	10686.88
863.384	10558.88
863.629	10584.88
863.873	10592.88
864.118	10539.88
864.363	10491.88
864.608	10532.88
864.853	10511.88
865.098	10391.88
865.342	10229.88
865.587	10356.88
865.832	10404.88
866.076	10286.88
866.321	10286.88
866.565	10272.88
866.81	10267.88
867.054	10222.88
867.298	10209.88
867.543	10246.88
867.787	10244.88
868.031	10225.88
868.275	10220.88
868.519	10206.88
868.764	10218.88
869.008	10239.88
869.252	10334.88
869.496	10260.88
869.739	10282.88
869.983	10344.88
870.227	10389.88
870.471	10338.88
870.715	10544.88
870.958	10458.88
871.202	10506.88
871.446	10621.88
871.689	10527.88
871.933	10597.88
872.176	10534.88
872.42	10471.88
872.663	10474.88
872.906	10578.88
873.15	10587.88
873.393	10610.88
873.636	10722.88
873.879	10595.88
874.122	10457.88
874.366	10149.88
874.609	10145.88
874.852	10011.88
875.095	9905.88
875.337	9881.88
875.58	9695.88
875.823	9779.88
876.066	9704.88
876.309	9735.88
876.551	9587.88
876.794	9558.88
877.037	9651.88
877.279	9466.88
877.522	9532.88
877.764	9547.88
878.007	9430.88
878.249	9478.88
878.491	9421.88
878.734	9362.88
878.976	9365.88
879.218	9207.88
879.46	9262.88
879.702	9181.88
879.945	9160.88
880.187	8991.88
880.429	8955.88
880.671	8943.88
880.912	8858.88
881.154	8876.88
881.396	8882.88
881.638	8889.88
881.88	8883.88
882.121	8847.88
882.363	8898.88
882.605	8985.88
882.846	8950.88
883.088	9046.88
883.329	9023.88
883.571	9108.88
883.812	9460.88
884.053	9749.88
884.295	10199.88
884.536	10525.88
884.777	10428.88
885.018	10263.88
885.259	10166.88
885.5	10034.88
885.742	10244.88
885.982	9944.88
886.223	9781.88
886.464	9691.88
886.705	9441.88
886.946	9285.88
887.187	9025.88
887.428	8848.88
887.668	8638.88
887.909	8460.88
888.15	8334.88
888.39	8271.88
888.631	8265.88
888.871	8156.88
889.111	8043.88
889.352	7968.88
889.592	7899.88
889.833	7801.88
890.073	7782.88
890.313	7827.88
890.553	7624.88
890.793	7631.88
891.033	7597.88
891.273	7547.88
891.513	7544.88
891.753	7558.88
891.993	7502.88
892.233	7539.88
892.473	7643.88
892.713	7558.88
892.952	7505.88
893.192	7644.88
893.432	7582.88
893.671	7674.88
893.911	7538.88
894.15	7493.88
894.39	7432.88
894.629	7404.88
894.869	7412.88
895.108	7347.88
895.347	7328.88
895.587	7368.88
895.826	7300.88
896.065	7268.88
896.304	7391.88
896.543	7314.88
896.782	7237.88
897.021	7263.88
897.26	7305.88
897.499	7330.88
897.738	7287.88
897.977	7264.88
898.216	7187.88
898.454	7217.88
898.693	7129.88
898.932	7164.88
899.17	7124.88
899.409	7040.88
899.647	7124.88
899.886	7090.88
900.124	7164.88
900.363	7121.88
900.601	7227.88
900.839	7242.88
901.078	7398.88
901.316	7429.88
901.554	7483.88
901.792	7647.88
902.03	7647.88
902.268	7711.88
902.506	7719.88
902.744	7559.88
902.982	7514.88
903.22	7326.88
903.458	7128.88
903.695	6998.88
903.933	6884.88
904.171	6664.88
904.409	6596.88
904.646	6478.88
904.884	6384.88
905.121	6378.88
905.359	6250.88
905.596	6205.88
905.833	6072.88
906.071	6055.88
906.308	6016.88
906.545	6035.88
906.783	5974.88
907.02	5984.88
907.257	5958.88
907.494	5936.88
907.731	5986.88
907.968	5972.88
908.205	5862.88
908.442	5817.88
908.679	5862.88
908.915	5839.88
909.152	5794.88
909.389	5597.88
909.626	5686.88
909.862	5591.88
910.099	5604.88
910.335	5580.88
910.572	5442.88
910.808	5490.88
911.045	5520.88
911.281	5463.88
911.518	5466.88
911.754	5379.88
911.99	5400.88
912.226	5365.88
912.463	5256.88
912.699	5284.88
912.935	5210.88
913.171	5190.88
913.407	5148.88
913.643	5188.88
913.879	5055.88
914.114	5040.88
914.35	5041.88
914.586	4974.88
914.822	4937.88
915.057	4995.88
915.293	4804.88
915.529	4795.88
915.764	4916.88
916	4881.88
916.235	4892.88
916.471	4811.88
916.706	4793.88
916.941	4822.88
917.177	4770.88
917.412	4802.88
917.647	4829.88
917.882	4758.88
918.117	4818.88
918.352	4761.88
918.588	4798.88
918.823	4688.88
919.057	4675.88
919.292	4562.88
919.527	4677.88
919.762	4573.88
919.997	4604.88
920.232	4454.88
920.466	4506.88
920.701	4360.88
920.935	4425.88
921.17	4354.88
921.405	4344.88
921.639	4416.88
921.873	4343.88
922.108	4341.88
922.342	4341.88
922.576	4243.88
922.811	4265.88
923.045	4258.88
923.279	4311.88
923.513	4138.88
923.747	4257.88
923.981	4218.88
924.215	4116.88
924.449	4123.88
924.683	4093.88
924.917	4076.88
925.151	4051.88
925.385	4158.88
925.618	4073.88
925.852	4136.88
926.086	3987.88
926.319	3999.88
926.553	4057.88
926.786	4050.88
927.02	4054.88
927.253	4079.88
927.486	4027.88
927.72	4010.88
927.953	4031.88
928.186	3980.88
928.42	4020.88
928.653	3977.88
928.886	3940.88
929.119	3956.88
929.352	3919.88
929.585	3939.88
929.818	3890.88
930.051	3862.88
930.284	3863.88
930.516	3753.88
930.749	3735.88
930.982	3834.88
931.215	3811.88
931.447	3688.88
931.68	3738.88
931.912	3731.88
932.145	3672.88
932.377	3700.88
932.61	3879.88
932.842	3682.88
933.074	3723.88
933.307	3691.88
933.539	3768.88
933.771	3726.88
934.003	3675.88
934.236	3783.88
934.468	3788.88
934.7	3666.88
934.932	3697.88
935.164	3641.88
935.395	3637.88
935.627	3664.88
935.859	3672.88
936.091	3618.88
936.323	3634.88
936.554	3681.88
936.786	3616.88
937.017	3602.88
937.249	3649.88
937.481	3556.88
937.712	3571.88
937.943	3576.88
938.175	3548.88
938.406	3543.88
938.637	3600.88
938.869	3535.88
939.1	3572.88
939.331	3516.88
939.562	3568.88
939.793	3571.88
940.024	3492.88
940.255	3563.88
940.486	3501.88
940.717	3485.88
940.948	3488.88
941.179	3489.88
941.409	3445.88
941.64	3434.88
941.871	3489.88
942.102	3431.88
942.332	3427.88
942.563	3486.88
942.793	3420.88
943.024	3356.88
943.254	3424.88
943.484	3501.88
943.715	3457.88
943.945	3435.88
944.175	3374.88
944.405	3360.88
944.636	3401.88
944.866	3446.88
945.096	3433.88
945.326	3308.88
945.556	3370.88
945.786	3430.88
946.016	3352.88
946.245	3313.88
946.475	3298.88
946.705	3272.88
946.935	3284.88
947.164	3267.88
947.394	3245.88
947.624	3234.88
947.853	3327.88
948.083	3214.88
948.312	3253.88
948.542	3136.88
948.771	3122.88
949	3151.88
949.23	3156.88
949.459	3158.88
949.688	3244.88
949.917	3161.88
950.146	3179.88
950.375	3222.88
950.604	3096.88
950.833	3217.88
951.062	3205.88
951.291	3157.88
951.52	3131.88
951.749	3139.88
951.978	3065.88
952.206	3079.88
952.435	3090.88
952.664	3136.88
952.892	3115.88
953.121	3133.88
953.349	3138.88
953.578	3099.88
953.806	3081.88
954.035	2971.88
954.263	3020.88
954.491	3018.88
954.719	3026.88
954.948	2986.88
955.176	2998.88
955.404	2907.88
955.632	2971.88
955.86	2965.88
956.088	2947.88
956.316	2984.88
956.544	2974.88
956.772	2898.88
956.999	2864.88
957.227	2957.88
957.455	2858.88
957.683	2874.88
957.91	2814.88
958.138	2759.88
958.365	2768.88
958.593	2826.88
958.82	2779.88
959.048	2842.88
959.275	2809.88
959.502	2759.88
959.73	2758.88
959.957	2779.88
960.184	2806.88
960.411	2749.88
960.638	2846.88
960.865	2755.88
961.092	2766.88
961.319	2675.88
961.546	2788.88
961.773	2781.88
962	2726.88
962.227	2788.88
962.454	2757.88
962.68	2693.88
962.907	2758.88
963.134	2658.88
963.36	2691.88
963.587	2716.88
963.813	2625.88
964.04	2653.88
964.266	2605.88
964.493	2673.88
964.719	2665.88
964.945	2624.88
965.171	2510.88
965.398	2610.88
965.624	2597.88
965.85	2564.88
966.076	2521.88
966.302	2583.88
966.528	2546.88
966.754	2573.88
966.98	2552.88
967.206	2481.88
967.431	2479.88
967.657	2567.88
967.883	2531.88
968.109	2552.88
968.334	2470.88
968.56	2479.88
968.785	2479.88
969.011	2435.88
969.236	2481.88
969.462	2407.88
969.687	2469.88
969.912	2507.88
970.138	2504.88
970.363	2369.88
970.588	2455.88
970.813	2410.88
971.038	2368.88
971.263	2414.88
971.488	2401.88
971.713	2451.88
971.938	2423.88
972.163	2329.88
972.388	2353.88
972.613	2320.88
972.838	2336.88
973.062	2344.88
973.287	2335.88
973.512	2236.88
973.736	2319.88
973.961	2274.88
974.185	2290.88
974.41	2295.88
974.634	2201.88
974.858	2215.88
975.083	2257.88
975.307	2246.88
975.531	2208.88
975.755	2178.88
975.98	2169.88
976.204	2118.88
976.428	2102.88
976.652	2142.88
976.876	2092.88
977.1	2154.88
977.324	2098.88
977.547	2135.88
977.771	2162.88
977.995	2106.88
978.219	2053.88
978.442	2157.88
978.666	2095.88
978.89	2127.88
979.113	2086.88
979.337	2076.88
979.56	2047.88
979.783	2171.88
980.007	2038.88
980.23	2079.88
980.453	2044.88
980.677	2089.88
980.9	2063.88
981.123	1965.88
981.346	2069.88
981.569	2074.88
981.792	2080.88
982.015	2008.88
982.238	1993.88
982.461	2008.88
982.684	1955.88
982.907	1947.88
983.129	1922.88
983.352	2006.88
983.575	1971.88
983.797	1983.88
984.02	1921.88
984.242	1906.88
984.465	1925.88
984.687	1970.88
984.91	1999.88
985.132	1933.88
985.354	1967.88
985.577	1925.88
985.799	1931.88
986.021	1813.88
986.243	1865.88
986.465	1901.88
986.687	1922.88
986.909	1979.88
987.131	1906.88
987.353	1863.88
987.575	1895.88
987.797	1853.88
988.019	1808.88
988.241	1869.88
988.462	1803.88
988.684	1864.88
988.906	1891.88
989.127	1910.88
989.349	1790.88
989.57	1842.88
989.792	1886.88
990.013	1875.88
990.234	1884.88
990.456	1902.88
990.677	1873.88
990.898	1810.88
991.119	1831.88
991.341	1872.88
991.562	1760.88
991.783	1825.88
992.004	1767.88
992.225	1775.88
992.446	1787.88
992.667	1698.88
992.887	1829.88
993.108	1686.88
993.329	1836.88
993.55	1757.88
993.77	1679.88
993.991	1703.88
994.212	1725.88
994.432	1731.88
994.653	1715.88
994.873	1745.88
995.093	1644.88
995.314	1671.88
995.534	1746.88
995.754	1773.88
995.975	1789.88
996.195	1669.88
996.415	1725.88
996.635	1702.88
996.855	1759.88
997.075	1723.88
997.295	1707.88
997.515	1688.88
997.735	1754.88
997.955	1715.88
998.174	1713.88
998.394	1690.88
998.614	1729.88
998.834	1718.88
999.053	1721.88
999.273	1731.88
999.492	1761.88
999.712	1720.88
999.931	1656.88
1000.151	1692.88
1000.37	1669.88
1000.589	1714.88
1000.809	1649.88
1001.028	1761.88
1001.247	1703.88
1001.466	1587.88
1001.685	1725.88
1001.904	1652.88
1002.123	1617.88
1002.342	1647.88
1002.561	1616.88
1002.78	1611.88
1002.999	1702.88
1003.218	1603.88
1003.436	1577.88
1003.655	1608.88
1003.874	1569.88
1004.092	1604.88
1004.311	1659.88
1004.53	1936.88
1004.748	2402.88
1004.966	1684.88
1005.185	1679.88
1005.403	1664.88
1005.622	1647.88
1005.84	1718.88
1006.058	1615.88
1006.276	1637.88
1006.494	2157.88
1006.712	1654.88
1006.931	1714.88
1007.149	1635.88
1007.367	1645.88
1007.584	1707.88
1007.802	1747.88
1008.02	1676.88
1008.238	1842.88
1008.456	1844.88
1008.673	1737.88
1008.891	1863.88
1009.109	1859.88
1009.326	1947.88
1009.544	2079.88
1009.761	2049.88
1009.979	2176.88
1010.196	2269.88
1010.413	2479.88
1010.631	2603.88
1010.848	2714.88
1011.065	2747.88
1011.282	2698.88
1011.5	2670.88
1011.717	2714.88
1011.934	2673.88
1012.151	2694.88
1012.368	2676.88
1012.585	2618.88
1012.801	2732.88
1013.018	2640.88
1013.235	2642.88
1013.452	2704.88
1013.669	2723.88
1013.885	2732.88
1014.102	2780.88
1014.318	2748.88
1014.535	2713.88
1014.751	2727.88
1014.968	2725.88
1015.184	2683.88
1015.401	2642.88
1015.617	2659.88
1015.833	2545.88
1016.049	2537.88
1016.266	2543.88
1016.482	2543.88
1016.698	2438.88
1016.914	2467.88
1017.13	2391.88
1017.346	2436.88
1017.562	2471.88
1017.778	2378.88
1017.993	2338.88
1018.209	2397.88
1018.425	2356.88
1018.641	2349.88
1018.856	2307.88
1019.072	2362.88
1019.288	2395.88
1019.503	2334.88
1019.719	2227.88
1019.934	2235.88
1020.149	2337.88
1020.365	2239.88
1020.58	2168.88
1020.795	2145.88
1021.011	2048.88
1021.226	2013.88
1021.441	1968.88
1021.656	1880.88
1021.871	1796.88
1022.086	1791.88
1022.301	1775.88
1022.516	1730.88
1022.731	1766.88
1022.946	1662.88
1023.16	1630.88
1023.375	1590.88
1023.59	1528.88
1023.804	1472.88
1024.019	1570.88
1024.234	1418.88
1024.448	1416.88
1024.663	1348.88
1024.877	1342.88
1025.092	1344.88
1025.306	1349.88
1025.52	1223.88
1025.734	1275.88
1025.949	1207.88
1026.163	1163.88
1026.377	1080.88
1026.591	1126.88
1026.805	1045.88
1027.019	1033.88
1027.233	987.88
1027.447	936.88
1027.661	1023.88
1027.875	962.88
1028.088	967.88
1028.302	905.88
1028.516	891.88
1028.73	875.88
1028.943	852.88
1029.157	790.88
1029.37	743.88
1029.584	-1.12
1029.797	1.88
1030.011	-5.12
1030.224	-1.12
