Data from QEP037381__132__13-49-04-882.txt Node

Date: Wed Dec 21 13:49:04 EST 2022
User: dcclab
Spectrometer: QEP03738
Trigger mode: 4
Integration Time (sec): 1.000000E1
Scans to average: 1
Electric dark correction enabled: true
Nonlinearity correction enabled: false
Boxcar width: 0
XAxis mode: Wavelengths
Number of Pixels in Spectrum: 1044
>>>>>Begin Spectral Data<<<<<
784.041	11.5
784.3	0.5
784.558	-1.5
784.817	-3.5
785.075	87703.5
785.334	15087.5
785.592	7007.5
785.851	4822.5
786.109	3642.5
786.368	2866.5
786.626	2286.5
786.884	1922.5
787.143	1635.5
787.401	1336.5
787.659	1221.5
787.917	1038.5
788.175	961.5
788.433	843.5
788.691	773.5
788.949	724.5
789.207	663.5
789.465	590.5
789.723	593.5
789.98	521.5
790.238	569.5
790.496	540.5
790.753	492.5
791.011	554.5
791.268	492.5
791.526	487.5
791.783	493.5
792.041	466.5
792.298	404.5
792.556	469.5
792.813	452.5
793.07	425.5
793.327	410.5
793.584	477.5
793.841	418.5
794.099	443.5
794.356	481.5
794.613	393.5
794.869	454.5
795.126	390.5
795.383	374.5
795.64	398.5
795.897	348.5
796.153	400.5
796.41	377.5
796.667	382.5
796.923	400.5
797.18	384.5
797.436	423.5
797.693	368.5
797.949	442.5
798.206	460.5
798.462	358.5
798.718	420.5
798.974	404.5
799.231	446.5
799.487	424.5
799.743	417.5
799.999	457.5
800.255	430.5
800.511	425.5
800.767	448.5
801.023	425.5
801.279	462.5
801.534	489.5
801.79	509.5
802.046	487.5
802.302	574.5
802.557	616.5
802.813	734.5
803.068	812.5
803.324	1094.5
803.579	1386.5
803.835	1814.5
804.09	2476.5
804.345	3186.5
804.601	3989.5
804.856	4804.5
805.111	5620.5
805.366	6147.5
805.621	6509.5
805.876	6820.5
806.131	6978.5
806.386	7089.5
806.641	7229.5
806.896	7371.5
807.151	7521.5
807.406	7580.5
807.661	7760.5
807.915	7869.5
808.17	7990.5
808.425	8086.5
808.679	8071.5
808.934	8296.5
809.188	8279.5
809.443	8357.5
809.697	8490.5
809.951	8541.5
810.206	8639.5
810.46	8763.5
810.714	8841.5
810.968	8909.5
811.223	8984.5
811.477	9064.5
811.731	9234.5
811.985	9161.5
812.239	9163.5
812.493	9239.5
812.747	9272.5
813	9261.5
813.254	9289.5
813.508	9445.5
813.762	9522.5
814.015	9452.5
814.269	9560.5
814.522	9708.5
814.776	9819.5
815.03	9978.5
815.283	10083.5
815.536	10264.5
815.79	10393.5
816.043	10553.5
816.296	10768.5
816.55	10804.5
816.803	10953.5
817.056	11180.5
817.309	11161.5
817.562	11292.5
817.815	11477.5
818.068	11521.5
818.321	11665.5
818.574	11778.5
818.827	11995.5
819.079	12236.5
819.332	12473.5
819.585	12616.5
819.838	12750.5
820.09	12674.5
820.343	12920.5
820.595	12894.5
820.848	12973.5
821.1	13054.5
821.353	13071.5
821.605	13073.5
821.857	13041.5
822.11	12932.5
822.362	12910.5
822.614	12866.5
822.866	12996.5
823.118	12900.5
823.37	13055.5
823.622	13091.5
823.874	13166.5
824.126	13291.5
824.378	13205.5
824.63	13211.5
824.882	13345.5
825.134	13269.5
825.385	13293.5
825.637	13245.5
825.888	13268.5
826.14	13167.5
826.392	13172.5
826.643	13059.5
826.895	13058.5
827.146	13008.5
827.397	12899.5
827.649	12984.5
827.9	12908.5
828.151	12970.5
828.402	12942.5
828.653	13049.5
828.905	13103.5
829.156	13155.5
829.407	13195.5
829.658	13222.5
829.909	13371.5
830.159	13279.5
830.41	13304.5
830.661	13154.5
830.912	13105.5
831.162	13081.5
831.413	13026.5
831.664	13150.5
831.914	13087.5
832.165	13021.5
832.415	13032.5
832.666	13087.5
832.916	13071.5
833.167	13114.5
833.417	13247.5
833.667	13029.5
833.917	12937.5
834.168	13033.5
834.418	12946.5
834.668	12918.5
834.918	12926.5
835.168	12875.5
835.418	12772.5
835.668	12840.5
835.918	12706.5
836.167	12802.5
836.417	12687.5
836.667	12733.5
836.917	12750.5
837.166	12652.5
837.416	12773.5
837.666	12725.5
837.915	12713.5
838.165	12792.5
838.414	12759.5
838.663	12642.5
838.913	12677.5
839.162	12659.5
839.411	12762.5
839.661	12722.5
839.91	12708.5
840.159	12646.5
840.408	12668.5
840.657	12723.5
840.906	12746.5
841.155	12868.5
841.404	12764.5
841.653	12754.5
841.902	12732.5
842.15	12837.5
842.399	12863.5
842.648	12861.5
842.897	12892.5
843.145	12724.5
843.394	12633.5
843.642	12536.5
843.891	12572.5
844.139	12450.5
844.388	12384.5
844.636	12308.5
844.884	12376.5
845.133	12394.5
845.381	12380.5
845.629	12404.5
845.877	12292.5
846.125	12345.5
846.373	12347.5
846.621	12302.5
846.869	12358.5
847.117	12246.5
847.365	12229.5
847.613	12175.5
847.861	12184.5
848.108	12194.5
848.356	12129.5
848.604	12116.5
848.851	12248.5
849.099	12191.5
849.346	12271.5
849.594	12345.5
849.841	12404.5
850.089	12402.5
850.336	12509.5
850.583	12485.5
850.831	12527.5
851.078	12383.5
851.325	12354.5
851.572	12441.5
851.819	12353.5
852.066	12094.5
852.313	11835.5
852.56	11695.5
852.807	11693.5
853.054	11623.5
853.301	11728.5
853.548	11705.5
853.794	11891.5
854.041	11851.5
854.288	11909.5
854.534	12075.5
854.781	12025.5
855.028	11963.5
855.274	12094.5
855.52	11994.5
855.767	12061.5
856.013	12116.5
856.26	12362.5
856.506	11968.5
856.752	11869.5
856.998	11932.5
857.244	11933.5
857.49	12014.5
857.736	12105.5
857.982	12018.5
858.228	11988.5
858.474	11912.5
858.72	11812.5
858.966	11633.5
859.212	11540.5
859.458	11420.5
859.703	11365.5
859.949	11196.5
860.195	11160.5
860.44	11161.5
860.686	11126.5
860.931	11201.5
861.177	11037.5
861.422	10989.5
861.667	10913.5
861.913	10869.5
862.158	10984.5
862.403	10903.5
862.648	10922.5
862.893	11062.5
863.138	11046.5
863.384	10942.5
863.629	10913.5
863.873	11011.5
864.118	11015.5
864.363	10931.5
864.608	10911.5
864.853	10860.5
865.098	10824.5
865.342	10700.5
865.587	10645.5
865.832	10814.5
866.076	10761.5
866.321	10693.5
866.565	10657.5
866.81	10584.5
867.054	10650.5
867.298	10595.5
867.543	10586.5
867.787	10620.5
868.031	10565.5
868.275	10572.5
868.519	10566.5
868.764	10629.5
869.008	10588.5
869.252	10679.5
869.496	10636.5
869.739	10570.5
869.983	10698.5
870.227	10761.5
870.471	10643.5
870.715	10794.5
870.958	10856.5
871.202	10824.5
871.446	10895.5
871.689	10884.5
871.933	10868.5
872.176	10850.5
872.42	10788.5
872.663	10845.5
872.906	10833.5
873.15	10872.5
873.393	10854.5
873.636	10948.5
873.879	10810.5
874.122	10711.5
874.366	10516.5
874.609	10368.5
874.852	10318.5
875.095	10297.5
875.337	10192.5
875.58	9995.5
875.823	10078.5
876.066	10150.5
876.309	10083.5
876.551	9925.5
876.794	9872.5
877.037	9929.5
877.279	9872.5
877.522	9834.5
877.764	9853.5
878.007	9834.5
878.249	9869.5
878.491	9778.5
878.734	9817.5
878.976	9733.5
879.218	9628.5
879.46	9658.5
879.702	9623.5
879.945	9462.5
880.187	9429.5
880.429	9393.5
880.671	9337.5
880.912	9342.5
881.154	9318.5
881.396	9177.5
881.638	9295.5
881.88	9321.5
882.121	9312.5
882.363	9253.5
882.605	9335.5
882.846	9366.5
883.088	9356.5
883.329	9312.5
883.571	9419.5
883.812	9612.5
884.053	9924.5
884.295	10394.5
884.536	10537.5
884.777	10500.5
885.018	10355.5
885.259	10261.5
885.5	10184.5
885.742	10373.5
885.982	10155.5
886.223	10046.5
886.464	9876.5
886.705	9775.5
886.946	9621.5
887.187	9346.5
887.428	9288.5
887.668	9019.5
887.909	8844.5
888.15	8689.5
888.39	8646.5
888.631	8651.5
888.871	8574.5
889.111	8437.5
889.352	8468.5
889.592	8311.5
889.833	8214.5
890.073	8204.5
890.313	8176.5
890.553	8126.5
890.793	8053.5
891.033	8035.5
891.273	7946.5
891.513	7967.5
891.753	7964.5
891.993	7905.5
892.233	7972.5
892.473	8027.5
892.713	8022.5
892.952	7994.5
893.192	8082.5
893.432	8025.5
893.671	8102.5
893.911	8082.5
894.15	7903.5
894.39	7832.5
894.629	7854.5
894.869	7861.5
895.108	7818.5
895.347	7801.5
895.587	7754.5
895.826	7779.5
896.065	7732.5
896.304	7764.5
896.543	7765.5
896.782	7655.5
897.021	7756.5
897.26	7730.5
897.499	7714.5
897.738	7778.5
897.977	7654.5
898.216	7582.5
898.454	7579.5
898.693	7552.5
898.932	7544.5
899.17	7509.5
899.409	7514.5
899.647	7434.5
899.886	7455.5
900.124	7529.5
900.363	7542.5
900.601	7596.5
900.839	7642.5
901.078	7695.5
901.316	7822.5
901.554	7840.5
901.792	7936.5
902.03	7981.5
902.268	7988.5
902.506	7970.5
902.744	7866.5
902.982	7841.5
903.22	7604.5
903.458	7505.5
903.695	7416.5
903.933	7222.5
904.171	7032.5
904.409	6882.5
904.646	6830.5
904.884	6729.5
905.121	6709.5
905.359	6622.5
905.596	6591.5
905.833	6442.5
906.071	6450.5
906.308	6499.5
906.545	6438.5
906.783	6344.5
907.02	6389.5
907.257	6332.5
907.494	6352.5
907.731	6373.5
907.968	6354.5
908.205	6220.5
908.442	6205.5
908.679	6208.5
908.915	6172.5
909.152	6114.5
909.389	5985.5
909.626	5979.5
909.862	5952.5
910.099	5932.5
910.335	5926.5
910.572	5832.5
910.808	5881.5
911.045	5809.5
911.281	5802.5
911.518	5846.5
911.754	5809.5
911.99	5761.5
912.226	5747.5
912.463	5591.5
912.699	5626.5
912.935	5616.5
913.171	5566.5
913.407	5485.5
913.643	5517.5
913.879	5464.5
914.114	5415.5
914.35	5311.5
914.586	5364.5
914.822	5281.5
915.057	5342.5
915.293	5149.5
915.529	5132.5
915.764	5233.5
916	5201.5
916.235	5208.5
916.471	5184.5
916.706	5155.5
916.941	5130.5
917.177	5148.5
917.412	5160.5
917.647	5172.5
917.882	5085.5
918.117	5132.5
918.352	5099.5
918.588	5158.5
918.823	4997.5
919.057	4973.5
919.292	4910.5
919.527	4986.5
919.762	4902.5
919.997	4920.5
920.232	4798.5
920.466	4744.5
920.701	4673.5
920.935	4731.5
921.17	4664.5
921.405	4679.5
921.639	4761.5
921.873	4607.5
922.108	4603.5
922.342	4645.5
922.576	4560.5
922.811	4544.5
923.045	4585.5
923.279	4579.5
923.513	4463.5
923.747	4586.5
923.981	4447.5
924.215	4454.5
924.449	4483.5
924.683	4378.5
924.917	4439.5
925.151	4335.5
925.385	4428.5
925.618	4364.5
925.852	4374.5
926.086	4306.5
926.319	4329.5
926.553	4329.5
926.786	4344.5
927.02	4334.5
927.253	4360.5
927.486	4362.5
927.72	4303.5
927.953	4353.5
928.186	4286.5
928.42	4308.5
928.653	4265.5
928.886	4231.5
929.119	4261.5
929.352	4266.5
929.585	4235.5
929.818	4165.5
930.051	4166.5
930.284	4120.5
930.516	4036.5
930.749	4078.5
930.982	4070.5
931.215	4061.5
931.447	4010.5
931.68	3955.5
931.912	3986.5
932.145	3989.5
932.377	4017.5
932.61	4131.5
932.842	3943.5
933.074	4034.5
933.307	3969.5
933.539	4024.5
933.771	4072.5
934.003	3977.5
934.236	4023.5
934.468	4065.5
934.7	3940.5
934.932	3981.5
935.164	3927.5
935.395	3953.5
935.627	3963.5
935.859	3955.5
936.091	3865.5
936.323	3924.5
936.554	3950.5
936.786	3864.5
937.017	3854.5
937.249	3865.5
937.481	3819.5
937.712	3866.5
937.943	3878.5
938.175	3829.5
938.406	3824.5
938.637	3900.5
938.869	3783.5
939.1	3850.5
939.331	3773.5
939.562	3804.5
939.793	3831.5
940.024	3816.5
940.255	3833.5
940.486	3734.5
940.717	3782.5
940.948	3733.5
941.179	3707.5
941.409	3750.5
941.64	3661.5
941.871	3737.5
942.102	3690.5
942.332	3699.5
942.563	3777.5
942.793	3706.5
943.024	3661.5
943.254	3719.5
943.484	3752.5
943.715	3726.5
943.945	3711.5
944.175	3607.5
944.405	3612.5
944.636	3637.5
944.866	3684.5
945.096	3732.5
945.326	3620.5
945.556	3644.5
945.786	3682.5
946.016	3622.5
946.245	3567.5
946.475	3581.5
946.705	3537.5
946.935	3549.5
947.164	3560.5
947.394	3499.5
947.624	3538.5
947.853	3518.5
948.083	3496.5
948.312	3484.5
948.542	3418.5
948.771	3418.5
949	3384.5
949.23	3414.5
949.459	3435.5
949.688	3481.5
949.917	3420.5
950.146	3384.5
950.375	3497.5
950.604	3388.5
950.833	3499.5
951.062	3441.5
951.291	3413.5
951.52	3377.5
951.749	3400.5
951.978	3374.5
952.206	3330.5
952.435	3327.5
952.664	3395.5
952.892	3377.5
953.121	3334.5
953.349	3356.5
953.578	3351.5
953.806	3322.5
954.035	3266.5
954.263	3281.5
954.491	3221.5
954.719	3270.5
954.948	3272.5
955.176	3198.5
955.404	3145.5
955.632	3204.5
955.86	3210.5
956.088	3208.5
956.316	3187.5
956.544	3223.5
956.772	3167.5
956.999	3158.5
957.227	3228.5
957.455	3075.5
957.683	3098.5
957.91	3072.5
958.138	3059.5
958.365	3040.5
958.593	3043.5
958.82	2964.5
959.048	3086.5
959.275	3037.5
959.502	3007.5
959.73	2996.5
959.957	3028.5
960.184	3060.5
960.411	3005.5
960.638	3053.5
960.865	2979.5
961.092	3017.5
961.319	2914.5
961.546	3040.5
961.773	3005.5
962	2955.5
962.227	3014.5
962.454	2948.5
962.68	2949.5
962.907	2975.5
963.134	2905.5
963.36	2926.5
963.587	2934.5
963.813	2873.5
964.04	2913.5
964.266	2848.5
964.493	2918.5
964.719	2909.5
964.945	2863.5
965.171	2774.5
965.398	2819.5
965.624	2828.5
965.85	2751.5
966.076	2771.5
966.302	2809.5
966.528	2763.5
966.754	2800.5
966.98	2767.5
967.206	2727.5
967.431	2661.5
967.657	2763.5
967.883	2757.5
968.109	2726.5
968.334	2683.5
968.56	2731.5
968.785	2679.5
969.011	2639.5
969.236	2692.5
969.462	2638.5
969.687	2611.5
969.912	2684.5
970.138	2719.5
970.363	2615.5
970.588	2639.5
970.813	2582.5
971.038	2608.5
971.263	2625.5
971.488	2648.5
971.713	2640.5
971.938	2645.5
972.163	2534.5
972.388	2588.5
972.613	2506.5
972.838	2522.5
973.062	2530.5
973.287	2523.5
973.512	2488.5
973.736	2505.5
973.961	2513.5
974.185	2458.5
974.41	2511.5
974.634	2395.5
974.858	2375.5
975.083	2461.5
975.307	2443.5
975.531	2376.5
975.755	2342.5
975.98	2358.5
976.204	2291.5
976.428	2315.5
976.652	2304.5
976.876	2302.5
977.1	2333.5
977.324	2274.5
977.547	2353.5
977.771	2305.5
977.995	2299.5
978.219	2247.5
978.442	2348.5
978.666	2299.5
978.89	2287.5
979.113	2263.5
979.337	2261.5
979.56	2252.5
979.783	2315.5
980.007	2198.5
980.23	2221.5
980.453	2177.5
980.677	2213.5
980.9	2213.5
981.123	2150.5
981.346	2248.5
981.569	2227.5
981.792	2222.5
982.015	2172.5
982.238	2157.5
982.461	2157.5
982.684	2130.5
982.907	2093.5
983.129	2094.5
983.352	2132.5
983.575	2119.5
983.797	2122.5
984.02	2055.5
984.242	2058.5
984.465	2091.5
984.687	2091.5
984.91	2134.5
985.132	2062.5
985.354	2087.5
985.577	2055.5
985.799	2050.5
986.021	1978.5
986.243	2011.5
986.465	2029.5
986.687	2043.5
986.909	2095.5
987.131	2029.5
987.353	2018.5
987.575	2029.5
987.797	2032.5
988.019	1944.5
988.241	1992.5
988.462	1946.5
988.684	2018.5
988.906	2037.5
989.127	2073.5
989.349	1944.5
989.57	1971.5
989.792	2009.5
990.013	2023.5
990.234	2010.5
990.456	2057.5
990.677	2007.5
990.898	1948.5
991.119	1978.5
991.341	1961.5
991.562	1912.5
991.783	1914.5
992.004	1878.5
992.225	1899.5
992.446	1935.5
992.667	1846.5
992.887	1910.5
993.108	1824.5
993.329	1940.5
993.55	1872.5
993.77	1822.5
993.991	1816.5
994.212	1859.5
994.432	1845.5
994.653	1867.5
994.873	1838.5
995.093	1725.5
995.314	1776.5
995.534	1855.5
995.754	1875.5
995.975	1886.5
996.195	1788.5
996.415	1858.5
996.635	1821.5
996.855	1819.5
997.075	1824.5
997.295	1831.5
997.515	1801.5
997.735	1848.5
997.955	1829.5
998.174	1796.5
998.394	1805.5
998.614	1852.5
998.834	1787.5
999.053	1828.5
999.273	1761.5
999.492	1867.5
999.712	1789.5
999.931	1748.5
1000.151	1787.5
1000.37	1743.5
1000.589	1833.5
1000.809	1724.5
1001.028	1848.5
1001.247	1754.5
1001.466	1684.5
1001.685	1820.5
1001.904	1734.5
1002.123	1715.5
1002.342	1719.5
1002.561	1685.5
1002.78	1725.5
1002.999	1759.5
1003.218	1714.5
1003.436	1677.5
1003.655	1736.5
1003.874	1641.5
1004.092	1697.5
1004.311	1729.5
1004.53	1692.5
1004.748	1786.5
1004.966	1694.5
1005.185	1750.5
1005.403	1714.5
1005.622	1703.5
1005.84	1757.5
1006.058	1705.5
1006.276	1704.5
1006.494	2219.5
1006.712	1717.5
1006.931	1784.5
1007.149	1686.5
1007.367	1723.5
1007.584	1751.5
1007.802	1808.5
1008.02	1776.5
1008.238	1869.5
1008.456	1907.5
1008.673	1763.5
1008.891	1904.5
1009.109	1912.5
1009.326	1955.5
1009.544	2076.5
1009.761	2024.5
1009.979	2160.5
1010.196	2233.5
1010.413	2403.5
1010.631	2549.5
1010.848	2609.5
1011.065	2667.5
1011.282	2617.5
1011.5	2569.5
1011.717	2682.5
1011.934	2601.5
1012.151	2570.5
1012.368	2615.5
1012.585	2527.5
1012.801	2606.5
1013.018	2564.5
1013.235	2547.5
1013.452	2573.5
1013.669	2634.5
1013.885	2606.5
1014.102	2649.5
1014.318	2644.5
1014.535	2604.5
1014.751	2582.5
1014.968	2611.5
1015.184	2633.5
1015.401	2472.5
1015.617	2531.5
1015.833	2458.5
1016.049	2409.5
1016.266	2437.5
1016.482	2426.5
1016.698	2326.5
1016.914	2396.5
1017.13	2322.5
1017.346	2317.5
1017.562	2377.5
1017.778	2315.5
1017.993	2264.5
1018.209	2318.5
1018.425	2295.5
1018.641	2282.5
1018.856	2229.5
1019.072	2279.5
1019.288	2341.5
1019.503	2287.5
1019.719	2200.5
1019.934	2181.5
1020.149	2244.5
1020.365	2170.5
1020.58	2096.5
1020.795	2157.5
1021.011	2010.5
1021.226	1966.5
1021.441	1951.5
1021.656	1842.5
1021.871	1779.5
1022.086	1765.5
1022.301	1733.5
1022.516	1710.5
1022.731	1756.5
1022.946	1647.5
1023.16	1624.5
1023.375	1584.5
1023.59	1523.5
1023.804	1494.5
1024.019	1569.5
1024.234	1427.5
1024.448	1428.5
1024.663	1347.5
1024.877	1353.5
1025.092	1371.5
1025.306	1324.5
1025.52	1245.5
1025.734	1306.5
1025.949	1195.5
1026.163	1167.5
1026.377	1094.5
1026.591	1146.5
1026.805	1073.5
1027.019	1045.5
1027.233	1031.5
1027.447	970.5
1027.661	1055.5
1027.875	995.5
1028.088	1002.5
1028.302	913.5
1028.516	894.5
1028.73	892.5
1028.943	872.5
1029.157	822.5
1029.37	751.5
1029.584	-0.5
1029.797	-2.5
1030.011	-1.5
1030.224	-2.5
