Data from QEP037381__118__13-46-44-889.txt Node

Date: Wed Dec 21 13:46:44 EST 2022
User: dcclab
Spectrometer: QEP03738
Trigger mode: 4
Integration Time (sec): 1.000000E1
Scans to average: 1
Electric dark correction enabled: true
Nonlinearity correction enabled: false
Boxcar width: 0
XAxis mode: Wavelengths
Number of Pixels in Spectrum: 1044
>>>>>Begin Spectral Data<<<<<
784.041	11.25
784.3	3.25
784.558	-4.75
784.817	-2.75
785.075	85799.25
785.334	14979.25
785.592	7099.25
785.851	4887.25
786.109	3662.25
786.368	2902.25
786.626	2326.25
786.884	1897.25
787.143	1600.25
787.401	1340.25
787.659	1215.25
787.917	1036.25
788.175	966.25
788.433	861.25
788.691	777.25
788.949	718.25
789.207	692.25
789.465	616.25
789.723	577.25
789.98	517.25
790.238	586.25
790.496	536.25
790.753	500.25
791.011	582.25
791.268	504.25
791.526	478.25
791.783	504.25
792.041	473.25
792.298	408.25
792.556	467.25
792.813	459.25
793.07	433.25
793.327	416.25
793.584	500.25
793.841	428.25
794.099	454.25
794.356	504.25
794.613	400.25
794.869	444.25
795.126	399.25
795.383	376.25
795.64	409.25
795.897	346.25
796.153	424.25
796.41	397.25
796.667	387.25
796.923	382.25
797.18	396.25
797.436	419.25
797.693	376.25
797.949	421.25
798.206	454.25
798.462	377.25
798.718	431.25
798.974	406.25
799.231	437.25
799.487	438.25
799.743	433.25
799.999	454.25
800.255	450.25
800.511	427.25
800.767	463.25
801.023	448.25
801.279	468.25
801.534	484.25
801.79	537.25
802.046	526.25
802.302	638.25
802.557	686.25
802.813	802.25
803.068	921.25
803.324	1236.25
803.579	1615.25
803.835	2180.25
804.09	2933.25
804.345	3769.25
804.601	4761.25
804.856	5680.25
805.111	6538.25
805.366	7227.25
805.621	7698.25
805.876	8083.25
806.131	8194.25
806.386	8365.25
806.641	8456.25
806.896	8649.25
807.151	8835.25
807.406	8963.25
807.661	9083.25
807.915	9237.25
808.17	9458.25
808.425	9574.25
808.679	9584.25
808.934	9721.25
809.188	9787.25
809.443	9913.25
809.697	10020.25
809.951	10140.25
810.206	10242.25
810.46	10316.25
810.714	10375.25
810.968	10519.25
811.223	10558.25
811.477	10726.25
811.731	10835.25
811.985	10767.25
812.239	10818.25
812.493	10874.25
812.747	10900.25
813	10941.25
813.254	11048.25
813.508	11173.25
813.762	11127.25
814.015	11263.25
814.269	11260.25
814.522	11422.25
814.776	11542.25
815.03	11658.25
815.283	11833.25
815.536	12071.25
815.79	12206.25
816.043	12454.25
816.296	12478.25
816.55	12647.25
816.803	12834.25
817.056	13091.25
817.309	13161.25
817.562	13358.25
817.815	13459.25
818.068	13526.25
818.321	13659.25
818.574	13832.25
818.827	13991.25
819.079	14246.25
819.332	14540.25
819.585	14678.25
819.838	14972.25
820.09	14902.25
820.343	15005.25
820.595	14993.25
820.848	15221.25
821.1	15289.25
821.353	15270.25
821.605	15183.25
821.857	15189.25
822.11	15061.25
822.362	15129.25
822.614	15147.25
822.866	15121.25
823.118	15066.25
823.37	15290.25
823.622	15194.25
823.874	15315.25
824.126	15348.25
824.378	15366.25
824.63	15389.25
824.882	15476.25
825.134	15407.25
825.385	15384.25
825.637	15280.25
825.888	15206.25
826.14	15226.25
826.392	15257.25
826.643	15107.25
826.895	15095.25
827.146	15027.25
827.397	15073.25
827.649	15140.25
827.9	14964.25
828.151	14973.25
828.402	15092.25
828.653	15071.25
828.905	15230.25
829.156	15215.25
829.407	15107.25
829.658	15309.25
829.909	15337.25
830.159	15554.25
830.41	15470.25
830.661	15368.25
830.912	15142.25
831.162	15173.25
831.413	15127.25
831.664	15249.25
831.914	15119.25
832.165	15218.25
832.415	15055.25
832.666	15116.25
832.916	15164.25
833.167	15136.25
833.417	15224.25
833.667	15202.25
833.917	14993.25
834.168	15078.25
834.418	14992.25
834.668	14872.25
834.918	14903.25
835.168	14926.25
835.418	14810.25
835.668	14770.25
835.918	14667.25
836.167	14726.25
836.417	14595.25
836.667	14573.25
836.917	14734.25
837.166	14626.25
837.416	14719.25
837.666	14825.25
837.915	14700.25
838.165	14670.25
838.414	14609.25
838.663	14613.25
838.913	14698.25
839.162	14592.25
839.411	14746.25
839.661	14602.25
839.91	14635.25
840.159	14675.25
840.408	14719.25
840.657	14689.25
840.906	14749.25
841.155	14751.25
841.404	14740.25
841.653	14733.25
841.902	14815.25
842.15	14917.25
842.399	14936.25
842.648	14907.25
842.897	14823.25
843.145	14782.25
843.394	14614.25
843.642	14503.25
843.891	14470.25
844.139	14306.25
844.388	14288.25
844.636	14163.25
844.884	14213.25
845.133	14257.25
845.381	14230.25
845.629	14300.25
845.877	14275.25
846.125	14260.25
846.373	14252.25
846.621	14234.25
846.869	14220.25
847.117	14128.25
847.365	13982.25
847.613	13988.25
847.861	14017.25
848.108	13997.25
848.356	14012.25
848.604	13948.25
848.851	13906.25
849.099	14067.25
849.346	14052.25
849.594	14166.25
849.841	14187.25
850.089	14276.25
850.336	14333.25
850.583	14412.25
850.831	14355.25
851.078	14211.25
851.325	14100.25
851.572	14239.25
851.819	14179.25
852.066	13882.25
852.313	13588.25
852.56	13389.25
852.807	13371.25
853.054	13392.25
853.301	13457.25
853.548	13479.25
853.794	13631.25
854.041	13562.25
854.288	13666.25
854.534	13937.25
854.781	13739.25
855.028	13729.25
855.274	13755.25
855.52	13797.25
855.767	13796.25
856.013	13841.25
856.26	14126.25
856.506	13717.25
856.752	13684.25
856.998	13735.25
857.244	13716.25
857.49	13803.25
857.736	13854.25
857.982	13823.25
858.228	13793.25
858.474	13547.25
858.72	13484.25
858.966	13332.25
859.212	13221.25
859.458	13043.25
859.703	12907.25
859.949	12765.25
860.195	12722.25
860.44	12771.25
860.686	12696.25
860.931	12792.25
861.177	12615.25
861.422	12522.25
861.667	12411.25
861.913	12381.25
862.158	12344.25
862.403	12412.25
862.648	12553.25
862.893	12512.25
863.138	12485.25
863.384	12448.25
863.629	12460.25
863.873	12448.25
864.118	12453.25
864.363	12348.25
864.608	12308.25
864.853	12331.25
865.098	12335.25
865.342	12135.25
865.587	12113.25
865.832	12110.25
866.076	12148.25
866.321	12118.25
866.565	12091.25
866.81	11935.25
867.054	12009.25
867.298	12122.25
867.543	11939.25
867.787	12005.25
868.031	11927.25
868.275	11994.25
868.519	11934.25
868.764	12001.25
869.008	12014.25
869.252	12031.25
869.496	11949.25
869.739	12093.25
869.983	12010.25
870.227	12159.25
870.471	12094.25
870.715	12219.25
870.958	12258.25
871.202	12280.25
871.446	12362.25
871.689	12296.25
871.933	12245.25
872.176	12270.25
872.42	12248.25
872.663	12252.25
872.906	12209.25
873.15	12371.25
873.393	12326.25
873.636	12456.25
873.879	12343.25
874.122	12140.25
874.366	11946.25
874.609	11833.25
874.852	11712.25
875.095	11501.25
875.337	11557.25
875.58	11320.25
875.823	11337.25
876.066	11417.25
876.309	11365.25
876.551	11170.25
876.794	11168.25
877.037	11225.25
877.279	11177.25
877.522	11122.25
877.764	11149.25
878.007	11098.25
878.249	11117.25
878.491	10978.25
878.734	10989.25
878.976	10889.25
879.218	10913.25
879.46	10792.25
879.702	10829.25
879.945	10697.25
880.187	10541.25
880.429	10557.25
880.671	10403.25
880.912	10412.25
881.154	10377.25
881.396	10294.25
881.638	10357.25
881.88	10322.25
882.121	10367.25
882.363	10349.25
882.605	10416.25
882.846	10498.25
883.088	10495.25
883.329	10516.25
883.571	10533.25
883.812	10855.25
884.053	11231.25
884.295	11750.25
884.536	11963.25
884.777	11942.25
885.018	11803.25
885.259	11675.25
885.5	11545.25
885.742	11667.25
885.982	11481.25
886.223	11311.25
886.464	11110.25
886.705	10993.25
886.946	10776.25
887.187	10524.25
887.428	10357.25
887.668	10035.25
887.909	9829.25
888.15	9688.25
888.39	9639.25
888.631	9602.25
888.871	9470.25
889.111	9443.25
889.352	9362.25
889.592	9210.25
889.833	9103.25
890.073	9095.25
890.313	9052.25
890.553	8941.25
890.793	8885.25
891.033	8908.25
891.273	8842.25
891.513	8836.25
891.753	8829.25
891.993	8750.25
892.233	8828.25
892.473	8845.25
892.713	8843.25
892.952	8855.25
893.192	8903.25
893.432	8863.25
893.671	8886.25
893.911	8797.25
894.15	8762.25
894.39	8688.25
894.629	8736.25
894.869	8635.25
895.108	8579.25
895.347	8562.25
895.587	8529.25
895.826	8535.25
896.065	8537.25
896.304	8511.25
896.543	8557.25
896.782	8452.25
897.021	8505.25
897.26	8519.25
897.499	8546.25
897.738	8541.25
897.977	8435.25
898.216	8378.25
898.454	8329.25
898.693	8245.25
898.932	8291.25
899.17	8235.25
899.409	8255.25
899.647	8238.25
899.886	8267.25
900.124	8299.25
900.363	8306.25
900.601	8359.25
900.839	8407.25
901.078	8509.25
901.316	8551.25
901.554	8685.25
901.792	8842.25
902.03	8735.25
902.268	8865.25
902.506	8873.25
902.744	8690.25
902.982	8624.25
903.22	8471.25
903.458	8242.25
903.695	8149.25
903.933	7906.25
904.171	7718.25
904.409	7675.25
904.646	7585.25
904.884	7376.25
905.121	7355.25
905.359	7277.25
905.596	7150.25
905.833	7039.25
906.071	7024.25
906.308	7107.25
906.545	7004.25
906.783	6921.25
907.02	7005.25
907.257	6922.25
907.494	6915.25
907.731	6922.25
907.968	6923.25
908.205	6814.25
908.442	6799.25
908.679	6777.25
908.915	6730.25
909.152	6711.25
909.389	6571.25
909.626	6565.25
909.862	6455.25
910.099	6480.25
910.335	6455.25
910.572	6296.25
910.808	6388.25
911.045	6341.25
911.281	6310.25
911.518	6357.25
911.754	6275.25
911.99	6319.25
912.226	6274.25
912.463	6168.25
912.699	6126.25
912.935	6093.25
913.171	6029.25
913.407	5979.25
913.643	6003.25
913.879	5894.25
914.114	5907.25
914.35	5757.25
914.586	5779.25
914.822	5687.25
915.057	5788.25
915.293	5608.25
915.529	5623.25
915.764	5670.25
916	5644.25
916.235	5612.25
916.471	5631.25
916.706	5535.25
916.941	5553.25
917.177	5544.25
917.412	5604.25
917.647	5563.25
917.882	5525.25
918.117	5574.25
918.352	5514.25
918.588	5563.25
918.823	5489.25
919.057	5392.25
919.292	5310.25
919.527	5359.25
919.762	5244.25
919.997	5310.25
920.232	5163.25
920.466	5143.25
920.701	5094.25
920.935	5079.25
921.17	5046.25
921.405	5063.25
921.639	5066.25
921.873	4964.25
922.108	5023.25
922.342	4998.25
922.576	4911.25
922.811	4902.25
923.045	4968.25
923.279	4923.25
923.513	4823.25
923.747	4905.25
923.981	4831.25
924.215	4819.25
924.449	4786.25
924.683	4767.25
924.917	4719.25
925.151	4677.25
925.385	4727.25
925.618	4724.25
925.852	4696.25
926.086	4601.25
926.319	4666.25
926.553	4667.25
926.786	4682.25
927.02	4667.25
927.253	4690.25
927.486	4704.25
927.72	4658.25
927.953	4665.25
928.186	4641.25
928.42	4651.25
928.653	4564.25
928.886	4528.25
929.119	4541.25
929.352	4546.25
929.585	4498.25
929.818	4440.25
930.051	4405.25
930.284	4458.25
930.516	4334.25
930.749	4337.25
930.982	4378.25
931.215	4374.25
931.447	4297.25
931.68	4269.25
931.912	4302.25
932.145	4298.25
932.377	4230.25
932.61	4401.25
932.842	4190.25
933.074	4292.25
933.307	4221.25
933.539	4333.25
933.771	4270.25
934.003	4303.25
934.236	4360.25
934.468	4335.25
934.7	4251.25
934.932	4327.25
935.164	4207.25
935.395	4166.25
935.627	4240.25
935.859	4193.25
936.091	4185.25
936.323	4221.25
936.554	4205.25
936.786	4172.25
937.017	4084.25
937.249	4140.25
937.481	4068.25
937.712	4140.25
937.943	4120.25
938.175	4129.25
938.406	4069.25
938.637	4119.25
938.869	4056.25
939.1	4104.25
939.331	4052.25
939.562	4082.25
939.793	4030.25
940.024	4070.25
940.255	4039.25
940.486	3982.25
940.717	3993.25
940.948	3971.25
941.179	3939.25
941.409	3966.25
941.64	3911.25
941.871	3965.25
942.102	3890.25
942.332	3948.25
942.563	3975.25
942.793	3955.25
943.024	3889.25
943.254	3923.25
943.484	4014.25
943.715	3961.25
943.945	3899.25
944.175	3880.25
944.405	3863.25
944.636	3850.25
944.866	3933.25
945.096	3885.25
945.326	3812.25
945.556	3902.25
945.786	3882.25
946.016	3837.25
946.245	3776.25
946.475	3808.25
946.705	3723.25
946.935	3756.25
947.164	3763.25
947.394	3685.25
947.624	3727.25
947.853	3726.25
948.083	3713.25
948.312	3649.25
948.542	3648.25
948.771	3642.25
949	3638.25
949.23	3594.25
949.459	3623.25
949.688	3691.25
949.917	3648.25
950.146	3616.25
950.375	3659.25
950.604	3595.25
950.833	3669.25
951.062	3653.25
951.291	3638.25
951.52	3534.25
951.749	3553.25
951.978	3496.25
952.206	3542.25
952.435	3529.25
952.664	3574.25
952.892	3537.25
953.121	3510.25
953.349	3534.25
953.578	3527.25
953.806	3460.25
954.035	3411.25
954.263	3470.25
954.491	3403.25
954.719	3447.25
954.948	3388.25
955.176	3364.25
955.404	3332.25
955.632	3412.25
955.86	3397.25
956.088	3336.25
956.316	3356.25
956.544	3362.25
956.772	3284.25
956.999	3266.25
957.227	3333.25
957.455	3256.25
957.683	3234.25
957.91	3227.25
958.138	3210.25
958.365	3179.25
958.593	3139.25
958.82	3125.25
959.048	3189.25
959.275	3159.25
959.502	3151.25
959.73	3104.25
959.957	3187.25
960.184	3182.25
960.411	3126.25
960.638	3191.25
960.865	3145.25
961.092	3145.25
961.319	3066.25
961.546	3154.25
961.773	3163.25
962	3142.25
962.227	3163.25
962.454	3129.25
962.68	3121.25
962.907	3111.25
963.134	3048.25
963.36	3007.25
963.587	3091.25
963.813	3007.25
964.04	3005.25
964.266	2961.25
964.493	3036.25
964.719	2979.25
964.945	2959.25
965.171	2909.25
965.398	2957.25
965.624	2922.25
965.85	2902.25
966.076	2915.25
966.302	2935.25
966.528	2870.25
966.754	2915.25
966.98	2847.25
967.206	2861.25
967.431	2810.25
967.657	2864.25
967.883	2855.25
968.109	2810.25
968.334	2798.25
968.56	2783.25
968.785	2748.25
969.011	2757.25
969.236	2774.25
969.462	2767.25
969.687	2753.25
969.912	2795.25
970.138	2813.25
970.363	2687.25
970.588	2743.25
970.813	2725.25
971.038	2647.25
971.263	2731.25
971.488	2687.25
971.713	2722.25
971.938	2738.25
972.163	2634.25
972.388	2633.25
972.613	2608.25
972.838	2626.25
973.062	2616.25
973.287	2646.25
973.512	2571.25
973.736	2615.25
973.961	2606.25
974.185	2544.25
974.41	2626.25
974.634	2476.25
974.858	2505.25
975.083	2536.25
975.307	2546.25
975.531	2452.25
975.755	2437.25
975.98	2450.25
976.204	2374.25
976.428	2349.25
976.652	2372.25
976.876	2387.25
977.1	2423.25
977.324	2341.25
977.547	2429.25
977.771	2443.25
977.995	2374.25
978.219	2326.25
978.442	2411.25
978.666	2358.25
978.89	2352.25
979.113	2360.25
979.337	2327.25
979.56	2325.25
979.783	2381.25
980.007	2288.25
980.23	2312.25
980.453	2268.25
980.677	2286.25
980.9	2271.25
981.123	2215.25
981.346	2299.25
981.569	2260.25
981.792	2287.25
982.015	2228.25
982.238	2217.25
982.461	2253.25
982.684	2202.25
982.907	2173.25
983.129	2147.25
983.352	2195.25
983.575	2196.25
983.797	2206.25
984.02	2151.25
984.242	2163.25
984.465	2144.25
984.687	2179.25
984.91	2176.25
985.132	2171.25
985.354	2144.25
985.577	2141.25
985.799	2169.25
986.021	2055.25
986.243	2072.25
986.465	2092.25
986.687	2139.25
986.909	2155.25
987.131	2046.25
987.353	2079.25
987.575	2087.25
987.797	2049.25
988.019	1979.25
988.241	2056.25
988.462	1990.25
988.684	2066.25
988.906	2079.25
989.127	2091.25
989.349	2009.25
989.57	2005.25
989.792	2054.25
990.013	2055.25
990.234	2059.25
990.456	2101.25
990.677	2081.25
990.898	2002.25
991.119	2018.25
991.341	2038.25
991.562	1952.25
991.783	1993.25
992.004	1948.25
992.225	1901.25
992.446	1996.25
992.667	1870.25
992.887	1954.25
993.108	1869.25
993.329	2021.25
993.55	1926.25
993.77	1843.25
993.991	1849.25
994.212	1888.25
994.432	1884.25
994.653	1888.25
994.873	1898.25
995.093	1781.25
995.314	1810.25
995.534	1895.25
995.754	1860.25
995.975	1904.25
996.195	1805.25
996.415	1889.25
996.635	1865.25
996.855	1864.25
997.075	1850.25
997.295	1854.25
997.515	1865.25
997.735	1916.25
997.955	1872.25
998.174	1845.25
998.394	1809.25
998.614	1866.25
998.834	1791.25
999.053	1872.25
999.273	1850.25
999.492	1882.25
999.712	1798.25
999.931	1799.25
1000.151	1849.25
1000.37	1804.25
1000.589	1850.25
1000.809	1747.25
1001.028	1874.25
1001.247	1803.25
1001.466	1699.25
1001.685	1813.25
1001.904	1795.25
1002.123	1749.25
1002.342	1751.25
1002.561	1733.25
1002.78	1726.25
1002.999	1782.25
1003.218	1726.25
1003.436	1712.25
1003.655	1735.25
1003.874	1718.25
1004.092	1723.25
1004.311	1753.25
1004.53	1708.25
1004.748	1797.25
1004.966	1715.25
1005.185	1770.25
1005.403	1735.25
1005.622	1726.25
1005.84	1825.25
1006.058	1684.25
1006.276	1709.25
1006.494	2205.25
1006.712	1729.25
1006.931	1804.25
1007.149	1720.25
1007.367	1726.25
1007.584	1790.25
1007.802	1823.25
1008.02	1790.25
1008.238	1885.25
1008.456	1905.25
1008.673	1781.25
1008.891	1934.25
1009.109	1904.25
1009.326	1985.25
1009.544	2114.25
1009.761	2073.25
1009.979	2208.25
1010.196	2262.25
1010.413	2444.25
1010.631	2541.25
1010.848	2640.25
1011.065	2695.25
1011.282	2649.25
1011.5	2604.25
1011.717	2714.25
1011.934	2596.25
1012.151	2621.25
1012.368	2599.25
1012.585	2524.25
1012.801	2628.25
1013.018	2615.25
1013.235	2593.25
1013.452	2632.25
1013.669	2643.25
1013.885	2647.25
1014.102	2664.25
1014.318	2654.25
1014.535	2579.25
1014.751	2676.25
1014.968	2635.25
1015.184	2651.25
1015.401	2528.25
1015.617	2569.25
1015.833	2481.25
1016.049	2480.25
1016.266	2434.25
1016.482	2431.25
1016.698	2363.25
1016.914	2401.25
1017.13	2307.25
1017.346	2346.25
1017.562	2406.25
1017.778	2326.25
1017.993	2297.25
1018.209	2356.25
1018.425	2305.25
1018.641	2261.25
1018.856	2291.25
1019.072	2290.25
1019.288	2306.25
1019.503	2275.25
1019.719	2183.25
1019.934	2187.25
1020.149	2257.25
1020.365	2166.25
1020.58	2106.25
1020.795	2095.25
1021.011	2033.25
1021.226	1974.25
1021.441	1932.25
1021.656	1847.25
1021.871	1792.25
1022.086	1749.25
1022.301	1730.25
1022.516	1698.25
1022.731	1737.25
1022.946	1675.25
1023.16	1609.25
1023.375	1532.25
1023.59	1563.25
1023.804	1483.25
1024.019	1565.25
1024.234	1421.25
1024.448	1404.25
1024.663	1353.25
1024.877	1333.25
1025.092	1368.25
1025.306	1321.25
1025.52	1247.25
1025.734	1291.25
1025.949	1193.25
1026.163	1146.25
1026.377	1094.25
1026.591	1153.25
1026.805	1043.25
1027.019	1051.25
1027.233	1015.25
1027.447	928.25
1027.661	1042.25
1027.875	974.25
1028.088	976.25
1028.302	889.25
1028.516	883.25
1028.73	866.25
1028.943	854.25
1029.157	783.25
1029.37	736.25
1029.584	-2.75
1029.797	-1.75
1030.011	-0.75
1030.224	-1.75
