Data from QEP037381__120__13-47-04-888.txt Node

Date: Wed Dec 21 13:47:04 EST 2022
User: dcclab
Spectrometer: QEP03738
Trigger mode: 4
Integration Time (sec): 1.000000E1
Scans to average: 1
Electric dark correction enabled: true
Nonlinearity correction enabled: false
Boxcar width: 0
XAxis mode: Wavelengths
Number of Pixels in Spectrum: 1044
>>>>>Begin Spectral Data<<<<<
784.041	12.75
784.3	0.75
784.558	-3.25
784.817	-2.25
785.075	85944.75
785.334	14838.75
785.592	6918.75
785.851	4816.75
786.109	3607.75
786.368	2868.75
786.626	2316.75
786.884	1923.75
787.143	1596.75
787.401	1348.75
787.659	1196.75
787.917	1046.75
788.175	969.75
788.433	849.75
788.691	768.75
788.949	732.75
789.207	692.75
789.465	596.75
789.723	576.75
789.98	534.75
790.238	571.75
790.496	537.75
790.753	535.75
791.011	562.75
791.268	502.75
791.526	476.75
791.783	523.75
792.041	490.75
792.298	394.75
792.556	481.75
792.813	448.75
793.07	428.75
793.327	421.75
793.584	496.75
793.841	403.75
794.099	438.75
794.356	497.75
794.613	401.75
794.869	430.75
795.126	392.75
795.383	387.75
795.64	394.75
795.897	358.75
796.153	404.75
796.41	401.75
796.667	386.75
796.923	397.75
797.18	380.75
797.436	427.75
797.693	382.75
797.949	422.75
798.206	451.75
798.462	371.75
798.718	407.75
798.974	396.75
799.231	429.75
799.487	421.75
799.743	424.75
799.999	456.75
800.255	443.75
800.511	418.75
800.767	460.75
801.023	442.75
801.279	470.75
801.534	481.75
801.79	504.75
802.046	497.75
802.302	603.75
802.557	639.75
802.813	776.75
803.068	861.75
803.324	1144.75
803.579	1481.75
803.835	1943.75
804.09	2648.75
804.345	3406.75
804.601	4227.75
804.856	5116.75
805.111	5886.75
805.366	6507.75
805.621	6918.75
805.876	7267.75
806.131	7409.75
806.386	7518.75
806.641	7650.75
806.896	7773.75
807.151	7948.75
807.406	8106.75
807.661	8211.75
807.915	8367.75
808.17	8514.75
808.425	8533.75
808.679	8623.75
808.934	8799.75
809.188	8852.75
809.443	8937.75
809.697	9113.75
809.951	9117.75
810.206	9157.75
810.46	9287.75
810.714	9382.75
810.968	9534.75
811.223	9566.75
811.477	9660.75
811.731	9733.75
811.985	9766.75
812.239	9701.75
812.493	9837.75
812.747	9893.75
813	9870.75
813.254	9955.75
813.508	10061.75
813.762	10080.75
814.015	10146.75
814.269	10252.75
814.522	10315.75
814.776	10373.75
815.03	10507.75
815.283	10645.75
815.536	10863.75
815.79	11048.75
816.043	11283.75
816.296	11351.75
816.55	11510.75
816.803	11572.75
817.056	11864.75
817.309	11956.75
817.562	12062.75
817.815	12166.75
818.068	12189.75
818.321	12340.75
818.574	12543.75
818.827	12691.75
819.079	12832.75
819.332	13221.75
819.585	13366.75
819.838	13584.75
820.09	13570.75
820.343	13593.75
820.595	13612.75
820.848	13772.75
821.1	13867.75
821.353	13897.75
821.605	13809.75
821.857	13794.75
822.11	13745.75
822.362	13743.75
822.614	13649.75
822.866	13711.75
823.118	13742.75
823.37	13886.75
823.622	13967.75
823.874	14021.75
824.126	14047.75
824.378	14042.75
824.63	14073.75
824.882	14105.75
825.134	14082.75
825.385	14055.75
825.637	14013.75
825.888	13909.75
826.14	13905.75
826.392	13894.75
826.643	13828.75
826.895	13821.75
827.146	13785.75
827.397	13675.75
827.649	13676.75
827.9	13679.75
828.151	13756.75
828.402	13748.75
828.653	13789.75
828.905	13886.75
829.156	13974.75
829.407	13918.75
829.658	13962.75
829.909	14164.75
830.159	14184.75
830.41	14112.75
830.661	13993.75
830.912	13901.75
831.162	13842.75
831.413	13851.75
831.664	13878.75
831.914	13845.75
832.165	13872.75
832.415	13851.75
832.666	13769.75
832.916	13881.75
833.167	13822.75
833.417	13897.75
833.667	13790.75
833.917	13783.75
834.168	13725.75
834.418	13793.75
834.668	13689.75
834.918	13664.75
835.168	13648.75
835.418	13583.75
835.668	13624.75
835.918	13556.75
836.167	13471.75
836.417	13454.75
836.667	13397.75
836.917	13526.75
837.166	13539.75
837.416	13595.75
837.666	13528.75
837.915	13553.75
838.165	13552.75
838.414	13443.75
838.663	13451.75
838.913	13515.75
839.162	13496.75
839.411	13499.75
839.661	13532.75
839.91	13474.75
840.159	13495.75
840.408	13566.75
840.657	13560.75
840.906	13638.75
841.155	13568.75
841.404	13533.75
841.653	13583.75
841.902	13561.75
842.15	13744.75
842.399	13766.75
842.648	13633.75
842.897	13644.75
843.145	13607.75
843.394	13447.75
843.642	13310.75
843.891	13374.75
844.139	13255.75
844.388	13163.75
844.636	13043.75
844.884	13121.75
845.133	13058.75
845.381	13122.75
845.629	13189.75
845.877	13143.75
846.125	13124.75
846.373	13171.75
846.621	13086.75
846.869	13024.75
847.117	12968.75
847.365	12905.75
847.613	12916.75
847.861	12905.75
848.108	12931.75
848.356	12967.75
848.604	12945.75
848.851	12957.75
849.099	12969.75
849.346	13050.75
849.594	13114.75
849.841	13228.75
850.089	13122.75
850.336	13228.75
850.583	13267.75
850.831	13248.75
851.078	13146.75
851.325	13018.75
851.572	13232.75
851.819	13104.75
852.066	12801.75
852.313	12596.75
852.56	12527.75
852.807	12409.75
853.054	12361.75
853.301	12453.75
853.548	12540.75
853.794	12688.75
854.041	12677.75
854.288	12724.75
854.534	12879.75
854.781	12839.75
855.028	12758.75
855.274	12865.75
855.52	12825.75
855.767	12837.75
856.013	13013.75
856.26	13153.75
856.506	12705.75
856.752	12654.75
856.998	12694.75
857.244	12717.75
857.49	12840.75
857.736	12843.75
857.982	12801.75
858.228	12807.75
858.474	12713.75
858.72	12575.75
858.966	12472.75
859.212	12268.75
859.458	12173.75
859.703	12032.75
859.949	11912.75
860.195	11950.75
860.44	11917.75
860.686	11907.75
860.931	11998.75
861.177	11689.75
861.422	11666.75
861.667	11565.75
861.913	11558.75
862.158	11607.75
862.403	11609.75
862.648	11621.75
862.893	11730.75
863.138	11630.75
863.384	11640.75
863.629	11626.75
863.873	11656.75
864.118	11592.75
864.363	11522.75
864.608	11621.75
864.853	11503.75
865.098	11372.75
865.342	11328.75
865.587	11333.75
865.832	11481.75
866.076	11420.75
866.321	11239.75
866.565	11324.75
866.81	11175.75
867.054	11221.75
867.298	11211.75
867.543	11208.75
867.787	11227.75
868.031	11187.75
868.275	11208.75
868.519	11286.75
868.764	11217.75
869.008	11214.75
869.252	11181.75
869.496	11208.75
869.739	11297.75
869.983	11375.75
870.227	11430.75
870.471	11332.75
870.715	11498.75
870.958	11515.75
871.202	11566.75
871.446	11614.75
871.689	11557.75
871.933	11614.75
872.176	11617.75
872.42	11561.75
872.663	11513.75
872.906	11635.75
873.15	11609.75
873.393	11658.75
873.636	11732.75
873.879	11594.75
874.122	11498.75
874.366	11202.75
874.609	11052.75
874.852	11012.75
875.095	10915.75
875.337	10746.75
875.58	10713.75
875.823	10746.75
876.066	10720.75
876.309	10718.75
876.551	10530.75
876.794	10486.75
877.037	10553.75
877.279	10397.75
877.522	10484.75
877.764	10456.75
878.007	10459.75
878.249	10439.75
878.491	10331.75
878.734	10355.75
878.976	10287.75
879.218	10206.75
879.46	10210.75
879.702	10129.75
879.945	10037.75
880.187	9982.75
880.429	9911.75
880.671	9838.75
880.912	9843.75
881.154	9823.75
881.396	9719.75
881.638	9798.75
881.88	9775.75
882.121	9701.75
882.363	9745.75
882.605	9908.75
882.846	9855.75
883.088	9854.75
883.329	9905.75
883.571	10032.75
883.812	10348.75
884.053	10745.75
884.295	11030.75
884.536	11409.75
884.777	11248.75
885.018	11215.75
885.259	11070.75
885.5	10860.75
885.742	11041.75
885.982	10815.75
886.223	10701.75
886.464	10595.75
886.705	10319.75
886.946	10255.75
887.187	9906.75
887.428	9852.75
887.668	9473.75
887.909	9383.75
888.15	9144.75
888.39	9177.75
888.631	9140.75
888.871	8947.75
889.111	8884.75
889.352	8850.75
889.592	8732.75
889.833	8681.75
890.073	8605.75
890.313	8587.75
890.553	8475.75
890.793	8439.75
891.033	8485.75
891.273	8340.75
891.513	8380.75
891.753	8345.75
891.993	8349.75
892.233	8380.75
892.473	8456.75
892.713	8391.75
892.952	8363.75
893.192	8422.75
893.432	8384.75
893.671	8471.75
893.911	8346.75
894.15	8315.75
894.39	8236.75
894.629	8225.75
894.869	8231.75
895.108	8208.75
895.347	8154.75
895.587	8091.75
895.826	8157.75
896.065	8091.75
896.304	8111.75
896.543	8143.75
896.782	8014.75
897.021	8039.75
897.26	8062.75
897.499	8037.75
897.738	8069.75
897.977	7984.75
898.216	7946.75
898.454	7883.75
898.693	7862.75
898.932	7872.75
899.17	7853.75
899.409	7759.75
899.647	7794.75
899.886	7856.75
900.124	7885.75
900.363	7886.75
900.601	7979.75
900.839	8060.75
901.078	8064.75
901.316	8210.75
901.554	8268.75
901.792	8366.75
902.03	8328.75
902.268	8400.75
902.506	8477.75
902.744	8283.75
902.982	8260.75
903.22	8037.75
903.458	7802.75
903.695	7750.75
903.933	7595.75
904.171	7354.75
904.409	7280.75
904.646	7221.75
904.884	7067.75
905.121	7039.75
905.359	6898.75
905.596	6891.75
905.833	6822.75
906.071	6745.75
906.308	6703.75
906.545	6670.75
906.783	6590.75
907.02	6630.75
907.257	6569.75
907.494	6606.75
907.731	6629.75
907.968	6630.75
908.205	6552.75
908.442	6445.75
908.679	6449.75
908.915	6415.75
909.152	6445.75
909.389	6258.75
909.626	6256.75
909.862	6241.75
910.099	6182.75
910.335	6216.75
910.572	6126.75
910.808	6134.75
911.045	6089.75
911.281	6009.75
911.518	6162.75
911.754	6023.75
911.99	6028.75
912.226	5953.75
912.463	5886.75
912.699	5891.75
912.935	5885.75
913.171	5790.75
913.407	5740.75
913.643	5755.75
913.879	5736.75
914.114	5629.75
914.35	5534.75
914.586	5573.75
914.822	5493.75
915.057	5563.75
915.293	5355.75
915.529	5407.75
915.764	5445.75
916	5422.75
916.235	5428.75
916.471	5426.75
916.706	5352.75
916.941	5318.75
917.177	5333.75
917.412	5413.75
917.647	5408.75
917.882	5365.75
918.117	5382.75
918.352	5359.75
918.588	5340.75
918.823	5239.75
919.057	5284.75
919.292	5061.75
919.527	5200.75
919.762	5045.75
919.997	5083.75
920.232	5013.75
920.466	5047.75
920.701	4901.75
920.935	4938.75
921.17	4877.75
921.405	4783.75
921.639	4886.75
921.873	4831.75
922.108	4824.75
922.342	4835.75
922.576	4754.75
922.811	4739.75
923.045	4794.75
923.279	4794.75
923.513	4635.75
923.747	4736.75
923.981	4683.75
924.215	4635.75
924.449	4625.75
924.683	4555.75
924.917	4527.75
925.151	4571.75
925.385	4621.75
925.618	4585.75
925.852	4525.75
926.086	4447.75
926.319	4496.75
926.553	4485.75
926.786	4511.75
927.02	4449.75
927.253	4487.75
927.486	4532.75
927.72	4456.75
927.953	4509.75
928.186	4450.75
928.42	4479.75
928.653	4410.75
928.886	4363.75
929.119	4420.75
929.352	4398.75
929.585	4340.75
929.818	4280.75
930.051	4304.75
930.284	4240.75
930.516	4234.75
930.749	4170.75
930.982	4231.75
931.215	4201.75
931.447	4127.75
931.68	4143.75
931.912	4078.75
932.145	4142.75
932.377	4152.75
932.61	4275.75
932.842	4048.75
933.074	4184.75
933.307	4104.75
933.539	4147.75
933.771	4181.75
934.003	4157.75
934.236	4204.75
934.468	4210.75
934.7	4090.75
934.932	4138.75
935.164	4070.75
935.395	4026.75
935.627	4091.75
935.859	4093.75
936.091	4022.75
936.323	4064.75
936.554	4080.75
936.786	4025.75
937.017	3981.75
937.249	3997.75
937.481	3939.75
937.712	4045.75
937.943	4017.75
938.175	3966.75
938.406	3951.75
938.637	4036.75
938.869	3883.75
939.1	3950.75
939.331	3936.75
939.562	3935.75
939.793	3898.75
940.024	3968.75
940.255	3943.75
940.486	3904.75
940.717	3870.75
940.948	3855.75
941.179	3821.75
941.409	3872.75
941.64	3787.75
941.871	3836.75
942.102	3809.75
942.332	3821.75
942.563	3881.75
942.793	3815.75
943.024	3819.75
943.254	3787.75
943.484	3849.75
943.715	3838.75
943.945	3861.75
944.175	3794.75
944.405	3767.75
944.636	3793.75
944.866	3823.75
945.096	3814.75
945.326	3741.75
945.556	3822.75
945.786	3795.75
946.016	3753.75
946.245	3695.75
946.475	3662.75
946.705	3648.75
946.935	3625.75
947.164	3626.75
947.394	3568.75
947.624	3608.75
947.853	3632.75
948.083	3580.75
948.312	3542.75
948.542	3508.75
948.771	3501.75
949	3458.75
949.23	3511.75
949.459	3492.75
949.688	3547.75
949.917	3505.75
950.146	3513.75
950.375	3545.75
950.604	3505.75
950.833	3581.75
951.062	3529.75
951.291	3510.75
951.52	3500.75
951.749	3491.75
951.978	3443.75
952.206	3467.75
952.435	3472.75
952.664	3449.75
952.892	3500.75
953.121	3413.75
953.349	3413.75
953.578	3460.75
953.806	3402.75
954.035	3375.75
954.263	3426.75
954.491	3331.75
954.719	3338.75
954.948	3338.75
955.176	3317.75
955.404	3249.75
955.632	3302.75
955.86	3282.75
956.088	3266.75
956.316	3264.75
956.544	3294.75
956.772	3222.75
956.999	3177.75
957.227	3239.75
957.455	3184.75
957.683	3163.75
957.91	3125.75
958.138	3149.75
958.365	3107.75
958.593	3099.75
958.82	3068.75
959.048	3152.75
959.275	3091.75
959.502	3054.75
959.73	3070.75
959.957	3098.75
960.184	3126.75
960.411	3026.75
960.638	3147.75
960.865	3078.75
961.092	3067.75
961.319	2980.75
961.546	3111.75
961.773	3069.75
962	3023.75
962.227	3081.75
962.454	3035.75
962.68	2981.75
962.907	3031.75
963.134	2946.75
963.36	2964.75
963.587	2994.75
963.813	2930.75
964.04	2963.75
964.266	2864.75
964.493	2961.75
964.719	2936.75
964.945	2934.75
965.171	2841.75
965.398	2888.75
965.624	2867.75
965.85	2773.75
966.076	2819.75
966.302	2845.75
966.528	2806.75
966.754	2782.75
966.98	2808.75
967.206	2781.75
967.431	2734.75
967.657	2820.75
967.883	2814.75
968.109	2808.75
968.334	2731.75
968.56	2648.75
968.785	2710.75
969.011	2670.75
969.236	2737.75
969.462	2667.75
969.687	2697.75
969.912	2719.75
970.138	2730.75
970.363	2627.75
970.588	2658.75
970.813	2647.75
971.038	2675.75
971.263	2691.75
971.488	2674.75
971.713	2672.75
971.938	2669.75
972.163	2561.75
972.388	2614.75
972.613	2563.75
972.838	2614.75
973.062	2582.75
973.287	2569.75
973.512	2523.75
973.736	2549.75
973.961	2506.75
974.185	2484.75
974.41	2524.75
974.634	2438.75
974.858	2456.75
975.083	2467.75
975.307	2504.75
975.531	2448.75
975.755	2367.75
975.98	2381.75
976.204	2328.75
976.428	2317.75
976.652	2362.75
976.876	2325.75
977.1	2362.75
977.324	2302.75
977.547	2360.75
977.771	2363.75
977.995	2318.75
978.219	2261.75
978.442	2383.75
978.666	2316.75
978.89	2315.75
979.113	2293.75
979.337	2293.75
979.56	2262.75
979.783	2369.75
980.007	2240.75
980.23	2271.75
980.453	2217.75
980.677	2281.75
980.9	2253.75
981.123	2174.75
981.346	2277.75
981.569	2208.75
981.792	2253.75
982.015	2218.75
982.238	2157.75
982.461	2181.75
982.684	2117.75
982.907	2111.75
983.129	2089.75
983.352	2192.75
983.575	2160.75
983.797	2154.75
984.02	2109.75
984.242	2098.75
984.465	2100.75
984.687	2124.75
984.91	2128.75
985.132	2138.75
985.354	2127.75
985.577	2108.75
985.799	2109.75
986.021	1998.75
986.243	2049.75
986.465	2035.75
986.687	2063.75
986.909	2111.75
987.131	2034.75
987.353	2012.75
987.575	2037.75
987.797	2041.75
988.019	1964.75
988.241	2052.75
988.462	1985.75
988.684	2039.75
988.906	2053.75
989.127	2081.75
989.349	2007.75
989.57	1984.75
989.792	2013.75
990.013	2033.75
990.234	2031.75
990.456	2080.75
990.677	2036.75
990.898	1992.75
991.119	1983.75
991.341	2030.75
991.562	1919.75
991.783	1974.75
992.004	1924.75
992.225	1897.75
992.446	1969.75
992.667	1848.75
992.887	1937.75
993.108	1825.75
993.329	1936.75
993.55	1880.75
993.77	1831.75
993.991	1842.75
994.212	1874.75
994.432	1837.75
994.653	1881.75
994.873	1846.75
995.093	1750.75
995.314	1813.75
995.534	1867.75
995.754	1902.75
995.975	1879.75
996.195	1810.75
996.415	1839.75
996.635	1833.75
996.855	1859.75
997.075	1828.75
997.295	1814.75
997.515	1797.75
997.735	1875.75
997.955	1831.75
998.174	1847.75
998.394	1799.75
998.614	1834.75
998.834	1813.75
999.053	1867.75
999.273	1822.75
999.492	1873.75
999.712	1807.75
999.931	1754.75
1000.151	1787.75
1000.37	1775.75
1000.589	1816.75
1000.809	1749.75
1001.028	1842.75
1001.247	1773.75
1001.466	1658.75
1001.685	1786.75
1001.904	1776.75
1002.123	1712.75
1002.342	1733.75
1002.561	1686.75
1002.78	1719.75
1002.999	1786.75
1003.218	1731.75
1003.436	1691.75
1003.655	1728.75
1003.874	1699.75
1004.092	1699.75
1004.311	1732.75
1004.53	1702.75
1004.748	1774.75
1004.966	1684.75
1005.185	1748.75
1005.403	1737.75
1005.622	1711.75
1005.84	1785.75
1006.058	1677.75
1006.276	1708.75
1006.494	2202.75
1006.712	1744.75
1006.931	1793.75
1007.149	1725.75
1007.367	1731.75
1007.584	1781.75
1007.802	1824.75
1008.02	1809.75
1008.238	1881.75
1008.456	1906.75
1008.673	1794.75
1008.891	1907.75
1009.109	1918.75
1009.326	2005.75
1009.544	2097.75
1009.761	2083.75
1009.979	2232.75
1010.196	2314.75
1010.413	2483.75
1010.631	2628.75
1010.848	2701.75
1011.065	2720.75
1011.282	2681.75
1011.5	2635.75
1011.717	2770.75
1011.934	2710.75
1012.151	2684.75
1012.368	2671.75
1012.585	2623.75
1012.801	2657.75
1013.018	2665.75
1013.235	2627.75
1013.452	2669.75
1013.669	2718.75
1013.885	2688.75
1014.102	2749.75
1014.318	2730.75
1014.535	2670.75
1014.751	2710.75
1014.968	2700.75
1015.184	2707.75
1015.401	2623.75
1015.617	2630.75
1015.833	2565.75
1016.049	2543.75
1016.266	2517.75
1016.482	2475.75
1016.698	2445.75
1016.914	2462.75
1017.13	2389.75
1017.346	2386.75
1017.562	2428.75
1017.778	2417.75
1017.993	2304.75
1018.209	2382.75
1018.425	2396.75
1018.641	2307.75
1018.856	2293.75
1019.072	2337.75
1019.288	2371.75
1019.503	2335.75
1019.719	2232.75
1019.934	2247.75
1020.149	2295.75
1020.365	2205.75
1020.58	2151.75
1020.795	2167.75
1021.011	2052.75
1021.226	2016.75
1021.441	2008.75
1021.656	1891.75
1021.871	1810.75
1022.086	1799.75
1022.301	1759.75
1022.516	1744.75
1022.731	1797.75
1022.946	1679.75
1023.16	1636.75
1023.375	1597.75
1023.59	1540.75
1023.804	1489.75
1024.019	1582.75
1024.234	1438.75
1024.448	1453.75
1024.663	1352.75
1024.877	1355.75
1025.092	1349.75
1025.306	1357.75
1025.52	1233.75
1025.734	1326.75
1025.949	1212.75
1026.163	1186.75
1026.377	1093.75
1026.591	1155.75
1026.805	1077.75
1027.019	1041.75
1027.233	998.75
1027.447	964.75
1027.661	1045.75
1027.875	983.75
1028.088	974.75
1028.302	912.75
1028.516	899.75
1028.73	875.75
1028.943	855.75
1029.157	806.75
1029.37	762.75
1029.584	-1.25
1029.797	-4.25
1030.011	0.75
1030.224	-3.25
