Data from QEP037381__119__13-46-54-889.txt Node

Date: Wed Dec 21 13:46:54 EST 2022
User: dcclab
Spectrometer: QEP03738
Trigger mode: 4
Integration Time (sec): 1.000000E1
Scans to average: 1
Electric dark correction enabled: true
Nonlinearity correction enabled: false
Boxcar width: 0
XAxis mode: Wavelengths
Number of Pixels in Spectrum: 1044
>>>>>Begin Spectral Data<<<<<
784.041	14.75
784.3	2.75
784.558	-3.25
784.817	-6.25
785.075	84817.75
785.334	14856.75
785.592	7000.75
785.851	4823.75
786.109	3660.75
786.368	2842.75
786.626	2306.75
786.884	1905.75
787.143	1624.75
787.401	1339.75
787.659	1218.75
787.917	1062.75
788.175	962.75
788.433	854.75
788.691	759.75
788.949	703.75
789.207	677.75
789.465	590.75
789.723	572.75
789.98	524.75
790.238	576.75
790.496	561.75
790.753	515.75
791.011	550.75
791.268	494.75
791.526	474.75
791.783	492.75
792.041	494.75
792.298	403.75
792.556	462.75
792.813	451.75
793.07	431.75
793.327	421.75
793.584	489.75
793.841	407.75
794.099	429.75
794.356	492.75
794.613	385.75
794.869	445.75
795.126	391.75
795.383	377.75
795.64	399.75
795.897	351.75
796.153	410.75
796.41	397.75
796.667	374.75
796.923	392.75
797.18	396.75
797.436	430.75
797.693	374.75
797.949	423.75
798.206	458.75
798.462	355.75
798.718	436.75
798.974	405.75
799.231	431.75
799.487	428.75
799.743	432.75
799.999	450.75
800.255	442.75
800.511	431.75
800.767	462.75
801.023	443.75
801.279	462.75
801.534	479.75
801.79	518.75
802.046	502.75
802.302	611.75
802.557	639.75
802.813	766.75
803.068	869.75
803.324	1168.75
803.579	1480.75
803.835	1987.75
804.09	2729.75
804.345	3454.75
804.601	4250.75
804.856	5192.75
805.111	6004.75
805.366	6654.75
805.621	7008.75
805.876	7357.75
806.131	7641.75
806.386	7722.75
806.641	7808.75
806.896	8040.75
807.151	8176.75
807.406	8269.75
807.661	8443.75
807.915	8593.75
808.17	8790.75
808.425	8821.75
808.679	8824.75
808.934	8992.75
809.188	9073.75
809.443	9161.75
809.697	9291.75
809.951	9287.75
810.206	9451.75
810.46	9504.75
810.714	9589.75
810.968	9777.75
811.223	9777.75
811.477	9893.75
811.731	9980.75
811.985	9990.75
812.239	9973.75
812.493	10027.75
812.747	10041.75
813	10131.75
813.254	10184.75
813.508	10223.75
813.762	10303.75
814.015	10335.75
814.269	10414.75
814.522	10501.75
814.776	10625.75
815.03	10776.75
815.283	10910.75
815.536	11089.75
815.79	11281.75
816.043	11491.75
816.296	11601.75
816.55	11773.75
816.803	11886.75
817.056	12096.75
817.309	12201.75
817.562	12293.75
817.815	12429.75
818.068	12490.75
818.321	12618.75
818.574	12757.75
818.827	12994.75
819.079	13092.75
819.332	13475.75
819.585	13541.75
819.838	13774.75
820.09	13772.75
820.343	13929.75
820.595	13819.75
820.848	13967.75
821.1	14067.75
821.353	14076.75
821.605	14067.75
821.857	14075.75
822.11	13854.75
822.362	13937.75
822.614	13952.75
822.866	13987.75
823.118	13896.75
823.37	13977.75
823.622	14142.75
823.874	14123.75
824.126	14243.75
824.378	14245.75
824.63	14163.75
824.882	14233.75
825.134	14304.75
825.385	14145.75
825.637	14230.75
825.888	14104.75
826.14	14146.75
826.392	14124.75
826.643	14014.75
826.895	13969.75
827.146	13915.75
827.397	13826.75
827.649	13975.75
827.9	13878.75
828.151	13925.75
828.402	13924.75
828.653	14016.75
828.905	13996.75
829.156	14058.75
829.407	14117.75
829.658	14103.75
829.909	14284.75
830.159	14386.75
830.41	14301.75
830.661	14136.75
830.912	14017.75
831.162	14043.75
831.413	14049.75
831.664	14058.75
831.914	14027.75
832.165	13978.75
832.415	13951.75
832.666	13984.75
832.916	13996.75
833.167	14005.75
833.417	14035.75
833.667	14023.75
833.917	13951.75
834.168	13927.75
834.418	13918.75
834.668	13836.75
834.918	13804.75
835.168	13714.75
835.418	13711.75
835.668	13682.75
835.918	13604.75
836.167	13529.75
836.417	13499.75
836.667	13547.75
836.917	13612.75
837.166	13635.75
837.416	13597.75
837.666	13639.75
837.915	13622.75
838.165	13635.75
838.414	13519.75
838.663	13591.75
838.913	13670.75
839.162	13511.75
839.411	13684.75
839.661	13593.75
839.91	13520.75
840.159	13600.75
840.408	13595.75
840.657	13677.75
840.906	13682.75
841.155	13672.75
841.404	13547.75
841.653	13588.75
841.902	13647.75
842.15	13801.75
842.399	13793.75
842.648	13825.75
842.897	13763.75
843.145	13553.75
843.394	13544.75
843.642	13485.75
843.891	13442.75
844.139	13329.75
844.388	13163.75
844.636	13127.75
844.884	13195.75
845.133	13117.75
845.381	13228.75
845.629	13294.75
845.877	13303.75
846.125	13249.75
846.373	13255.75
846.621	13137.75
846.869	13090.75
847.117	13025.75
847.365	12980.75
847.613	13010.75
847.861	12963.75
848.108	12998.75
848.356	12948.75
848.604	12893.75
848.851	12980.75
849.099	12945.75
849.346	12998.75
849.594	13126.75
849.841	13294.75
850.089	13235.75
850.336	13237.75
850.583	13316.75
850.831	13273.75
851.078	13164.75
851.325	13119.75
851.572	13296.75
851.819	13119.75
852.066	12811.75
852.313	12641.75
852.56	12406.75
852.807	12449.75
853.054	12446.75
853.301	12410.75
853.548	12475.75
853.794	12588.75
854.041	12643.75
854.288	12730.75
854.534	12847.75
854.781	12879.75
855.028	12878.75
855.274	12857.75
855.52	12875.75
855.767	12798.75
856.013	12913.75
856.26	13182.75
856.506	12658.75
856.752	12631.75
856.998	12700.75
857.244	12721.75
857.49	12834.75
857.736	12884.75
857.982	12921.75
858.228	12749.75
858.474	12633.75
858.72	12476.75
858.966	12367.75
859.212	12270.75
859.458	12106.75
859.703	12000.75
859.949	11865.75
860.195	11904.75
860.44	11827.75
860.686	11804.75
860.931	11899.75
861.177	11727.75
861.422	11622.75
861.667	11449.75
861.913	11436.75
862.158	11504.75
862.403	11456.75
862.648	11520.75
862.893	11533.75
863.138	11565.75
863.384	11513.75
863.629	11518.75
863.873	11509.75
864.118	11577.75
864.363	11458.75
864.608	11399.75
864.853	11554.75
865.098	11285.75
865.342	11302.75
865.587	11244.75
865.832	11296.75
866.076	11220.75
866.321	11197.75
866.565	11243.75
866.81	11130.75
867.054	11208.75
867.298	11145.75
867.543	11073.75
867.787	11131.75
868.031	11071.75
868.275	11084.75
868.519	11111.75
868.764	11149.75
869.008	11121.75
869.252	11084.75
869.496	11154.75
869.739	11181.75
869.983	11241.75
870.227	11306.75
870.471	11210.75
870.715	11381.75
870.958	11428.75
871.202	11489.75
871.446	11530.75
871.689	11477.75
871.933	11446.75
872.176	11469.75
872.42	11358.75
872.663	11410.75
872.906	11417.75
873.15	11496.75
873.393	11568.75
873.636	11550.75
873.879	11439.75
874.122	11284.75
874.366	11080.75
874.609	10949.75
874.852	10833.75
875.095	10728.75
875.337	10616.75
875.58	10542.75
875.823	10609.75
876.066	10445.75
876.309	10530.75
876.551	10444.75
876.794	10440.75
877.037	10436.75
877.279	10319.75
877.522	10272.75
877.764	10352.75
878.007	10227.75
878.249	10226.75
878.491	10197.75
878.734	10172.75
878.976	10157.75
879.218	10015.75
879.46	9952.75
879.702	9989.75
879.945	9865.75
880.187	9762.75
880.429	9655.75
880.671	9696.75
880.912	9689.75
881.154	9625.75
881.396	9549.75
881.638	9613.75
881.88	9632.75
882.121	9528.75
882.363	9631.75
882.605	9637.75
882.846	9656.75
883.088	9624.75
883.329	9708.75
883.571	9806.75
883.812	10056.75
884.053	10512.75
884.295	10945.75
884.536	11252.75
884.777	11141.75
885.018	10963.75
885.259	10952.75
885.5	10806.75
885.742	10860.75
885.982	10708.75
886.223	10470.75
886.464	10351.75
886.705	10243.75
886.946	10066.75
887.187	9678.75
887.428	9536.75
887.668	9310.75
887.909	9096.75
888.15	8987.75
888.39	8896.75
888.631	8907.75
888.871	8784.75
889.111	8689.75
889.352	8654.75
889.592	8447.75
889.833	8435.75
890.073	8341.75
890.313	8410.75
890.553	8194.75
890.793	8182.75
891.033	8159.75
891.273	8133.75
891.513	8106.75
891.753	8165.75
891.993	8120.75
892.233	8155.75
892.473	8215.75
892.713	8149.75
892.952	8120.75
893.192	8184.75
893.432	8130.75
893.671	8169.75
893.911	8198.75
894.15	8130.75
894.39	8014.75
894.629	8006.75
894.869	7996.75
895.108	7984.75
895.347	7863.75
895.587	7913.75
895.826	7822.75
896.065	7907.75
896.304	7933.75
896.543	7919.75
896.782	7771.75
897.021	7879.75
897.26	7859.75
897.499	7858.75
897.738	7916.75
897.977	7751.75
898.216	7705.75
898.454	7675.75
898.693	7593.75
898.932	7701.75
899.17	7616.75
899.409	7544.75
899.647	7636.75
899.886	7631.75
900.124	7648.75
900.363	7695.75
900.601	7701.75
900.839	7740.75
901.078	7873.75
901.316	7974.75
901.554	8096.75
901.792	8226.75
902.03	8178.75
902.268	8210.75
902.506	8222.75
902.744	8088.75
902.982	8008.75
903.22	7849.75
903.458	7662.75
903.695	7517.75
903.933	7330.75
904.171	7160.75
904.409	7033.75
904.646	6997.75
904.884	6808.75
905.121	6778.75
905.359	6675.75
905.596	6595.75
905.833	6493.75
906.071	6488.75
906.308	6551.75
906.545	6488.75
906.783	6393.75
907.02	6467.75
907.257	6414.75
907.494	6381.75
907.731	6384.75
907.968	6281.75
908.205	6302.75
908.442	6238.75
908.679	6242.75
908.915	6186.75
909.152	6132.75
909.389	5977.75
909.626	6033.75
909.862	5962.75
910.099	5951.75
910.335	5954.75
910.572	5825.75
910.808	5869.75
911.045	5809.75
911.281	5807.75
911.518	5865.75
911.754	5804.75
911.99	5775.75
912.226	5751.75
912.463	5695.75
912.699	5672.75
912.935	5543.75
913.171	5514.75
913.407	5480.75
913.643	5564.75
913.879	5474.75
914.114	5391.75
914.35	5368.75
914.586	5312.75
914.822	5261.75
915.057	5298.75
915.293	5183.75
915.529	5152.75
915.764	5218.75
916	5194.75
916.235	5186.75
916.471	5187.75
916.706	5135.75
916.941	5118.75
917.177	5101.75
917.412	5147.75
917.647	5139.75
917.882	5061.75
918.117	5134.75
918.352	5025.75
918.588	5141.75
918.823	4966.75
919.057	4965.75
919.292	4904.75
919.527	4942.75
919.762	4853.75
919.997	4839.75
920.232	4758.75
920.466	4788.75
920.701	4646.75
920.935	4742.75
921.17	4641.75
921.405	4592.75
921.639	4658.75
921.873	4569.75
922.108	4625.75
922.342	4583.75
922.576	4535.75
922.811	4480.75
923.045	4550.75
923.279	4546.75
923.513	4407.75
923.747	4513.75
923.981	4451.75
924.215	4393.75
924.449	4384.75
924.683	4363.75
924.917	4379.75
925.151	4321.75
925.385	4340.75
925.618	4315.75
925.852	4365.75
926.086	4200.75
926.319	4319.75
926.553	4311.75
926.786	4309.75
927.02	4254.75
927.253	4323.75
927.486	4301.75
927.72	4240.75
927.953	4233.75
928.186	4191.75
928.42	4279.75
928.653	4217.75
928.886	4161.75
929.119	4210.75
929.352	4182.75
929.585	4173.75
929.818	4074.75
930.051	4110.75
930.284	4076.75
930.516	3999.75
930.749	3985.75
930.982	3992.75
931.215	4001.75
931.447	3918.75
931.68	3915.75
931.912	3940.75
932.145	3912.75
932.377	3953.75
932.61	4063.75
932.842	3898.75
933.074	3914.75
933.307	3906.75
933.539	3946.75
933.771	3938.75
934.003	3941.75
934.236	3967.75
934.468	3975.75
934.7	3924.75
934.932	3903.75
935.164	3867.75
935.395	3830.75
935.627	3843.75
935.859	3893.75
936.091	3798.75
936.323	3873.75
936.554	3877.75
936.786	3816.75
937.017	3774.75
937.249	3779.75
937.481	3699.75
937.712	3815.75
937.943	3766.75
938.175	3740.75
938.406	3784.75
938.637	3797.75
938.869	3701.75
939.1	3785.75
939.331	3690.75
939.562	3742.75
939.793	3712.75
940.024	3739.75
940.255	3712.75
940.486	3650.75
940.717	3686.75
940.948	3626.75
941.179	3636.75
941.409	3635.75
941.64	3566.75
941.871	3645.75
942.102	3559.75
942.332	3631.75
942.563	3618.75
942.793	3593.75
943.024	3526.75
943.254	3582.75
943.484	3647.75
943.715	3634.75
943.945	3636.75
944.175	3537.75
944.405	3555.75
944.636	3571.75
944.866	3574.75
945.096	3592.75
945.326	3495.75
945.556	3552.75
945.786	3580.75
946.016	3500.75
946.245	3492.75
946.475	3489.75
946.705	3467.75
946.935	3460.75
947.164	3411.75
947.394	3409.75
947.624	3392.75
947.853	3445.75
948.083	3400.75
948.312	3354.75
948.542	3336.75
948.771	3276.75
949	3294.75
949.23	3334.75
949.459	3311.75
949.688	3360.75
949.917	3314.75
950.146	3295.75
950.375	3375.75
950.604	3283.75
950.833	3366.75
951.062	3309.75
951.291	3308.75
951.52	3254.75
951.749	3298.75
951.978	3230.75
952.206	3235.75
952.435	3223.75
952.664	3262.75
952.892	3258.75
953.121	3236.75
953.349	3271.75
953.578	3216.75
953.806	3194.75
954.035	3114.75
954.263	3194.75
954.491	3107.75
954.719	3143.75
954.948	3127.75
955.176	3078.75
955.404	3053.75
955.632	3109.75
955.86	3054.75
956.088	3051.75
956.316	3112.75
956.544	3089.75
956.772	3026.75
956.999	3016.75
957.227	3073.75
957.455	2983.75
957.683	2997.75
957.91	2937.75
958.138	2897.75
958.365	2928.75
958.593	2914.75
958.82	2890.75
959.048	2984.75
959.275	2926.75
959.502	2881.75
959.73	2878.75
959.957	2924.75
960.184	2927.75
960.411	2907.75
960.638	2911.75
960.865	2851.75
961.092	2901.75
961.319	2786.75
961.546	2904.75
961.773	2858.75
962	2831.75
962.227	2889.75
962.454	2844.75
962.68	2820.75
962.907	2822.75
963.134	2757.75
963.36	2816.75
963.587	2820.75
963.813	2779.75
964.04	2771.75
964.266	2718.75
964.493	2804.75
964.719	2787.75
964.945	2780.75
965.171	2620.75
965.398	2737.75
965.624	2726.75
965.85	2576.75
966.076	2632.75
966.302	2647.75
966.528	2661.75
966.754	2643.75
966.98	2633.75
967.206	2639.75
967.431	2545.75
967.657	2642.75
967.883	2600.75
968.109	2598.75
968.334	2552.75
968.56	2546.75
968.785	2546.75
969.011	2514.75
969.236	2557.75
969.462	2535.75
969.687	2533.75
969.912	2540.75
970.138	2562.75
970.363	2495.75
970.588	2543.75
970.813	2482.75
971.038	2462.75
971.263	2525.75
971.488	2476.75
971.713	2524.75
971.938	2478.75
972.163	2392.75
972.388	2440.75
972.613	2414.75
972.838	2415.75
973.062	2393.75
973.287	2379.75
973.512	2359.75
973.736	2383.75
973.961	2356.75
974.185	2322.75
974.41	2332.75
974.634	2281.75
974.858	2275.75
975.083	2269.75
975.307	2374.75
975.531	2262.75
975.755	2219.75
975.98	2246.75
976.204	2200.75
976.428	2173.75
976.652	2180.75
976.876	2183.75
977.1	2217.75
977.324	2180.75
977.547	2209.75
977.771	2229.75
977.995	2183.75
978.219	2139.75
978.442	2238.75
978.666	2187.75
978.89	2122.75
979.113	2168.75
979.337	2103.75
979.56	2122.75
979.783	2204.75
980.007	2086.75
980.23	2124.75
980.453	2061.75
980.677	2126.75
980.9	2115.75
981.123	2000.75
981.346	2100.75
981.569	2081.75
981.792	2102.75
982.015	2047.75
982.238	2024.75
982.461	2032.75
982.684	2023.75
982.907	2006.75
983.129	1992.75
983.352	2022.75
983.575	1997.75
983.797	2021.75
984.02	1983.75
984.242	1990.75
984.465	1955.75
984.687	2002.75
984.91	2024.75
985.132	1974.75
985.354	2005.75
985.577	1979.75
985.799	1979.75
986.021	1910.75
986.243	1901.75
986.465	1896.75
986.687	1944.75
986.909	1973.75
987.131	1928.75
987.353	1886.75
987.575	1928.75
987.797	1894.75
988.019	1824.75
988.241	1904.75
988.462	1838.75
988.684	1914.75
988.906	1930.75
989.127	1936.75
989.349	1824.75
989.57	1890.75
989.792	1902.75
990.013	1894.75
990.234	1928.75
990.456	1884.75
990.677	1888.75
990.898	1876.75
991.119	1829.75
991.341	1871.75
991.562	1828.75
991.783	1846.75
992.004	1801.75
992.225	1754.75
992.446	1832.75
992.667	1724.75
992.887	1827.75
993.108	1725.75
993.329	1864.75
993.55	1799.75
993.77	1717.75
993.991	1759.75
994.212	1809.75
994.432	1740.75
994.653	1737.75
994.873	1768.75
995.093	1676.75
995.314	1692.75
995.534	1773.75
995.754	1778.75
995.975	1759.75
996.195	1686.75
996.415	1760.75
996.635	1742.75
996.855	1747.75
997.075	1725.75
997.295	1726.75
997.515	1726.75
997.735	1764.75
997.955	1742.75
998.174	1727.75
998.394	1683.75
998.614	1754.75
998.834	1690.75
999.053	1776.75
999.273	1769.75
999.492	1789.75
999.712	1710.75
999.931	1669.75
1000.151	1716.75
1000.37	1676.75
1000.589	1730.75
1000.809	1670.75
1001.028	1757.75
1001.247	1699.75
1001.466	1593.75
1001.685	1728.75
1001.904	1661.75
1002.123	1652.75
1002.342	1663.75
1002.561	1603.75
1002.78	1633.75
1002.999	1680.75
1003.218	1625.75
1003.436	1601.75
1003.655	1654.75
1003.874	1593.75
1004.092	1595.75
1004.311	1658.75
1004.53	1600.75
1004.748	1670.75
1004.966	1593.75
1005.185	1661.75
1005.403	1665.75
1005.622	1642.75
1005.84	1696.75
1006.058	1642.75
1006.276	1628.75
1006.494	2115.75
1006.712	1637.75
1006.931	1704.75
1007.149	1633.75
1007.367	1668.75
1007.584	1703.75
1007.802	1722.75
1008.02	1681.75
1008.238	1844.75
1008.456	1784.75
1008.673	1726.75
1008.891	1859.75
1009.109	1804.75
1009.326	1911.75
1009.544	2034.75
1009.761	2002.75
1009.979	2128.75
1010.196	2227.75
1010.413	2393.75
1010.631	2525.75
1010.848	2609.75
1011.065	2652.75
1011.282	2591.75
1011.5	2550.75
1011.717	2651.75
1011.934	2567.75
1012.151	2588.75
1012.368	2570.75
1012.585	2509.75
1012.801	2613.75
1013.018	2563.75
1013.235	2530.75
1013.452	2531.75
1013.669	2612.75
1013.885	2554.75
1014.102	2630.75
1014.318	2613.75
1014.535	2593.75
1014.751	2582.75
1014.968	2578.75
1015.184	2609.75
1015.401	2485.75
1015.617	2537.75
1015.833	2460.75
1016.049	2439.75
1016.266	2406.75
1016.482	2405.75
1016.698	2342.75
1016.914	2336.75
1017.13	2281.75
1017.346	2286.75
1017.562	2356.75
1017.778	2284.75
1017.993	2235.75
1018.209	2297.75
1018.425	2271.75
1018.641	2236.75
1018.856	2239.75
1019.072	2241.75
1019.288	2268.75
1019.503	2248.75
1019.719	2160.75
1019.934	2137.75
1020.149	2224.75
1020.365	2125.75
1020.58	2066.75
1020.795	2102.75
1021.011	1986.75
1021.226	1945.75
1021.441	1921.75
1021.656	1809.75
1021.871	1737.75
1022.086	1718.75
1022.301	1680.75
1022.516	1690.75
1022.731	1722.75
1022.946	1595.75
1023.16	1566.75
1023.375	1516.75
1023.59	1492.75
1023.804	1444.75
1024.019	1532.75
1024.234	1365.75
1024.448	1373.75
1024.663	1328.75
1024.877	1271.75
1025.092	1285.75
1025.306	1291.75
1025.52	1187.75
1025.734	1265.75
1025.949	1177.75
1026.163	1127.75
1026.377	1041.75
1026.591	1101.75
1026.805	1020.75
1027.019	1026.75
1027.233	970.75
1027.447	919.75
1027.661	1006.75
1027.875	941.75
1028.088	944.75
1028.302	886.75
1028.516	856.75
1028.73	853.75
1028.943	813.75
1029.157	755.75
1029.37	720.75
1029.584	-4.25
1029.797	-2.25
1030.011	1.75
1030.224	-3.25
