Data from QEP037381__152__13-52-24-873.txt Node

Date: Wed Dec 21 13:52:24 EST 2022
User: dcclab
Spectrometer: QEP03738
Trigger mode: 4
Integration Time (sec): 1.000000E1
Scans to average: 1
Electric dark correction enabled: true
Nonlinearity correction enabled: false
Boxcar width: 0
XAxis mode: Wavelengths
Number of Pixels in Spectrum: 1044
>>>>>Begin Spectral Data<<<<<
784.041	11.5
784.3	0.5
784.558	-3.5
784.817	-2.5
785.075	90141.5
785.334	15547.5
785.592	7255.5
785.851	4996.5
786.109	3759.5
786.368	2937.5
786.626	2397.5
786.884	2001.5
787.143	1694.5
787.401	1399.5
787.659	1309.5
787.917	1083.5
788.175	999.5
788.433	868.5
788.691	779.5
788.949	692.5
789.207	705.5
789.465	610.5
789.723	573.5
789.98	527.5
790.238	588.5
790.496	534.5
790.753	509.5
791.011	570.5
791.268	499.5
791.526	491.5
791.783	495.5
792.041	502.5
792.298	402.5
792.556	466.5
792.813	433.5
793.07	432.5
793.327	414.5
793.584	491.5
793.841	419.5
794.099	436.5
794.356	489.5
794.613	386.5
794.869	425.5
795.126	398.5
795.383	367.5
795.64	404.5
795.897	341.5
796.153	406.5
796.41	396.5
796.667	376.5
796.923	392.5
797.18	372.5
797.436	399.5
797.693	366.5
797.949	417.5
798.206	438.5
798.462	369.5
798.718	413.5
798.974	385.5
799.231	435.5
799.487	400.5
799.743	423.5
799.999	441.5
800.255	440.5
800.511	421.5
800.767	446.5
801.023	428.5
801.279	441.5
801.534	474.5
801.79	500.5
802.046	479.5
802.302	585.5
802.557	624.5
802.813	696.5
803.068	787.5
803.324	1058.5
803.579	1341.5
803.835	1813.5
804.09	2431.5
804.345	3081.5
804.601	3876.5
804.856	4743.5
805.111	5403.5
805.366	5920.5
805.621	6299.5
805.876	6569.5
806.131	6727.5
806.386	6832.5
806.641	6991.5
806.896	7059.5
807.151	7239.5
807.406	7299.5
807.661	7514.5
807.915	7547.5
808.17	7775.5
808.425	7760.5
808.679	7859.5
808.934	8008.5
809.188	7936.5
809.443	8142.5
809.697	8243.5
809.951	8208.5
810.206	8315.5
810.46	8420.5
810.714	8451.5
810.968	8613.5
811.223	8640.5
811.477	8723.5
811.731	8831.5
811.985	8792.5
812.239	8885.5
812.493	8882.5
812.747	8913.5
813	8916.5
813.254	8959.5
813.508	9089.5
813.762	9142.5
814.015	9118.5
814.269	9274.5
814.522	9323.5
814.776	9384.5
815.03	9542.5
815.283	9659.5
815.536	9848.5
815.79	9950.5
816.043	10147.5
816.296	10209.5
816.55	10409.5
816.803	10476.5
817.056	10700.5
817.309	10766.5
817.562	10899.5
817.815	10914.5
818.068	11101.5
818.321	11197.5
818.574	11318.5
818.827	11545.5
819.079	11681.5
819.332	11962.5
819.585	12015.5
819.838	12300.5
820.09	12316.5
820.343	12430.5
820.595	12321.5
820.848	12497.5
821.1	12492.5
821.353	12448.5
821.605	12502.5
821.857	12591.5
822.11	12398.5
822.362	12442.5
822.614	12435.5
822.866	12467.5
823.118	12442.5
823.37	12636.5
823.622	12640.5
823.874	12722.5
824.126	12687.5
824.378	12710.5
824.63	12726.5
824.882	12837.5
825.134	12715.5
825.385	12791.5
825.637	12720.5
825.888	12684.5
826.14	12640.5
826.392	12587.5
826.643	12538.5
826.895	12515.5
827.146	12538.5
827.397	12446.5
827.649	12529.5
827.9	12461.5
828.151	12444.5
828.402	12476.5
828.653	12572.5
828.905	12605.5
829.156	12734.5
829.407	12595.5
829.658	12674.5
829.909	12816.5
830.159	12815.5
830.41	12823.5
830.661	12599.5
830.912	12530.5
831.162	12518.5
831.413	12577.5
831.664	12631.5
831.914	12617.5
832.165	12555.5
832.415	12465.5
832.666	12593.5
832.916	12564.5
833.167	12498.5
833.417	12639.5
833.667	12513.5
833.917	12551.5
834.168	12489.5
834.418	12522.5
834.668	12494.5
834.918	12356.5
835.168	12360.5
835.418	12228.5
835.668	12297.5
835.918	12270.5
836.167	12190.5
836.417	12201.5
836.667	12183.5
836.917	12193.5
837.166	12211.5
837.416	12326.5
837.666	12257.5
837.915	12206.5
838.165	12215.5
838.414	12162.5
838.663	12096.5
838.913	12199.5
839.162	12138.5
839.411	12266.5
839.661	12187.5
839.91	12181.5
840.159	12133.5
840.408	12255.5
840.657	12221.5
840.906	12259.5
841.155	12250.5
841.404	12188.5
841.653	12218.5
841.902	12191.5
842.15	12319.5
842.399	12330.5
842.648	12303.5
842.897	12333.5
843.145	12161.5
843.394	12108.5
843.642	12104.5
843.891	12075.5
844.139	11913.5
844.388	11866.5
844.636	11823.5
844.884	11875.5
845.133	11865.5
845.381	11909.5
845.629	11878.5
845.877	11885.5
846.125	11876.5
846.373	11859.5
846.621	11807.5
846.869	11823.5
847.117	11779.5
847.365	11688.5
847.613	11657.5
847.861	11604.5
848.108	11657.5
848.356	11666.5
848.604	11607.5
848.851	11664.5
849.099	11666.5
849.346	11705.5
849.594	11788.5
849.841	11894.5
850.089	11917.5
850.336	11957.5
850.583	12005.5
850.831	11938.5
851.078	11835.5
851.325	11813.5
851.572	11922.5
851.819	11836.5
852.066	11567.5
852.313	11389.5
852.56	11243.5
852.807	11144.5
853.054	11219.5
853.301	11223.5
853.548	11243.5
853.794	11387.5
854.041	11327.5
854.288	11419.5
854.534	11627.5
854.781	11549.5
855.028	11502.5
855.274	11589.5
855.52	11502.5
855.767	11534.5
856.013	11579.5
856.26	11884.5
856.506	11442.5
856.752	11439.5
856.998	11416.5
857.244	11469.5
857.49	11503.5
857.736	11558.5
857.982	11613.5
858.228	11519.5
858.474	11357.5
858.72	11329.5
858.966	11197.5
859.212	11099.5
859.458	10951.5
859.703	10851.5
859.949	10731.5
860.195	10778.5
860.44	10660.5
860.686	10665.5
860.931	10800.5
861.177	10680.5
861.422	10549.5
861.667	10389.5
861.913	10360.5
862.158	10381.5
862.403	10524.5
862.648	10507.5
862.893	10554.5
863.138	10521.5
863.384	10450.5
863.629	10491.5
863.873	10463.5
864.118	10508.5
864.363	10398.5
864.608	10431.5
864.853	10429.5
865.098	10299.5
865.342	10350.5
865.587	10160.5
865.832	10322.5
866.076	10267.5
866.321	10229.5
866.565	10202.5
866.81	10171.5
867.054	10195.5
867.298	10178.5
867.543	10108.5
867.787	10157.5
868.031	10108.5
868.275	10097.5
868.519	10120.5
868.764	10204.5
869.008	10093.5
869.252	10227.5
869.496	10181.5
869.739	10196.5
869.983	10246.5
870.227	10291.5
870.471	10265.5
870.715	10264.5
870.958	10393.5
871.202	10329.5
871.446	10484.5
871.689	10424.5
871.933	10426.5
872.176	10450.5
872.42	10410.5
872.663	10328.5
872.906	10394.5
873.15	10386.5
873.393	10399.5
873.636	10480.5
873.879	10441.5
874.122	10246.5
874.366	10101.5
874.609	9960.5
874.852	9846.5
875.095	9757.5
875.337	9794.5
875.58	9674.5
875.823	9719.5
876.066	9670.5
876.309	9573.5
876.551	9561.5
876.794	9450.5
877.037	9531.5
877.279	9428.5
877.522	9438.5
877.764	9507.5
878.007	9402.5
878.249	9450.5
878.491	9357.5
878.734	9360.5
878.976	9386.5
879.218	9246.5
879.46	9222.5
879.702	9159.5
879.945	9087.5
880.187	9002.5
880.429	9046.5
880.671	8932.5
880.912	8906.5
881.154	8927.5
881.396	8826.5
881.638	8845.5
881.88	8919.5
882.121	8882.5
882.363	8837.5
882.605	8963.5
882.846	8921.5
883.088	8986.5
883.329	8967.5
883.571	9040.5
883.812	9298.5
884.053	9584.5
884.295	9881.5
884.536	10201.5
884.777	10038.5
885.018	10035.5
885.259	9907.5
885.5	9802.5
885.742	9980.5
885.982	9716.5
886.223	9537.5
886.464	9434.5
886.705	9275.5
886.946	9239.5
887.187	8952.5
887.428	8834.5
887.668	8616.5
887.909	8486.5
888.15	8366.5
888.39	8337.5
888.631	8356.5
888.871	8171.5
889.111	8074.5
889.352	8051.5
889.592	7932.5
889.833	7888.5
890.073	7814.5
890.313	7826.5
890.553	7697.5
890.793	7712.5
891.033	7731.5
891.273	7617.5
891.513	7606.5
891.753	7682.5
891.993	7581.5
892.233	7654.5
892.473	7662.5
892.713	7705.5
892.952	7725.5
893.192	7704.5
893.432	7679.5
893.671	7739.5
893.911	7625.5
894.15	7606.5
894.39	7520.5
894.629	7548.5
894.869	7489.5
895.108	7510.5
895.347	7437.5
895.587	7422.5
895.826	7358.5
896.065	7387.5
896.304	7382.5
896.543	7449.5
896.782	7210.5
897.021	7383.5
897.26	7329.5
897.499	7440.5
897.738	7411.5
897.977	7334.5
898.216	7293.5
898.454	7186.5
898.693	7151.5
898.932	7218.5
899.17	7123.5
899.409	7171.5
899.647	7119.5
899.886	7155.5
900.124	7182.5
900.363	7123.5
900.601	7231.5
900.839	7249.5
901.078	7267.5
901.316	7362.5
901.554	7480.5
901.792	7614.5
902.03	7551.5
902.268	7642.5
902.506	7633.5
902.744	7531.5
902.982	7523.5
903.22	7302.5
903.458	7175.5
903.695	7017.5
903.933	6913.5
904.171	6772.5
904.409	6648.5
904.646	6565.5
904.884	6461.5
905.121	6418.5
905.359	6345.5
905.596	6268.5
905.833	6130.5
906.071	6173.5
906.308	6196.5
906.545	6160.5
906.783	6105.5
907.02	6132.5
907.257	6023.5
907.494	6039.5
907.731	6066.5
907.968	6088.5
908.205	5977.5
908.442	5967.5
908.679	5988.5
908.915	5871.5
909.152	5912.5
909.389	5762.5
909.626	5756.5
909.862	5703.5
910.099	5713.5
910.335	5725.5
910.572	5598.5
910.808	5654.5
911.045	5613.5
911.281	5520.5
911.518	5663.5
911.754	5517.5
911.99	5550.5
912.226	5446.5
912.463	5419.5
912.699	5367.5
912.935	5394.5
913.171	5325.5
913.407	5299.5
913.643	5277.5
913.879	5217.5
914.114	5201.5
914.35	5170.5
914.586	5114.5
914.822	5067.5
915.057	5129.5
915.293	4985.5
915.529	4966.5
915.764	5042.5
916	5004.5
916.235	4961.5
916.471	4996.5
916.706	4895.5
916.941	4921.5
917.177	4872.5
917.412	4907.5
917.647	4935.5
917.882	4931.5
918.117	4927.5
918.352	4837.5
918.588	4952.5
918.823	4844.5
919.057	4874.5
919.292	4667.5
919.527	4803.5
919.762	4666.5
919.997	4669.5
920.232	4618.5
920.466	4652.5
920.701	4471.5
920.935	4531.5
921.17	4488.5
921.405	4431.5
921.639	4488.5
921.873	4451.5
922.108	4457.5
922.342	4474.5
922.576	4416.5
922.811	4358.5
923.045	4418.5
923.279	4438.5
923.513	4291.5
923.747	4364.5
923.981	4348.5
924.215	4319.5
924.449	4276.5
924.683	4200.5
924.917	4226.5
925.151	4225.5
925.385	4243.5
925.618	4217.5
925.852	4160.5
926.086	4109.5
926.319	4153.5
926.553	4178.5
926.786	4222.5
927.02	4164.5
927.253	4213.5
927.486	4151.5
927.72	4104.5
927.953	4188.5
928.186	4090.5
928.42	4151.5
928.653	4057.5
928.886	4073.5
929.119	4122.5
929.352	4087.5
929.585	4093.5
929.818	4003.5
930.051	3989.5
930.284	3957.5
930.516	3883.5
930.749	3877.5
930.982	3894.5
931.215	3875.5
931.447	3838.5
931.68	3836.5
931.912	3808.5
932.145	3834.5
932.377	3833.5
932.61	3975.5
932.842	3765.5
933.074	3868.5
933.307	3843.5
933.539	3897.5
933.771	3915.5
934.003	3802.5
934.236	3858.5
934.468	3923.5
934.7	3837.5
934.932	3892.5
935.164	3823.5
935.395	3731.5
935.627	3812.5
935.859	3842.5
936.091	3698.5
936.323	3811.5
936.554	3792.5
936.786	3744.5
937.017	3689.5
937.249	3766.5
937.481	3673.5
937.712	3749.5
937.943	3725.5
938.175	3723.5
938.406	3669.5
938.637	3750.5
938.869	3702.5
939.1	3701.5
939.331	3645.5
939.562	3706.5
939.793	3666.5
940.024	3680.5
940.255	3691.5
940.486	3625.5
940.717	3617.5
940.948	3619.5
941.179	3539.5
941.409	3605.5
941.64	3576.5
941.871	3571.5
942.102	3553.5
942.332	3538.5
942.563	3609.5
942.793	3581.5
943.024	3548.5
943.254	3568.5
943.484	3648.5
943.715	3602.5
943.945	3605.5
944.175	3517.5
944.405	3526.5
944.636	3555.5
944.866	3559.5
945.096	3611.5
945.326	3520.5
945.556	3564.5
945.786	3544.5
946.016	3475.5
946.245	3455.5
946.475	3482.5
946.705	3436.5
946.935	3438.5
947.164	3447.5
947.394	3418.5
947.624	3420.5
947.853	3446.5
948.083	3389.5
948.312	3366.5
948.542	3297.5
948.771	3314.5
949	3312.5
949.23	3307.5
949.459	3306.5
949.688	3333.5
949.917	3301.5
950.146	3297.5
950.375	3369.5
950.604	3251.5
950.833	3390.5
951.062	3341.5
951.291	3290.5
951.52	3235.5
951.749	3283.5
951.978	3194.5
952.206	3215.5
952.435	3235.5
952.664	3283.5
952.892	3280.5
953.121	3256.5
953.349	3236.5
953.578	3206.5
953.806	3208.5
954.035	3178.5
954.263	3206.5
954.491	3098.5
954.719	3184.5
954.948	3183.5
955.176	3102.5
955.404	3036.5
955.632	3053.5
955.86	3098.5
956.088	3064.5
956.316	3091.5
956.544	3115.5
956.772	3065.5
956.999	3033.5
957.227	3099.5
957.455	2969.5
957.683	2986.5
957.91	2977.5
958.138	2966.5
958.365	2968.5
958.593	2960.5
958.82	2882.5
959.048	2972.5
959.275	2929.5
959.502	2923.5
959.73	2894.5
959.957	2947.5
960.184	2934.5
960.411	2904.5
960.638	2949.5
960.865	2887.5
961.092	2944.5
961.319	2850.5
961.546	2915.5
961.773	2972.5
962	2845.5
962.227	2881.5
962.454	2873.5
962.68	2871.5
962.907	2850.5
963.134	2809.5
963.36	2837.5
963.587	2844.5
963.813	2806.5
964.04	2812.5
964.266	2748.5
964.493	2800.5
964.719	2824.5
964.945	2787.5
965.171	2693.5
965.398	2750.5
965.624	2774.5
965.85	2691.5
966.076	2686.5
966.302	2664.5
966.528	2673.5
966.754	2713.5
966.98	2677.5
967.206	2678.5
967.431	2582.5
967.657	2678.5
967.883	2697.5
968.109	2655.5
968.334	2595.5
968.56	2587.5
968.785	2590.5
969.011	2550.5
969.236	2588.5
969.462	2560.5
969.687	2550.5
969.912	2587.5
970.138	2635.5
970.363	2509.5
970.588	2578.5
970.813	2508.5
971.038	2500.5
971.263	2580.5
971.488	2567.5
971.713	2590.5
971.938	2542.5
972.163	2446.5
972.388	2476.5
972.613	2445.5
972.838	2477.5
973.062	2436.5
973.287	2451.5
973.512	2380.5
973.736	2428.5
973.961	2424.5
974.185	2385.5
974.41	2432.5
974.634	2365.5
974.858	2331.5
975.083	2368.5
975.307	2397.5
975.531	2346.5
975.755	2283.5
975.98	2313.5
976.204	2217.5
976.428	2257.5
976.652	2277.5
976.876	2223.5
977.1	2248.5
977.324	2202.5
977.547	2254.5
977.771	2254.5
977.995	2239.5
978.219	2187.5
978.442	2279.5
978.666	2223.5
978.89	2213.5
979.113	2229.5
979.337	2171.5
979.56	2179.5
979.783	2259.5
980.007	2181.5
980.23	2198.5
980.453	2153.5
980.677	2184.5
980.9	2171.5
981.123	2067.5
981.346	2165.5
981.569	2120.5
981.792	2203.5
982.015	2102.5
982.238	2047.5
982.461	2123.5
982.684	2037.5
982.907	2029.5
983.129	2008.5
983.352	2101.5
983.575	2093.5
983.797	2092.5
984.02	2041.5
984.242	2003.5
984.465	2054.5
984.687	2050.5
984.91	2069.5
985.132	2025.5
985.354	2071.5
985.577	2043.5
985.799	2021.5
986.021	1945.5
986.243	1997.5
986.465	1993.5
986.687	1993.5
986.909	2079.5
987.131	2010.5
987.353	1955.5
987.575	2013.5
987.797	1983.5
988.019	1873.5
988.241	1946.5
988.462	1917.5
988.684	1958.5
988.906	2004.5
989.127	1992.5
989.349	1898.5
989.57	1961.5
989.792	1958.5
990.013	1982.5
990.234	1952.5
990.456	1992.5
990.677	1973.5
990.898	1929.5
991.119	1921.5
991.341	1969.5
991.562	1897.5
991.783	1934.5
992.004	1852.5
992.225	1851.5
992.446	1904.5
992.667	1782.5
992.887	1888.5
993.108	1782.5
993.329	1920.5
993.55	1849.5
993.77	1807.5
993.991	1793.5
994.212	1857.5
994.432	1826.5
994.653	1817.5
994.873	1821.5
995.093	1709.5
995.314	1752.5
995.534	1825.5
995.754	1833.5
995.975	1862.5
996.195	1723.5
996.415	1809.5
996.635	1783.5
996.855	1805.5
997.075	1808.5
997.295	1807.5
997.515	1774.5
997.735	1825.5
997.955	1790.5
998.174	1822.5
998.394	1767.5
998.614	1823.5
998.834	1756.5
999.053	1821.5
999.273	1793.5
999.492	1861.5
999.712	1793.5
999.931	1732.5
1000.151	1764.5
1000.37	1746.5
1000.589	1779.5
1000.809	1698.5
1001.028	1813.5
1001.247	1753.5
1001.466	1632.5
1001.685	1780.5
1001.904	1734.5
1002.123	1700.5
1002.342	1697.5
1002.561	1684.5
1002.78	1668.5
1002.999	1744.5
1003.218	1671.5
1003.436	1666.5
1003.655	1729.5
1003.874	1638.5
1004.092	1660.5
1004.311	1712.5
1004.53	1662.5
1004.748	1754.5
1004.966	1661.5
1005.185	1725.5
1005.403	1713.5
1005.622	1677.5
1005.84	1771.5
1006.058	1632.5
1006.276	1697.5
1006.494	2177.5
1006.712	1708.5
1006.931	1784.5
1007.149	1695.5
1007.367	1717.5
1007.584	1774.5
1007.802	1815.5
1008.02	1763.5
1008.238	1902.5
1008.456	1882.5
1008.673	1771.5
1008.891	1910.5
1009.109	1904.5
1009.326	1979.5
1009.544	2058.5
1009.761	2047.5
1009.979	2163.5
1010.196	2313.5
1010.413	2463.5
1010.631	2558.5
1010.848	2683.5
1011.065	2685.5
1011.282	2697.5
1011.5	2596.5
1011.717	2737.5
1011.934	2623.5
1012.151	2668.5
1012.368	2644.5
1012.585	2602.5
1012.801	2645.5
1013.018	2670.5
1013.235	2640.5
1013.452	2636.5
1013.669	2670.5
1013.885	2661.5
1014.102	2740.5
1014.318	2677.5
1014.535	2639.5
1014.751	2648.5
1014.968	2719.5
1015.184	2676.5
1015.401	2584.5
1015.617	2580.5
1015.833	2526.5
1016.049	2527.5
1016.266	2484.5
1016.482	2517.5
1016.698	2419.5
1016.914	2392.5
1017.13	2378.5
1017.346	2394.5
1017.562	2381.5
1017.778	2343.5
1017.993	2319.5
1018.209	2377.5
1018.425	2360.5
1018.641	2337.5
1018.856	2299.5
1019.072	2309.5
1019.288	2375.5
1019.503	2301.5
1019.719	2222.5
1019.934	2254.5
1020.149	2307.5
1020.365	2176.5
1020.58	2141.5
1020.795	2135.5
1021.011	2057.5
1021.226	1978.5
1021.441	1966.5
1021.656	1889.5
1021.871	1803.5
1022.086	1768.5
1022.301	1745.5
1022.516	1718.5
1022.731	1769.5
1022.946	1659.5
1023.16	1634.5
1023.375	1568.5
1023.59	1587.5
1023.804	1477.5
1024.019	1547.5
1024.234	1428.5
1024.448	1453.5
1024.663	1368.5
1024.877	1369.5
1025.092	1366.5
1025.306	1319.5
1025.52	1239.5
1025.734	1304.5
1025.949	1236.5
1026.163	1162.5
1026.377	1111.5
1026.591	1153.5
1026.805	1068.5
1027.019	1047.5
1027.233	1042.5
1027.447	947.5
1027.661	1065.5
1027.875	993.5
1028.088	990.5
1028.302	911.5
1028.516	913.5
1028.73	886.5
1028.943	837.5
1029.157	820.5
1029.37	745.5
1029.584	0.5
1029.797	-1.5
1030.011	-2.5
1030.224	-2.5
