Data from QEP037381__137__13-49-54-880.txt Node

Date: Wed Dec 21 13:49:54 EST 2022
User: dcclab
Spectrometer: QEP03738
Trigger mode: 4
Integration Time (sec): 1.000000E1
Scans to average: 1
Electric dark correction enabled: true
Nonlinearity correction enabled: false
Boxcar width: 0
XAxis mode: Wavelengths
Number of Pixels in Spectrum: 1044
>>>>>Begin Spectral Data<<<<<
784.041	14.5
784.3	-0.5
784.558	-6.5
784.817	-3.5
785.075	87794.5
785.334	14970.5
785.592	6891.5
785.851	4784.5
786.109	3579.5
786.368	2809.5
786.626	2240.5
786.884	1890.5
787.143	1582.5
787.401	1319.5
787.659	1196.5
787.917	1039.5
788.175	967.5
788.433	839.5
788.691	773.5
788.949	708.5
789.207	690.5
789.465	585.5
789.723	563.5
789.98	526.5
790.238	561.5
790.496	521.5
790.753	502.5
791.011	544.5
791.268	496.5
791.526	477.5
791.783	493.5
792.041	474.5
792.298	380.5
792.556	451.5
792.813	450.5
793.07	420.5
793.327	413.5
793.584	486.5
793.841	408.5
794.099	431.5
794.356	484.5
794.613	378.5
794.869	426.5
795.126	395.5
795.383	376.5
795.64	388.5
795.897	357.5
796.153	410.5
796.41	389.5
796.667	380.5
796.923	385.5
797.18	394.5
797.436	407.5
797.693	373.5
797.949	417.5
798.206	449.5
798.462	353.5
798.718	427.5
798.974	376.5
799.231	434.5
799.487	413.5
799.743	407.5
799.999	429.5
800.255	426.5
800.511	406.5
800.767	450.5
801.023	425.5
801.279	447.5
801.534	463.5
801.79	497.5
802.046	476.5
802.302	577.5
802.557	588.5
802.813	703.5
803.068	777.5
803.324	1000.5
803.579	1291.5
803.835	1696.5
804.09	2342.5
804.345	2959.5
804.601	3681.5
804.856	4468.5
805.111	5122.5
805.366	5642.5
805.621	5990.5
805.876	6260.5
806.131	6400.5
806.386	6422.5
806.641	6586.5
806.896	6628.5
807.151	6824.5
807.406	6887.5
807.661	7034.5
807.915	7117.5
808.17	7348.5
808.425	7337.5
808.679	7324.5
808.934	7545.5
809.188	7540.5
809.443	7648.5
809.697	7811.5
809.951	7796.5
810.206	7863.5
810.46	7972.5
810.714	8092.5
810.968	8154.5
811.223	8123.5
811.477	8293.5
811.731	8303.5
811.985	8347.5
812.239	8284.5
812.493	8392.5
812.747	8462.5
813	8454.5
813.254	8455.5
813.508	8560.5
813.762	8592.5
814.015	8600.5
814.269	8633.5
814.522	8834.5
814.776	8906.5
815.03	9027.5
815.283	9170.5
815.536	9285.5
815.79	9420.5
816.043	9598.5
816.296	9701.5
816.55	9819.5
816.803	9911.5
817.056	10104.5
817.309	10160.5
817.562	10303.5
817.815	10372.5
818.068	10309.5
818.321	10603.5
818.574	10702.5
818.827	10805.5
819.079	10999.5
819.332	11333.5
819.585	11387.5
819.838	11557.5
820.09	11545.5
820.343	11641.5
820.595	11636.5
820.848	11763.5
821.1	11856.5
821.353	11748.5
821.605	11782.5
821.857	11818.5
822.11	11673.5
822.362	11723.5
822.614	11721.5
822.866	11713.5
823.118	11687.5
823.37	11867.5
823.622	11874.5
823.874	11875.5
824.126	12018.5
824.378	12015.5
824.63	12010.5
824.882	11977.5
825.134	11984.5
825.385	11961.5
825.637	11973.5
825.888	11851.5
826.14	11835.5
826.392	11826.5
826.643	11844.5
826.895	11790.5
827.146	11683.5
827.397	11635.5
827.649	11750.5
827.9	11617.5
828.151	11620.5
828.402	11679.5
828.653	11791.5
828.905	11856.5
829.156	11863.5
829.407	11900.5
829.658	11935.5
829.909	12094.5
830.159	12109.5
830.41	11990.5
830.661	11934.5
830.912	11849.5
831.162	11861.5
831.413	11818.5
831.664	11866.5
831.914	11861.5
832.165	11773.5
832.415	11780.5
832.666	11794.5
832.916	11891.5
833.167	11868.5
833.417	11822.5
833.667	11741.5
833.917	11681.5
834.168	11812.5
834.418	11773.5
834.668	11634.5
834.918	11689.5
835.168	11703.5
835.418	11530.5
835.668	11573.5
835.918	11546.5
836.167	11544.5
836.417	11465.5
836.667	11469.5
836.917	11515.5
837.166	11456.5
837.416	11580.5
837.666	11529.5
837.915	11535.5
838.165	11583.5
838.414	11490.5
838.663	11475.5
838.913	11520.5
839.162	11426.5
839.411	11529.5
839.661	11429.5
839.91	11444.5
840.159	11514.5
840.408	11502.5
840.657	11551.5
840.906	11519.5
841.155	11588.5
841.404	11532.5
841.653	11553.5
841.902	11509.5
842.15	11611.5
842.399	11619.5
842.648	11652.5
842.897	11550.5
843.145	11436.5
843.394	11451.5
843.642	11351.5
843.891	11364.5
844.139	11234.5
844.388	11159.5
844.636	11111.5
844.884	11157.5
845.133	11120.5
845.381	11184.5
845.629	11190.5
845.877	11178.5
846.125	11109.5
846.373	11157.5
846.621	11191.5
846.869	11124.5
847.117	11070.5
847.365	11003.5
847.613	10956.5
847.861	10950.5
848.108	11031.5
848.356	10939.5
848.604	10991.5
848.851	10959.5
849.099	11035.5
849.346	11058.5
849.594	11100.5
849.841	11141.5
850.089	11278.5
850.336	11246.5
850.583	11342.5
850.831	11248.5
851.078	11215.5
851.325	11188.5
851.572	11294.5
851.819	11159.5
852.066	10873.5
852.313	10711.5
852.56	10622.5
852.807	10550.5
853.054	10619.5
853.301	10600.5
853.548	10599.5
853.794	10756.5
854.041	10793.5
854.288	10778.5
854.534	11005.5
854.781	10892.5
855.028	10930.5
855.274	11002.5
855.52	10936.5
855.767	10836.5
856.013	11016.5
856.26	11260.5
856.506	10774.5
856.752	10839.5
856.998	10709.5
857.244	10787.5
857.49	10979.5
857.736	10931.5
857.982	10920.5
858.228	10847.5
858.474	10752.5
858.72	10789.5
858.966	10544.5
859.212	10428.5
859.458	10303.5
859.703	10296.5
859.949	10081.5
860.195	10142.5
860.44	10089.5
860.686	10103.5
860.931	10209.5
861.177	10053.5
861.422	10024.5
861.667	9844.5
861.913	9802.5
862.158	9803.5
862.403	9943.5
862.648	9926.5
862.893	9981.5
863.138	9932.5
863.384	9867.5
863.629	9947.5
863.873	9929.5
864.118	9812.5
864.363	9798.5
864.608	9845.5
864.853	9771.5
865.098	9729.5
865.342	9716.5
865.587	9645.5
865.832	9685.5
866.076	9658.5
866.321	9650.5
866.565	9663.5
866.81	9615.5
867.054	9563.5
867.298	9580.5
867.543	9561.5
867.787	9530.5
868.031	9572.5
868.275	9566.5
868.519	9574.5
868.764	9569.5
869.008	9632.5
869.252	9631.5
869.496	9557.5
869.739	9676.5
869.983	9663.5
870.227	9753.5
870.471	9714.5
870.715	9789.5
870.958	9807.5
871.202	9816.5
871.446	9801.5
871.689	9809.5
871.933	9855.5
872.176	9821.5
872.42	9802.5
872.663	9735.5
872.906	9872.5
873.15	9853.5
873.393	9918.5
873.636	9942.5
873.879	9853.5
874.122	9738.5
874.366	9532.5
874.609	9434.5
874.852	9285.5
875.095	9285.5
875.337	9216.5
875.58	9132.5
875.823	9126.5
876.066	9149.5
876.309	9104.5
876.551	9022.5
876.794	8951.5
877.037	9060.5
877.279	8964.5
877.522	8954.5
877.764	8874.5
878.007	8893.5
878.249	8949.5
878.491	8793.5
878.734	8919.5
878.976	8800.5
879.218	8705.5
879.46	8746.5
879.702	8631.5
879.945	8638.5
880.187	8497.5
880.429	8480.5
880.671	8471.5
880.912	8375.5
881.154	8353.5
881.396	8282.5
881.638	8277.5
881.88	8423.5
882.121	8359.5
882.363	8359.5
882.605	8409.5
882.846	8443.5
883.088	8451.5
883.329	8457.5
883.571	8534.5
883.812	8807.5
884.053	9128.5
884.295	9407.5
884.536	9731.5
884.777	9581.5
885.018	9525.5
885.259	9437.5
885.5	9363.5
885.742	9455.5
885.982	9295.5
886.223	9075.5
886.464	9035.5
886.705	8814.5
886.946	8766.5
887.187	8471.5
887.428	8365.5
887.668	8136.5
887.909	7989.5
888.15	7892.5
888.39	7845.5
888.631	7833.5
888.871	7711.5
889.111	7659.5
889.352	7629.5
889.592	7540.5
889.833	7446.5
890.073	7365.5
890.313	7430.5
890.553	7295.5
890.793	7308.5
891.033	7200.5
891.273	7161.5
891.513	7140.5
891.753	7241.5
891.993	7169.5
892.233	7224.5
892.473	7267.5
892.713	7244.5
892.952	7172.5
893.192	7206.5
893.432	7236.5
893.671	7294.5
893.911	7194.5
894.15	7145.5
894.39	7024.5
894.629	7042.5
894.869	7061.5
895.108	7030.5
895.347	6942.5
895.587	6958.5
895.826	6926.5
896.065	6944.5
896.304	6999.5
896.543	7001.5
896.782	6862.5
897.021	6937.5
897.26	6909.5
897.499	7034.5
897.738	7023.5
897.977	6947.5
898.216	6898.5
898.454	6821.5
898.693	6797.5
898.932	6786.5
899.17	6750.5
899.409	6750.5
899.647	6805.5
899.886	6707.5
900.124	6850.5
900.363	6788.5
900.601	6819.5
900.839	6899.5
901.078	6978.5
901.316	7058.5
901.554	7163.5
901.792	7275.5
902.03	7169.5
902.268	7223.5
902.506	7198.5
902.744	7144.5
902.982	7068.5
903.22	6955.5
903.458	6866.5
903.695	6742.5
903.933	6487.5
904.171	6407.5
904.409	6310.5
904.646	6217.5
904.884	6108.5
905.121	6132.5
905.359	5951.5
905.596	5934.5
905.833	5802.5
906.071	5805.5
906.308	5846.5
906.545	5782.5
906.783	5748.5
907.02	5793.5
907.257	5709.5
907.494	5705.5
907.731	5754.5
907.968	5656.5
908.205	5622.5
908.442	5599.5
908.679	5611.5
908.915	5579.5
909.152	5544.5
909.389	5452.5
909.626	5411.5
909.862	5386.5
910.099	5396.5
910.335	5375.5
910.572	5249.5
910.808	5340.5
911.045	5235.5
911.281	5245.5
911.518	5256.5
911.754	5222.5
911.99	5197.5
912.226	5244.5
912.463	5128.5
912.699	5112.5
912.935	5064.5
913.171	5045.5
913.407	5002.5
913.643	5015.5
913.879	4946.5
914.114	4901.5
914.35	4856.5
914.586	4886.5
914.822	4747.5
915.057	4831.5
915.293	4687.5
915.529	4733.5
915.764	4751.5
916	4721.5
916.235	4681.5
916.471	4711.5
916.706	4631.5
916.941	4676.5
917.177	4623.5
917.412	4644.5
917.647	4699.5
917.882	4631.5
918.117	4696.5
918.352	4640.5
918.588	4646.5
918.823	4564.5
919.057	4551.5
919.292	4412.5
919.527	4478.5
919.762	4361.5
919.997	4421.5
920.232	4358.5
920.466	4357.5
920.701	4259.5
920.935	4239.5
921.17	4188.5
921.405	4179.5
921.639	4204.5
921.873	4181.5
922.108	4237.5
922.342	4243.5
922.576	4128.5
922.811	4122.5
923.045	4162.5
923.279	4192.5
923.513	4067.5
923.747	4115.5
923.981	4085.5
924.215	4034.5
924.449	4023.5
924.683	3957.5
924.917	3998.5
925.151	3960.5
925.385	3980.5
925.618	3949.5
925.852	4005.5
926.086	3888.5
926.319	3971.5
926.553	3935.5
926.786	3921.5
927.02	3930.5
927.253	3931.5
927.486	3945.5
927.72	3928.5
927.953	3955.5
928.186	3901.5
928.42	3950.5
928.653	3834.5
928.886	3842.5
929.119	3868.5
929.352	3862.5
929.585	3816.5
929.818	3749.5
930.051	3791.5
930.284	3738.5
930.516	3698.5
930.749	3625.5
930.982	3735.5
931.215	3690.5
931.447	3642.5
931.68	3627.5
931.912	3606.5
932.145	3590.5
932.377	3658.5
932.61	3782.5
932.842	3559.5
933.074	3669.5
933.307	3615.5
933.539	3716.5
933.771	3684.5
934.003	3661.5
934.236	3672.5
934.468	3684.5
934.7	3585.5
934.932	3652.5
935.164	3554.5
935.395	3589.5
935.627	3568.5
935.859	3601.5
936.091	3504.5
936.323	3606.5
936.554	3533.5
936.786	3502.5
937.017	3479.5
937.249	3556.5
937.481	3502.5
937.712	3528.5
937.943	3479.5
938.175	3467.5
938.406	3508.5
938.637	3573.5
938.869	3458.5
939.1	3487.5
939.331	3515.5
939.562	3505.5
939.793	3481.5
940.024	3489.5
940.255	3490.5
940.486	3395.5
940.717	3415.5
940.948	3357.5
941.179	3395.5
941.409	3394.5
941.64	3383.5
941.871	3377.5
942.102	3375.5
942.332	3368.5
942.563	3417.5
942.793	3435.5
943.024	3380.5
943.254	3373.5
943.484	3395.5
943.715	3403.5
943.945	3393.5
944.175	3259.5
944.405	3318.5
944.636	3309.5
944.866	3353.5
945.096	3391.5
945.326	3310.5
945.556	3375.5
945.786	3349.5
946.016	3292.5
946.245	3270.5
946.475	3287.5
946.705	3247.5
946.935	3243.5
947.164	3223.5
947.394	3188.5
947.624	3176.5
947.853	3225.5
948.083	3224.5
948.312	3209.5
948.542	3120.5
948.771	3102.5
949	3106.5
949.23	3116.5
949.459	3134.5
949.688	3163.5
949.917	3151.5
950.146	3145.5
950.375	3204.5
950.604	3098.5
950.833	3140.5
951.062	3157.5
951.291	3096.5
951.52	3075.5
951.749	3117.5
951.978	3045.5
952.206	3048.5
952.435	3041.5
952.664	3088.5
952.892	3085.5
953.121	3028.5
953.349	3041.5
953.578	3053.5
953.806	3076.5
954.035	3002.5
954.263	2988.5
954.491	2918.5
954.719	3018.5
954.948	2957.5
955.176	2942.5
955.404	2905.5
955.632	2944.5
955.86	2961.5
956.088	2916.5
956.316	2927.5
956.544	2934.5
956.772	2863.5
956.999	2852.5
957.227	2935.5
957.455	2793.5
957.683	2853.5
957.91	2830.5
958.138	2759.5
958.365	2781.5
958.593	2794.5
958.82	2759.5
959.048	2758.5
959.275	2736.5
959.502	2756.5
959.73	2744.5
959.957	2759.5
960.184	2830.5
960.411	2762.5
960.638	2776.5
960.865	2735.5
961.092	2759.5
961.319	2681.5
961.546	2800.5
961.773	2773.5
962	2720.5
962.227	2759.5
962.454	2724.5
962.68	2696.5
962.907	2722.5
963.134	2673.5
963.36	2641.5
963.587	2669.5
963.813	2648.5
964.04	2654.5
964.266	2622.5
964.493	2689.5
964.719	2658.5
964.945	2650.5
965.171	2526.5
965.398	2599.5
965.624	2603.5
965.85	2486.5
966.076	2546.5
966.302	2545.5
966.528	2511.5
966.754	2544.5
966.98	2557.5
967.206	2544.5
967.431	2487.5
967.657	2537.5
967.883	2513.5
968.109	2513.5
968.334	2451.5
968.56	2447.5
968.785	2449.5
969.011	2424.5
969.236	2526.5
969.462	2437.5
969.687	2442.5
969.912	2456.5
970.138	2523.5
970.363	2383.5
970.588	2456.5
970.813	2433.5
971.038	2355.5
971.263	2409.5
971.488	2383.5
971.713	2418.5
971.938	2419.5
972.163	2314.5
972.388	2385.5
972.613	2348.5
972.838	2353.5
973.062	2384.5
973.287	2289.5
973.512	2233.5
973.736	2332.5
973.961	2269.5
974.185	2268.5
974.41	2298.5
974.634	2203.5
974.858	2225.5
975.083	2272.5
975.307	2272.5
975.531	2166.5
975.755	2169.5
975.98	2163.5
976.204	2123.5
976.428	2124.5
976.652	2137.5
976.876	2114.5
977.1	2120.5
977.324	2105.5
977.547	2147.5
977.771	2184.5
977.995	2127.5
978.219	2033.5
978.442	2191.5
978.666	2117.5
978.89	2111.5
979.113	2111.5
979.337	2108.5
979.56	2062.5
979.783	2109.5
980.007	2020.5
980.23	2057.5
980.453	2007.5
980.677	2062.5
980.9	2066.5
981.123	1980.5
981.346	2069.5
981.569	2006.5
981.792	2062.5
982.015	2016.5
982.238	1967.5
982.461	2016.5
982.684	1970.5
982.907	1904.5
983.129	1955.5
983.352	2000.5
983.575	2014.5
983.797	1967.5
984.02	1917.5
984.242	1931.5
984.465	1931.5
984.687	1969.5
984.91	1969.5
985.132	1943.5
985.354	1993.5
985.577	1937.5
985.799	1899.5
986.021	1830.5
986.243	1867.5
986.465	1887.5
986.687	1895.5
986.909	1947.5
987.131	1874.5
987.353	1859.5
987.575	1896.5
987.797	1875.5
988.019	1797.5
988.241	1889.5
988.462	1838.5
988.684	1886.5
988.906	1916.5
989.127	1893.5
989.349	1788.5
989.57	1858.5
989.792	1891.5
990.013	1843.5
990.234	1885.5
990.456	1954.5
990.677	1919.5
990.898	1843.5
991.119	1838.5
991.341	1866.5
991.562	1809.5
991.783	1842.5
992.004	1779.5
992.225	1761.5
992.446	1789.5
992.667	1722.5
992.887	1787.5
993.108	1702.5
993.329	1817.5
993.55	1754.5
993.77	1723.5
993.991	1751.5
994.212	1729.5
994.432	1735.5
994.653	1733.5
994.873	1738.5
995.093	1624.5
995.314	1687.5
995.534	1751.5
995.754	1784.5
995.975	1809.5
996.195	1673.5
996.415	1742.5
996.635	1727.5
996.855	1746.5
997.075	1712.5
997.295	1702.5
997.515	1701.5
997.735	1762.5
997.955	1709.5
998.174	1700.5
998.394	1698.5
998.614	1744.5
998.834	1696.5
999.053	1764.5
999.273	1682.5
999.492	1753.5
999.712	1707.5
999.931	1643.5
1000.151	1707.5
1000.37	1671.5
1000.589	1732.5
1000.809	1632.5
1001.028	1738.5
1001.247	1678.5
1001.466	1601.5
1001.685	1720.5
1001.904	1641.5
1002.123	1619.5
1002.342	1637.5
1002.561	1608.5
1002.78	1591.5
1002.999	1708.5
1003.218	1626.5
1003.436	1618.5
1003.655	1655.5
1003.874	1584.5
1004.092	1617.5
1004.311	1623.5
1004.53	1599.5
1004.748	1695.5
1004.966	1595.5
1005.185	1649.5
1005.403	1649.5
1005.622	1606.5
1005.84	1688.5
1006.058	1621.5
1006.276	1633.5
1006.494	2152.5
1006.712	1664.5
1006.931	1702.5
1007.149	1641.5
1007.367	1650.5
1007.584	1682.5
1007.802	1750.5
1008.02	1704.5
1008.238	1805.5
1008.456	1859.5
1008.673	1714.5
1008.891	1873.5
1009.109	1799.5
1009.326	1914.5
1009.544	2033.5
1009.761	2009.5
1009.979	2144.5
1010.196	2229.5
1010.413	2371.5
1010.631	2518.5
1010.848	2604.5
1011.065	2620.5
1011.282	2654.5
1011.5	2561.5
1011.717	2642.5
1011.934	2563.5
1012.151	2606.5
1012.368	2574.5
1012.585	2534.5
1012.801	2596.5
1013.018	2542.5
1013.235	2577.5
1013.452	2567.5
1013.669	2630.5
1013.885	2626.5
1014.102	2650.5
1014.318	2606.5
1014.535	2575.5
1014.751	2623.5
1014.968	2621.5
1015.184	2646.5
1015.401	2504.5
1015.617	2526.5
1015.833	2486.5
1016.049	2469.5
1016.266	2407.5
1016.482	2403.5
1016.698	2357.5
1016.914	2364.5
1017.13	2304.5
1017.346	2298.5
1017.562	2333.5
1017.778	2295.5
1017.993	2295.5
1018.209	2318.5
1018.425	2284.5
1018.641	2219.5
1018.856	2255.5
1019.072	2288.5
1019.288	2325.5
1019.503	2271.5
1019.719	2175.5
1019.934	2179.5
1020.149	2239.5
1020.365	2157.5
1020.58	2066.5
1020.795	2112.5
1021.011	1991.5
1021.226	1934.5
1021.441	1969.5
1021.656	1848.5
1021.871	1748.5
1022.086	1732.5
1022.301	1705.5
1022.516	1672.5
1022.731	1730.5
1022.946	1628.5
1023.16	1557.5
1023.375	1550.5
1023.59	1504.5
1023.804	1446.5
1024.019	1534.5
1024.234	1395.5
1024.448	1419.5
1024.663	1314.5
1024.877	1312.5
1025.092	1321.5
1025.306	1331.5
1025.52	1198.5
1025.734	1280.5
1025.949	1191.5
1026.163	1150.5
1026.377	1062.5
1026.591	1113.5
1026.805	1047.5
1027.019	1013.5
1027.233	1000.5
1027.447	914.5
1027.661	1024.5
1027.875	966.5
1028.088	954.5
1028.302	888.5
1028.516	862.5
1028.73	839.5
1028.943	830.5
1029.157	780.5
1029.37	722.5
1029.584	-1.5
1029.797	-0.5
1030.011	-0.5
1030.224	-1.5
