Data from QEP037381__156__13-53-04-871.txt Node

Date: Wed Dec 21 13:53:04 EST 2022
User: dcclab
Spectrometer: QEP03738
Trigger mode: 4
Integration Time (sec): 1.000000E1
Scans to average: 1
Electric dark correction enabled: true
Nonlinearity correction enabled: false
Boxcar width: 0
XAxis mode: Wavelengths
Number of Pixels in Spectrum: 1044
>>>>>Begin Spectral Data<<<<<
784.041	13.38
784.3	-1.62
784.558	-4.62
784.817	-4.62
785.075	91376.38
785.334	15778.38
785.592	7453.38
785.851	5164.38
786.109	3904.38
786.368	3010.38
786.626	2425.38
786.884	2039.38
787.143	1699.38
787.401	1389.38
787.659	1288.38
787.917	1069.38
788.175	999.38
788.433	880.38
788.691	810.38
788.949	739.38
789.207	697.38
789.465	603.38
789.723	587.38
789.98	543.38
790.238	578.38
790.496	542.38
790.753	502.38
791.011	555.38
791.268	499.38
791.526	493.38
791.783	498.38
792.041	486.38
792.298	406.38
792.556	474.38
792.813	446.38
793.07	421.38
793.327	414.38
793.584	496.38
793.841	402.38
794.099	443.38
794.356	497.38
794.613	388.38
794.869	436.38
795.126	385.38
795.383	379.38
795.64	390.38
795.897	359.38
796.153	389.38
796.41	392.38
796.667	384.38
796.923	380.38
797.18	380.38
797.436	400.38
797.693	360.38
797.949	425.38
798.206	434.38
798.462	349.38
798.718	405.38
798.974	370.38
799.231	420.38
799.487	411.38
799.743	398.38
799.999	421.38
800.255	423.38
800.511	400.38
800.767	438.38
801.023	401.38
801.279	428.38
801.534	450.38
801.79	478.38
802.046	444.38
802.302	543.38
802.557	554.38
802.813	629.38
803.068	684.38
803.324	878.38
803.579	1115.38
803.835	1437.38
804.09	1875.38
804.345	2472.38
804.601	2998.38
804.856	3639.38
805.111	4193.38
805.366	4563.38
805.621	4834.38
805.876	5028.38
806.131	5094.38
806.386	5149.38
806.641	5213.38
806.896	5308.38
807.151	5459.38
807.406	5462.38
807.661	5559.38
807.915	5689.38
808.17	5828.38
808.425	5821.38
808.679	5863.38
808.934	6019.38
809.188	5973.38
809.443	6075.38
809.697	6128.38
809.951	6171.38
810.206	6224.38
810.46	6325.38
810.714	6332.38
810.968	6477.38
811.223	6434.38
811.477	6496.38
811.731	6568.38
811.985	6547.38
812.239	6583.38
812.493	6634.38
812.747	6739.38
813	6650.38
813.254	6708.38
813.508	6736.38
813.762	6722.38
814.015	6738.38
814.269	6825.38
814.522	6949.38
814.776	6998.38
815.03	7048.38
815.283	7167.38
815.536	7310.38
815.79	7456.38
816.043	7488.38
816.296	7570.38
816.55	7693.38
816.803	7788.38
817.056	7946.38
817.309	7947.38
817.562	7993.38
817.815	8117.38
818.068	8166.38
818.321	8189.38
818.574	8285.38
818.827	8444.38
819.079	8553.38
819.332	8831.38
819.585	8865.38
819.838	9036.38
820.09	8952.38
820.343	9126.38
820.595	9080.38
820.848	9175.38
821.1	9270.38
821.353	9223.38
821.605	9217.38
821.857	9268.38
822.11	9092.38
822.362	9119.38
822.614	9133.38
822.866	9219.38
823.118	9093.38
823.37	9250.38
823.622	9294.38
823.874	9303.38
824.126	9369.38
824.378	9321.38
824.63	9306.38
824.882	9408.38
825.134	9426.38
825.385	9314.38
825.637	9315.38
825.888	9267.38
826.14	9292.38
826.392	9242.38
826.643	9166.38
826.895	9209.38
827.146	9082.38
827.397	9051.38
827.649	9195.38
827.9	9063.38
828.151	9137.38
828.402	9149.38
828.653	9204.38
828.905	9196.38
829.156	9256.38
829.407	9139.38
829.658	9301.38
829.909	9320.38
830.159	9373.38
830.41	9337.38
830.661	9261.38
830.912	9229.38
831.162	9125.38
831.413	9198.38
831.664	9247.38
831.914	9191.38
832.165	9209.38
832.415	9217.38
832.666	9184.38
832.916	9205.38
833.167	9130.38
833.417	9298.38
833.667	9160.38
833.917	9092.38
834.168	9202.38
834.418	9217.38
834.668	9087.38
834.918	9085.38
835.168	9050.38
835.418	9001.38
835.668	9006.38
835.918	8996.38
836.167	9000.38
836.417	8881.38
836.667	8939.38
836.917	8973.38
837.166	8941.38
837.416	8987.38
837.666	8944.38
837.915	8899.38
838.165	8962.38
838.414	8873.38
838.663	8834.38
838.913	8912.38
839.162	8852.38
839.411	8966.38
839.661	8845.38
839.91	8845.38
840.159	8840.38
840.408	8864.38
840.657	8917.38
840.906	8925.38
841.155	8930.38
841.404	8928.38
841.653	8935.38
841.902	8885.38
842.15	8947.38
842.399	8955.38
842.648	8954.38
842.897	8940.38
843.145	8754.38
843.394	8845.38
843.642	8793.38
843.891	8769.38
844.139	8652.38
844.388	8580.38
844.636	8546.38
844.884	8663.38
845.133	8597.38
845.381	8616.38
845.629	8607.38
845.877	8568.38
846.125	8562.38
846.373	8590.38
846.621	8537.38
846.869	8568.38
847.117	8500.38
847.365	8527.38
847.613	8458.38
847.861	8439.38
848.108	8520.38
848.356	8448.38
848.604	8458.38
848.851	8429.38
849.099	8433.38
849.346	8474.38
849.594	8552.38
849.841	8642.38
850.089	8675.38
850.336	8604.38
850.583	8665.38
850.831	8674.38
851.078	8592.38
851.325	8527.38
851.572	8674.38
851.819	8564.38
852.066	8366.38
852.313	8215.38
852.56	8171.38
852.807	8058.38
853.054	8138.38
853.301	8157.38
853.548	8221.38
853.794	8287.38
854.041	8293.38
854.288	8283.38
854.534	8480.38
854.781	8380.38
855.028	8354.38
855.274	8395.38
855.52	8305.38
855.767	8314.38
856.013	8400.38
856.26	8665.38
856.506	8281.38
856.752	8254.38
856.998	8209.38
857.244	8276.38
857.49	8305.38
857.736	8370.38
857.982	8372.38
858.228	8384.38
858.474	8276.38
858.72	8202.38
858.966	8157.38
859.212	8022.38
859.458	7946.38
859.703	7899.38
859.949	7784.38
860.195	7782.38
860.44	7770.38
860.686	7753.38
860.931	7748.38
861.177	7684.38
861.422	7705.38
861.667	7551.38
861.913	7576.38
862.158	7598.38
862.403	7635.38
862.648	7645.38
862.893	7722.38
863.138	7636.38
863.384	7641.38
863.629	7658.38
863.873	7606.38
864.118	7638.38
864.363	7490.38
864.608	7577.38
864.853	7553.38
865.098	7507.38
865.342	7463.38
865.587	7411.38
865.832	7455.38
866.076	7480.38
866.321	7409.38
866.565	7354.38
866.81	7326.38
867.054	7362.38
867.298	7341.38
867.543	7314.38
867.787	7327.38
868.031	7367.38
868.275	7351.38
868.519	7351.38
868.764	7370.38
869.008	7346.38
869.252	7358.38
869.496	7328.38
869.739	7345.38
869.983	7318.38
870.227	7475.38
870.471	7407.38
870.715	7487.38
870.958	7487.38
871.202	7519.38
871.446	7481.38
871.689	7514.38
871.933	7540.38
872.176	7554.38
872.42	7470.38
872.663	7420.38
872.906	7518.38
873.15	7497.38
873.393	7462.38
873.636	7505.38
873.879	7474.38
874.122	7397.38
874.366	7272.38
874.609	7239.38
874.852	7098.38
875.095	7081.38
875.337	7067.38
875.58	6885.38
875.823	6984.38
876.066	6957.38
876.309	7001.38
876.551	6869.38
876.794	6842.38
877.037	6888.38
877.279	6806.38
877.522	6806.38
877.764	6848.38
878.007	6721.38
878.249	6825.38
878.491	6714.38
878.734	6822.38
878.976	6758.38
879.218	6692.38
879.46	6720.38
879.702	6672.38
879.945	6565.38
880.187	6436.38
880.429	6566.38
880.671	6504.38
880.912	6510.38
881.154	6431.38
881.396	6361.38
881.638	6412.38
881.88	6394.38
882.121	6438.38
882.363	6363.38
882.605	6413.38
882.846	6407.38
883.088	6443.38
883.329	6413.38
883.571	6529.38
883.812	6621.38
884.053	6853.38
884.295	7093.38
884.536	7317.38
884.777	7215.38
885.018	7167.38
885.259	7157.38
885.5	6974.38
885.742	7230.38
885.982	6917.38
886.223	6916.38
886.464	6792.38
886.705	6620.38
886.946	6588.38
887.187	6438.38
887.428	6344.38
887.668	6214.38
887.909	6129.38
888.15	6041.38
888.39	6039.38
888.631	6018.38
888.871	5954.38
889.111	5855.38
889.352	5847.38
889.592	5726.38
889.833	5735.38
890.073	5699.38
890.313	5741.38
890.553	5571.38
890.793	5598.38
891.033	5572.38
891.273	5513.38
891.513	5576.38
891.753	5586.38
891.993	5509.38
892.233	5550.38
892.473	5677.38
892.713	5588.38
892.952	5514.38
893.192	5570.38
893.432	5545.38
893.671	5628.38
893.911	5564.38
894.15	5539.38
894.39	5452.38
894.629	5488.38
894.869	5397.38
895.108	5418.38
895.347	5336.38
895.587	5384.38
895.826	5320.38
896.065	5315.38
896.304	5337.38
896.543	5390.38
896.782	5282.38
897.021	5290.38
897.26	5261.38
897.499	5339.38
897.738	5368.38
897.977	5304.38
898.216	5303.38
898.454	5243.38
898.693	5218.38
898.932	5221.38
899.17	5141.38
899.409	5183.38
899.647	5137.38
899.886	5161.38
900.124	5200.38
900.363	5193.38
900.601	5209.38
900.839	5238.38
901.078	5309.38
901.316	5321.38
901.554	5387.38
901.792	5449.38
902.03	5432.38
902.268	5456.38
902.506	5476.38
902.744	5363.38
902.982	5376.38
903.22	5264.38
903.458	5123.38
903.695	5095.38
903.933	5008.38
904.171	4850.38
904.409	4801.38
904.646	4766.38
904.884	4639.38
905.121	4646.38
905.359	4582.38
905.596	4535.38
905.833	4498.38
906.071	4493.38
906.308	4457.38
906.545	4494.38
906.783	4429.38
907.02	4475.38
907.257	4334.38
907.494	4432.38
907.731	4398.38
907.968	4385.38
908.205	4367.38
908.442	4323.38
908.679	4354.38
908.915	4275.38
909.152	4280.38
909.389	4194.38
909.626	4222.38
909.862	4164.38
910.099	4151.38
910.335	4181.38
910.572	4137.38
910.808	4117.38
911.045	4055.38
911.281	4074.38
911.518	4128.38
911.754	4060.38
911.99	4059.38
912.226	4008.38
912.463	3981.38
912.699	3913.38
912.935	3915.38
913.171	3847.38
913.407	3833.38
913.643	3868.38
913.879	3835.38
914.114	3782.38
914.35	3750.38
914.586	3740.38
914.822	3646.38
915.057	3753.38
915.293	3593.38
915.529	3616.38
915.764	3661.38
916	3684.38
916.235	3643.38
916.471	3679.38
916.706	3583.38
916.941	3602.38
917.177	3583.38
917.412	3639.38
917.647	3657.38
917.882	3561.38
918.117	3621.38
918.352	3603.38
918.588	3619.38
918.823	3526.38
919.057	3510.38
919.292	3452.38
919.527	3503.38
919.762	3429.38
919.997	3448.38
920.232	3359.38
920.466	3439.38
920.701	3292.38
920.935	3333.38
921.17	3264.38
921.405	3235.38
921.639	3324.38
921.873	3303.38
922.108	3290.38
922.342	3283.38
922.576	3215.38
922.811	3241.38
923.045	3259.38
923.279	3256.38
923.513	3123.38
923.747	3196.38
923.981	3175.38
924.215	3161.38
924.449	3122.38
924.683	3098.38
924.917	3098.38
925.151	3104.38
925.385	3110.38
925.618	3087.38
925.852	3084.38
926.086	3000.38
926.319	3090.38
926.553	3043.38
926.786	3126.38
927.02	3050.38
927.253	3119.38
927.486	3052.38
927.72	3038.38
927.953	3110.38
928.186	3041.38
928.42	3089.38
928.653	3014.38
928.886	2959.38
929.119	3020.38
929.352	3022.38
929.585	3021.38
929.818	2934.38
930.051	2958.38
930.284	2917.38
930.516	2835.38
930.749	2858.38
930.982	2888.38
931.215	2901.38
931.447	2794.38
931.68	2831.38
931.912	2836.38
932.145	2835.38
932.377	2815.38
932.61	2944.38
932.842	2776.38
933.074	2850.38
933.307	2803.38
933.539	2916.38
933.771	2904.38
934.003	2823.38
934.236	2905.38
934.468	2933.38
934.7	2830.38
934.932	2855.38
935.164	2815.38
935.395	2811.38
935.627	2797.38
935.859	2825.38
936.091	2736.38
936.323	2810.38
936.554	2857.38
936.786	2789.38
937.017	2724.38
937.249	2774.38
937.481	2716.38
937.712	2765.38
937.943	2740.38
938.175	2724.38
938.406	2706.38
938.637	2777.38
938.869	2707.38
939.1	2730.38
939.331	2699.38
939.562	2780.38
939.793	2738.38
940.024	2753.38
940.255	2708.38
940.486	2678.38
940.717	2686.38
940.948	2704.38
941.179	2643.38
941.409	2670.38
941.64	2624.38
941.871	2649.38
942.102	2616.38
942.332	2689.38
942.563	2711.38
942.793	2659.38
943.024	2600.38
943.254	2633.38
943.484	2698.38
943.715	2713.38
943.945	2665.38
944.175	2611.38
944.405	2583.38
944.636	2577.38
944.866	2652.38
945.096	2657.38
945.326	2555.38
945.556	2654.38
945.786	2686.38
946.016	2582.38
946.245	2581.38
946.475	2577.38
946.705	2541.38
946.935	2551.38
947.164	2577.38
947.394	2515.38
947.624	2479.38
947.853	2568.38
948.083	2502.38
948.312	2503.38
948.542	2428.38
948.771	2441.38
949	2439.38
949.23	2449.38
949.459	2419.38
949.688	2539.38
949.917	2481.38
950.146	2492.38
950.375	2540.38
950.604	2455.38
950.833	2557.38
951.062	2535.38
951.291	2448.38
951.52	2423.38
951.749	2495.38
951.978	2426.38
952.206	2422.38
952.435	2425.38
952.664	2445.38
952.892	2452.38
953.121	2422.38
953.349	2454.38
953.578	2426.38
953.806	2423.38
954.035	2355.38
954.263	2378.38
954.491	2365.38
954.719	2396.38
954.948	2344.38
955.176	2355.38
955.404	2311.38
955.632	2336.38
955.86	2305.38
956.088	2352.38
956.316	2343.38
956.544	2359.38
956.772	2305.38
956.999	2246.38
957.227	2364.38
957.455	2249.38
957.683	2261.38
957.91	2269.38
958.138	2219.38
958.365	2207.38
958.593	2198.38
958.82	2167.38
959.048	2242.38
959.275	2226.38
959.502	2199.38
959.73	2197.38
959.957	2232.38
960.184	2242.38
960.411	2217.38
960.638	2290.38
960.865	2208.38
961.092	2223.38
961.319	2146.38
961.546	2243.38
961.773	2189.38
962	2163.38
962.227	2232.38
962.454	2180.38
962.68	2142.38
962.907	2222.38
963.134	2123.38
963.36	2175.38
963.587	2173.38
963.813	2097.38
964.04	2156.38
964.266	2097.38
964.493	2148.38
964.719	2131.38
964.945	2130.38
965.171	2015.38
965.398	2085.38
965.624	2097.38
965.85	2042.38
966.076	2042.38
966.302	2069.38
966.528	2031.38
966.754	2083.38
966.98	2073.38
967.206	2047.38
967.431	1990.38
967.657	2054.38
967.883	2065.38
968.109	2071.38
968.334	1960.38
968.56	1967.38
968.785	1993.38
969.011	1987.38
969.236	2017.38
969.462	1958.38
969.687	1973.38
969.912	2003.38
970.138	2045.38
970.363	1937.38
970.588	1971.38
970.813	1945.38
971.038	1924.38
971.263	1974.38
971.488	1966.38
971.713	1991.38
971.938	1966.38
972.163	1892.38
972.388	1944.38
972.613	1850.38
972.838	1931.38
973.062	1875.38
973.287	1910.38
973.512	1825.38
973.736	1876.38
973.961	1868.38
974.185	1838.38
974.41	1889.38
974.634	1812.38
974.858	1785.38
975.083	1824.38
975.307	1872.38
975.531	1791.38
975.755	1776.38
975.98	1777.38
976.204	1754.38
976.428	1714.38
976.652	1721.38
976.876	1700.38
977.1	1743.38
977.324	1709.38
977.547	1749.38
977.771	1745.38
977.995	1703.38
978.219	1677.38
978.442	1777.38
978.666	1736.38
978.89	1723.38
979.113	1737.38
979.337	1705.38
979.56	1685.38
979.783	1772.38
980.007	1684.38
980.23	1695.38
980.453	1700.38
980.677	1699.38
980.9	1692.38
981.123	1596.38
981.346	1700.38
981.569	1677.38
981.792	1705.38
982.015	1676.38
982.238	1632.38
982.461	1639.38
982.684	1633.38
982.907	1618.38
983.129	1611.38
983.352	1662.38
983.575	1622.38
983.797	1613.38
984.02	1585.38
984.242	1580.38
984.465	1600.38
984.687	1610.38
984.91	1637.38
985.132	1610.38
985.354	1635.38
985.577	1588.38
985.799	1569.38
986.021	1506.38
986.243	1531.38
986.465	1555.38
986.687	1618.38
986.909	1624.38
987.131	1589.38
987.353	1553.38
987.575	1589.38
987.797	1554.38
988.019	1498.38
988.241	1550.38
988.462	1499.38
988.684	1586.38
988.906	1577.38
989.127	1608.38
989.349	1491.38
989.57	1527.38
989.792	1577.38
990.013	1559.38
990.234	1579.38
990.456	1598.38
990.677	1561.38
990.898	1529.38
991.119	1542.38
991.341	1571.38
991.562	1506.38
991.783	1532.38
992.004	1468.38
992.225	1458.38
992.446	1507.38
992.667	1425.38
992.887	1521.38
993.108	1413.38
993.329	1535.38
993.55	1474.38
993.77	1454.38
993.991	1434.38
994.212	1477.38
994.432	1461.38
994.653	1470.38
994.873	1462.38
995.093	1349.38
995.314	1375.38
995.534	1488.38
995.754	1485.38
995.975	1500.38
996.195	1408.38
996.415	1439.38
996.635	1466.38
996.855	1452.38
997.075	1420.38
997.295	1435.38
997.515	1400.38
997.735	1493.38
997.955	1439.38
998.174	1456.38
998.394	1400.38
998.614	1455.38
998.834	1426.38
999.053	1498.38
999.273	1463.38
999.492	1489.38
999.712	1429.38
999.931	1380.38
1000.151	1433.38
1000.37	1419.38
1000.589	1456.38
1000.809	1369.38
1001.028	1533.38
1001.247	1431.38
1001.466	1327.38
1001.685	1456.38
1001.904	1410.38
1002.123	1394.38
1002.342	1422.38
1002.561	1338.38
1002.78	1374.38
1002.999	1465.38
1003.218	1407.38
1003.436	1367.38
1003.655	1434.38
1003.874	1354.38
1004.092	1368.38
1004.311	1439.38
1004.53	1396.38
1004.748	1504.38
1004.966	1404.38
1005.185	1410.38
1005.403	1445.38
1005.622	1398.38
1005.84	1475.38
1006.058	1395.38
1006.276	1422.38
1006.494	1897.38
1006.712	1415.38
1006.931	1504.38
1007.149	1398.38
1007.367	1420.38
1007.584	1441.38
1007.802	1514.38
1008.02	1426.38
1008.238	1556.38
1008.456	1547.38
1008.673	1461.38
1008.891	1576.38
1009.109	1533.38
1009.326	1625.38
1009.544	1735.38
1009.761	1612.38
1009.979	1770.38
1010.196	1811.38
1010.413	1960.38
1010.631	2040.38
1010.848	2109.38
1011.065	2146.38
1011.282	2075.38
1011.5	2037.38
1011.717	2140.38
1011.934	2065.38
1012.151	2110.38
1012.368	2110.38
1012.585	2046.38
1012.801	2131.38
1013.018	2051.38
1013.235	2042.38
1013.452	2098.38
1013.669	2084.38
1013.885	2074.38
1014.102	2152.38
1014.318	2108.38
1014.535	2070.38
1014.751	2093.38
1014.968	2088.38
1015.184	2077.38
1015.401	2012.38
1015.617	2010.38
1015.833	1984.38
1016.049	1971.38
1016.266	1961.38
1016.482	1949.38
1016.698	1843.38
1016.914	1899.38
1017.13	1853.38
1017.346	1847.38
1017.562	1922.38
1017.778	1858.38
1017.993	1814.38
1018.209	1846.38
1018.425	1871.38
1018.641	1791.38
1018.856	1774.38
1019.072	1805.38
1019.288	1835.38
1019.503	1807.38
1019.719	1730.38
1019.934	1741.38
1020.149	1819.38
1020.365	1740.38
1020.58	1681.38
1020.795	1689.38
1021.011	1603.38
1021.226	1559.38
1021.441	1575.38
1021.656	1489.38
1021.871	1446.38
1022.086	1415.38
1022.301	1411.38
1022.516	1383.38
1022.731	1429.38
1022.946	1310.38
1023.16	1306.38
1023.375	1295.38
1023.59	1254.38
1023.804	1212.38
1024.019	1272.38
1024.234	1147.38
1024.448	1181.38
1024.663	1097.38
1024.877	1107.38
1025.092	1113.38
1025.306	1122.38
1025.52	1020.38
1025.734	1088.38
1025.949	1000.38
1026.163	974.38
1026.377	925.38
1026.591	979.38
1026.805	895.38
1027.019	885.38
1027.233	847.38
1027.447	801.38
1027.661	903.38
1027.875	837.38
1028.088	836.38
1028.302	765.38
1028.516	746.38
1028.73	736.38
1028.943	723.38
1029.157	684.38
1029.37	643.38
1029.584	-1.62
1029.797	2.38
1030.011	0.38
1030.224	-3.62
