Data from QEP037381__85__13-41-14-905.txt Node

Date: Wed Dec 21 13:41:14 EST 2022
User: dcclab
Spectrometer: QEP03738
Trigger mode: 4
Integration Time (sec): 1.000000E1
Scans to average: 1
Electric dark correction enabled: true
Nonlinearity correction enabled: false
Boxcar width: 0
XAxis mode: Wavelengths
Number of Pixels in Spectrum: 1044
>>>>>Begin Spectral Data<<<<<
784.041	14.12
784.3	0.12
784.558	-0.88
784.817	-2.88
785.075	88489.12
785.334	15135.12
785.592	7006.12
785.851	4871.12
786.109	3699.12
786.368	2867.12
786.626	2315.12
786.884	1930.12
787.143	1647.12
787.401	1340.12
787.659	1237.12
787.917	1059.12
788.175	974.12
788.433	866.12
788.691	770.12
788.949	738.12
789.207	701.12
789.465	589.12
789.723	583.12
789.98	545.12
790.238	580.12
790.496	537.12
790.753	516.12
791.011	562.12
791.268	508.12
791.526	493.12
791.783	515.12
792.041	493.12
792.298	409.12
792.556	491.12
792.813	467.12
793.07	450.12
793.327	430.12
793.584	508.12
793.841	447.12
794.099	447.12
794.356	504.12
794.613	418.12
794.869	450.12
795.126	420.12
795.383	402.12
795.64	436.12
795.897	375.12
796.153	428.12
796.41	419.12
796.667	416.12
796.923	396.12
797.18	412.12
797.436	450.12
797.693	403.12
797.949	456.12
798.206	486.12
798.462	388.12
798.718	461.12
798.974	426.12
799.231	465.12
799.487	459.12
799.743	453.12
799.999	491.12
800.255	490.12
800.511	472.12
800.767	516.12
801.023	500.12
801.279	514.12
801.534	545.12
801.79	597.12
802.046	617.12
802.302	746.12
802.557	843.12
802.813	1047.12
803.068	1254.12
803.324	1703.12
803.579	2295.12
803.835	3095.12
804.09	4240.12
804.345	5426.12
804.601	6777.12
804.856	8122.12
805.111	9367.12
805.366	10358.12
805.621	11105.12
805.876	11576.12
806.131	12049.12
806.386	12226.12
806.641	12431.12
806.896	12484.12
807.151	12902.12
807.406	12917.12
807.661	13239.12
807.915	13513.12
808.17	13748.12
808.425	13949.12
808.679	13980.12
808.934	14233.12
809.188	14273.12
809.443	14505.12
809.697	14657.12
809.951	14680.12
810.206	14878.12
810.46	15002.12
810.714	15148.12
810.968	15337.12
811.223	15293.12
811.477	15550.12
811.731	15690.12
811.985	15680.12
812.239	15716.12
812.493	15828.12
812.747	15884.12
813	15834.12
813.254	16014.12
813.508	16124.12
813.762	16223.12
814.015	16237.12
814.269	16433.12
814.522	16571.12
814.776	16702.12
815.03	16994.12
815.283	17109.12
815.536	17408.12
815.79	17760.12
816.043	17931.12
816.296	18285.12
816.55	18542.12
816.803	18626.12
817.056	18858.12
817.309	19081.12
817.562	19377.12
817.815	19431.12
818.068	19626.12
818.321	19637.12
818.574	20056.12
818.827	20280.12
819.079	20494.12
819.332	20969.12
819.585	21269.12
819.838	21501.12
820.09	21591.12
820.343	21672.12
820.595	21764.12
820.848	21897.12
821.1	22094.12
821.353	22011.12
821.605	22019.12
821.857	22069.12
822.11	21783.12
822.362	21809.12
822.614	21920.12
822.866	21706.12
823.118	21723.12
823.37	21982.12
823.622	21932.12
823.874	22106.12
824.126	22119.12
824.378	22129.12
824.63	22138.12
824.882	22294.12
825.134	22253.12
825.385	22206.12
825.637	22113.12
825.888	22036.12
826.14	22064.12
826.392	21985.12
826.643	21871.12
826.895	21775.12
827.146	21716.12
827.397	21649.12
827.649	21704.12
827.9	21713.12
828.151	21728.12
828.402	21813.12
828.653	21922.12
828.905	21902.12
829.156	22024.12
829.407	21954.12
829.658	22020.12
829.909	22168.12
830.159	22235.12
830.41	22087.12
830.661	21990.12
830.912	21695.12
831.162	21782.12
831.413	21825.12
831.664	21675.12
831.914	21595.12
832.165	21573.12
832.415	21596.12
832.666	21611.12
832.916	21623.12
833.167	21634.12
833.417	21669.12
833.667	21573.12
833.917	21507.12
834.168	21538.12
834.418	21455.12
834.668	21457.12
834.918	21244.12
835.168	21187.12
835.418	21084.12
835.668	21038.12
835.918	20990.12
836.167	20866.12
836.417	20853.12
836.667	20926.12
836.917	20948.12
837.166	20864.12
837.416	20966.12
837.666	21057.12
837.915	20969.12
838.165	20793.12
838.414	20885.12
838.663	20856.12
838.913	20940.12
839.162	20798.12
839.411	20838.12
839.661	20687.12
839.91	20692.12
840.159	20633.12
840.408	20759.12
840.657	20748.12
840.906	20861.12
841.155	20701.12
841.404	20738.12
841.653	20699.12
841.902	20901.12
842.15	20891.12
842.399	20880.12
842.648	20993.12
842.897	20818.12
843.145	20700.12
843.394	20500.12
843.642	20358.12
843.891	20322.12
844.139	20243.12
844.388	20106.12
844.636	19934.12
844.884	20089.12
845.133	20044.12
845.381	20080.12
845.629	20003.12
845.877	20030.12
846.125	20006.12
846.373	20017.12
846.621	20015.12
846.869	19971.12
847.117	19754.12
847.365	19632.12
847.613	19623.12
847.861	19504.12
848.108	19517.12
848.356	19478.12
848.604	19561.12
848.851	19453.12
849.099	19532.12
849.346	19592.12
849.594	19691.12
849.841	19721.12
850.089	19849.12
850.336	19869.12
850.583	19988.12
850.831	19791.12
851.078	19717.12
851.325	19674.12
851.572	19742.12
851.819	19599.12
852.066	19235.12
852.313	18870.12
852.56	18711.12
852.807	18592.12
853.054	18597.12
853.301	18607.12
853.548	18676.12
853.794	18761.12
854.041	18831.12
854.288	18944.12
854.534	19129.12
854.781	19137.12
855.028	19058.12
855.274	19090.12
855.52	19052.12
855.767	18949.12
856.013	19059.12
856.26	19299.12
856.506	18664.12
856.752	18702.12
856.998	18781.12
857.244	18784.12
857.49	18879.12
857.736	19029.12
857.982	19032.12
858.228	18926.12
858.474	18576.12
858.72	18483.12
858.966	18372.12
859.212	18110.12
859.458	18011.12
859.703	17806.12
859.949	17646.12
860.195	17583.12
860.44	17665.12
860.686	17517.12
860.931	17478.12
861.177	17452.12
861.422	17233.12
861.667	17084.12
861.913	17086.12
862.158	17111.12
862.403	17096.12
862.648	17232.12
862.893	17180.12
863.138	17187.12
863.384	17130.12
863.629	17084.12
863.873	17186.12
864.118	17216.12
864.363	17007.12
864.608	16997.12
864.853	16940.12
865.098	16721.12
865.342	16879.12
865.587	16648.12
865.832	16756.12
866.076	16671.12
866.321	16651.12
866.565	16565.12
866.81	16470.12
867.054	16570.12
867.298	16564.12
867.543	16344.12
867.787	16417.12
868.031	16410.12
868.275	16427.12
868.519	16408.12
868.764	16328.12
869.008	16290.12
869.252	16446.12
869.496	16318.12
869.739	16292.12
869.983	16342.12
870.227	16351.12
870.471	16294.12
870.715	16482.12
870.958	16593.12
871.202	16606.12
871.446	16634.12
871.689	16562.12
871.933	16593.12
872.176	16556.12
872.42	16492.12
872.663	16473.12
872.906	16559.12
873.15	16512.12
873.393	16559.12
873.636	16576.12
873.879	16271.12
874.122	16233.12
874.366	15902.12
874.609	15748.12
874.852	15683.12
875.095	15509.12
875.337	15369.12
875.58	15283.12
875.823	15257.12
876.066	15190.12
876.309	15189.12
876.551	15066.12
876.794	15039.12
877.037	15063.12
877.279	14950.12
877.522	14951.12
877.764	14913.12
878.007	14931.12
878.249	14854.12
878.491	14846.12
878.734	14803.12
878.976	14807.12
879.218	14641.12
879.46	14567.12
879.702	14510.12
879.945	14387.12
880.187	14275.12
880.429	14195.12
880.671	14062.12
880.912	14070.12
881.154	13940.12
881.396	13893.12
881.638	13956.12
881.88	13946.12
882.121	13877.12
882.363	13884.12
882.605	13917.12
882.846	13977.12
883.088	13920.12
883.329	13964.12
883.571	14013.12
883.812	14294.12
884.053	14695.12
884.295	15095.12
884.536	15375.12
884.777	15256.12
885.018	15186.12
885.259	15082.12
885.5	14910.12
885.742	14929.12
885.982	14862.12
886.223	14578.12
886.464	14560.12
886.705	14316.12
886.946	14197.12
887.187	13857.12
887.428	13582.12
887.668	13340.12
887.909	13163.12
888.15	12959.12
888.39	12903.12
888.631	12764.12
888.871	12671.12
889.111	12568.12
889.352	12387.12
889.592	12297.12
889.833	12182.12
890.073	12121.12
890.313	12056.12
890.553	11929.12
890.793	11940.12
891.033	11803.12
891.273	11739.12
891.513	11653.12
891.753	11763.12
891.993	11690.12
892.233	11807.12
892.473	11881.12
892.713	11809.12
892.952	11721.12
893.192	11787.12
893.432	11726.12
893.671	11731.12
893.911	11656.12
894.15	11611.12
894.39	11450.12
894.629	11507.12
894.869	11437.12
895.108	11379.12
895.347	11256.12
895.587	11273.12
895.826	11206.12
896.065	11170.12
896.304	11274.12
896.543	11195.12
896.782	11155.12
897.021	11106.12
897.26	11105.12
897.499	11067.12
897.738	11122.12
897.977	10987.12
898.216	10922.12
898.454	10857.12
898.693	10776.12
898.932	10811.12
899.17	10715.12
899.409	10687.12
899.647	10673.12
899.886	10692.12
900.124	10705.12
900.363	10660.12
900.601	10799.12
900.839	10837.12
901.078	10902.12
901.316	10960.12
901.554	11071.12
901.792	11089.12
902.03	11165.12
902.268	11165.12
902.506	11127.12
902.744	10972.12
902.982	10932.12
903.22	10744.12
903.458	10598.12
903.695	10351.12
903.933	10243.12
904.171	9905.12
904.409	9817.12
904.646	9674.12
904.884	9546.12
905.121	9461.12
905.359	9258.12
905.596	9255.12
905.833	9035.12
906.071	9076.12
906.308	9094.12
906.545	9012.12
906.783	8978.12
907.02	8989.12
907.257	8904.12
907.494	8909.12
907.731	8910.12
907.968	8912.12
908.205	8843.12
908.442	8727.12
908.679	8706.12
908.915	8619.12
909.152	8586.12
909.389	8436.12
909.626	8373.12
909.862	8306.12
910.099	8282.12
910.335	8345.12
910.572	8245.12
910.808	8160.12
911.045	8150.12
911.281	8124.12
911.518	8183.12
911.754	8041.12
911.99	8050.12
912.226	7936.12
912.463	7862.12
912.699	7868.12
912.935	7795.12
913.171	7718.12
913.407	7701.12
913.643	7641.12
913.879	7541.12
914.114	7513.12
914.35	7437.12
914.586	7322.12
914.822	7257.12
915.057	7352.12
915.293	7135.12
915.529	7155.12
915.764	7208.12
916	7190.12
916.235	7125.12
916.471	7177.12
916.706	7035.12
916.941	7060.12
917.177	7063.12
917.412	7082.12
917.647	7065.12
917.882	7009.12
918.117	7018.12
918.352	6997.12
918.588	7028.12
918.823	6887.12
919.057	6835.12
919.292	6652.12
919.527	6748.12
919.762	6617.12
919.997	6647.12
920.232	6537.12
920.466	6531.12
920.701	6382.12
920.935	6376.12
921.17	6344.12
921.405	6310.12
921.639	6311.12
921.873	6232.12
922.108	6264.12
922.342	6208.12
922.576	6163.12
922.811	6161.12
923.045	6214.12
923.279	6185.12
923.513	5979.12
923.747	6093.12
923.981	6073.12
924.215	5945.12
924.449	5919.12
924.683	5820.12
924.917	5867.12
925.151	5855.12
925.385	5930.12
925.618	5766.12
925.852	5809.12
926.086	5769.12
926.319	5808.12
926.553	5761.12
926.786	5743.12
927.02	5824.12
927.253	5752.12
927.486	5726.12
927.72	5701.12
927.953	5712.12
928.186	5674.12
928.42	5658.12
928.653	5599.12
928.886	5606.12
929.119	5608.12
929.352	5571.12
929.585	5542.12
929.818	5465.12
930.051	5483.12
930.284	5427.12
930.516	5326.12
930.749	5290.12
930.982	5342.12
931.215	5316.12
931.447	5247.12
931.68	5213.12
931.912	5213.12
932.145	5239.12
932.377	5273.12
932.61	5305.12
932.842	5120.12
933.074	5180.12
933.307	5173.12
933.539	5245.12
933.771	5255.12
934.003	5194.12
934.236	5201.12
934.468	5205.12
934.7	5121.12
934.932	5188.12
935.164	5108.12
935.395	5065.12
935.627	5089.12
935.859	5041.12
936.091	5037.12
936.323	5055.12
936.554	5073.12
936.786	4998.12
937.017	4927.12
937.249	4975.12
937.481	4911.12
937.712	4955.12
937.943	4958.12
938.175	4876.12
938.406	4878.12
938.637	4982.12
938.869	4821.12
939.1	4894.12
939.331	4804.12
939.562	4874.12
939.793	4865.12
940.024	4845.12
940.255	4868.12
940.486	4773.12
940.717	4754.12
940.948	4723.12
941.179	4702.12
941.409	4677.12
941.64	4666.12
941.871	4705.12
942.102	4715.12
942.332	4626.12
942.563	4754.12
942.793	4728.12
943.024	4602.12
943.254	4677.12
943.484	4722.12
943.715	4669.12
943.945	4628.12
944.175	4582.12
944.405	4583.12
944.636	4602.12
944.866	4633.12
945.096	4643.12
945.326	4515.12
945.556	4601.12
945.786	4617.12
946.016	4524.12
946.245	4502.12
946.475	4461.12
946.705	4441.12
946.935	4457.12
947.164	4359.12
947.394	4349.12
947.624	4364.12
947.853	4384.12
948.083	4366.12
948.312	4306.12
948.542	4247.12
948.771	4245.12
949	4281.12
949.23	4225.12
949.459	4236.12
949.688	4309.12
949.917	4241.12
950.146	4267.12
950.375	4304.12
950.604	4198.12
950.833	4238.12
951.062	4219.12
951.291	4193.12
951.52	4147.12
951.749	4202.12
951.978	4118.12
952.206	4101.12
952.435	4115.12
952.664	4100.12
952.892	4156.12
953.121	4149.12
953.349	4130.12
953.578	4076.12
953.806	4049.12
954.035	3967.12
954.263	4033.12
954.491	4008.12
954.719	3990.12
954.948	3926.12
955.176	3885.12
955.404	3857.12
955.632	3891.12
955.86	3940.12
956.088	3861.12
956.316	3888.12
956.544	3883.12
956.772	3811.12
956.999	3812.12
957.227	3864.12
957.455	3760.12
957.683	3742.12
957.91	3755.12
958.138	3650.12
958.365	3675.12
958.593	3683.12
958.82	3609.12
959.048	3669.12
959.275	3614.12
959.502	3618.12
959.73	3606.12
959.957	3635.12
960.184	3657.12
960.411	3577.12
960.638	3609.12
960.865	3576.12
961.092	3619.12
961.319	3501.12
961.546	3617.12
961.773	3688.12
962	3562.12
962.227	3574.12
962.454	3517.12
962.68	3513.12
962.907	3513.12
963.134	3482.12
963.36	3464.12
963.587	3476.12
963.813	3375.12
964.04	3434.12
964.266	3380.12
964.493	3432.12
964.719	3408.12
964.945	3407.12
965.171	3287.12
965.398	3337.12
965.624	3345.12
965.85	3299.12
966.076	3280.12
966.302	3269.12
966.528	3234.12
966.754	3270.12
966.98	3215.12
967.206	3264.12
967.431	3121.12
967.657	3270.12
967.883	3208.12
968.109	3199.12
968.334	3126.12
968.56	3137.12
968.785	3139.12
969.011	3103.12
969.236	3158.12
969.462	3110.12
969.687	3118.12
969.912	3158.12
970.138	3109.12
970.363	3060.12
970.588	3097.12
970.813	3053.12
971.038	3023.12
971.263	3051.12
971.488	3031.12
971.713	3036.12
971.938	3055.12
972.163	2962.12
972.388	2967.12
972.613	2949.12
972.838	2938.12
973.062	2928.12
973.287	2940.12
973.512	2847.12
973.736	2913.12
973.961	2853.12
974.185	2832.12
974.41	2864.12
974.634	2814.12
974.858	2781.12
975.083	2785.12
975.307	2827.12
975.531	2769.12
975.755	2670.12
975.98	2741.12
976.204	2656.12
976.428	2641.12
976.652	2664.12
976.876	2676.12
977.1	2667.12
977.324	2585.12
977.547	2656.12
977.771	2648.12
977.995	2595.12
978.219	2564.12
978.442	2689.12
978.666	2605.12
978.89	2594.12
979.113	2580.12
979.337	2580.12
979.56	2550.12
979.783	2652.12
980.007	2521.12
980.23	2558.12
980.453	2497.12
980.677	2528.12
980.9	2504.12
981.123	2413.12
981.346	2518.12
981.569	2478.12
981.792	2486.12
982.015	2442.12
982.238	2400.12
982.461	2458.12
982.684	2366.12
982.907	2382.12
983.129	2356.12
983.352	2433.12
983.575	2381.12
983.797	2388.12
984.02	2350.12
984.242	2362.12
984.465	2374.12
984.687	2374.12
984.91	2404.12
985.132	2323.12
985.354	2357.12
985.577	2329.12
985.799	2295.12
986.021	2234.12
986.243	2265.12
986.465	2271.12
986.687	2315.12
986.909	2330.12
987.131	2253.12
987.353	2228.12
987.575	2249.12
987.797	2210.12
988.019	2191.12
988.241	2187.12
988.462	2170.12
988.684	2237.12
988.906	2243.12
989.127	2282.12
989.349	2183.12
989.57	2162.12
989.792	2212.12
990.013	2224.12
990.234	2181.12
990.456	2232.12
990.677	2177.12
990.898	2154.12
991.119	2167.12
991.341	2183.12
991.562	2095.12
991.783	2121.12
992.004	2074.12
992.225	2029.12
992.446	2109.12
992.667	2026.12
992.887	2102.12
993.108	1955.12
993.329	2122.12
993.55	2045.12
993.77	1992.12
993.991	1980.12
994.212	1994.12
994.432	2013.12
994.653	2002.12
994.873	1987.12
995.093	1866.12
995.314	1968.12
995.534	1999.12
995.754	2012.12
995.975	2047.12
996.195	1922.12
996.415	1951.12
996.635	1918.12
996.855	1961.12
997.075	1949.12
997.295	1945.12
997.515	1924.12
997.735	1983.12
997.955	1952.12
998.174	1908.12
998.394	1923.12
998.614	1942.12
998.834	1895.12
999.053	1992.12
999.273	1911.12
999.492	2004.12
999.712	1898.12
999.931	1858.12
1000.151	1902.12
1000.37	1899.12
1000.589	1901.12
1000.809	1842.12
1001.028	1948.12
1001.247	1874.12
1001.466	1758.12
1001.685	1874.12
1001.904	1843.12
1002.123	1842.12
1002.342	1824.12
1002.561	1779.12
1002.78	1773.12
1002.999	1844.12
1003.218	1797.12
1003.436	1758.12
1003.655	1807.12
1003.874	1751.12
1004.092	1778.12
1004.311	1832.12
1004.53	1767.12
1004.748	1860.12
1004.966	1753.12
1005.185	1808.12
1005.403	1800.12
1005.622	1763.12
1005.84	1861.12
1006.058	1743.12
1006.276	1766.12
1006.494	2244.12
1006.712	1760.12
1006.931	1847.12
1007.149	1771.12
1007.367	1763.12
1007.584	1818.12
1007.802	1845.12
1008.02	1790.12
1008.238	1944.12
1008.456	1893.12
1008.673	1789.12
1008.891	1923.12
1009.109	1906.12
1009.326	1972.12
1009.544	2069.12
1009.761	2008.12
1009.979	2092.12
1010.196	2160.12
1010.413	2292.12
1010.631	2416.12
1010.848	2486.12
1011.065	2522.12
1011.282	2518.12
1011.5	2421.12
1011.717	2509.12
1011.934	2430.12
1012.151	2441.12
1012.368	2441.12
1012.585	2382.12
1012.801	2448.12
1013.018	2428.12
1013.235	2374.12
1013.452	2434.12
1013.669	2409.12
1013.885	2469.12
1014.102	2515.12
1014.318	2451.12
1014.535	2374.12
1014.751	2424.12
1014.968	2418.12
1015.184	2437.12
1015.401	2361.12
1015.617	2333.12
1015.833	2283.12
1016.049	2261.12
1016.266	2242.12
1016.482	2240.12
1016.698	2156.12
1016.914	2212.12
1017.13	2132.12
1017.346	2138.12
1017.562	2225.12
1017.778	2144.12
1017.993	2080.12
1018.209	2184.12
1018.425	2128.12
1018.641	2082.12
1018.856	2071.12
1019.072	2078.12
1019.288	2111.12
1019.503	2114.12
1019.719	1994.12
1019.934	2019.12
1020.149	2088.12
1020.365	1987.12
1020.58	1903.12
1020.795	1932.12
1021.011	1877.12
1021.226	1798.12
1021.441	1841.12
1021.656	1735.12
1021.871	1632.12
1022.086	1628.12
1022.301	1612.12
1022.516	1582.12
1022.731	1626.12
1022.946	1532.12
1023.16	1509.12
1023.375	1451.12
1023.59	1445.12
1023.804	1387.12
1024.019	1506.12
1024.234	1313.12
1024.448	1374.12
1024.663	1267.12
1024.877	1275.12
1025.092	1272.12
1025.306	1274.12
1025.52	1164.12
1025.734	1227.12
1025.949	1142.12
1026.163	1098.12
1026.377	1049.12
1026.591	1102.12
1026.805	1028.12
1027.019	993.12
1027.233	962.12
1027.447	920.12
1027.661	1017.12
1027.875	962.12
1028.088	936.12
1028.302	856.12
1028.516	842.12
1028.73	848.12
1028.943	823.12
1029.157	762.12
1029.37	724.12
1029.584	-2.88
1029.797	-2.88
1030.011	-1.88
1030.224	-2.88
