Data from QEP037381__161__13-53-54-868.txt Node

Date: Wed Dec 21 13:53:54 EST 2022
User: dcclab
Spectrometer: QEP03738
Trigger mode: 4
Integration Time (sec): 1.000000E1
Scans to average: 1
Electric dark correction enabled: true
Nonlinearity correction enabled: false
Boxcar width: 0
XAxis mode: Wavelengths
Number of Pixels in Spectrum: 1044
>>>>>Begin Spectral Data<<<<<
784.041	12
784.3	1
784.558	-2
784.817	-3
785.075	87238
785.334	15095
785.592	7101
785.851	4919
786.109	3728
786.368	2887
786.626	2335
786.884	1980
787.143	1656
787.401	1350
787.659	1219
787.917	1057
788.175	971
788.433	853
788.691	772
788.949	723
789.207	682
789.465	598
789.723	576
789.98	533
790.238	578
790.496	530
790.753	502
791.011	551
791.268	476
791.526	481
791.783	497
792.041	481
792.298	398
792.556	470
792.813	455
793.07	423
793.327	417
793.584	496
793.841	418
794.099	439
794.356	486
794.613	387
794.869	437
795.126	401
795.383	374
795.64	387
795.897	360
796.153	401
796.41	395
796.667	378
796.923	393
797.18	382
797.436	415
797.693	361
797.949	420
798.206	439
798.462	369
798.718	426
798.974	380
799.231	423
799.487	405
799.743	417
799.999	434
800.255	429
800.511	396
800.767	452
801.023	440
801.279	447
801.534	461
801.79	491
802.046	490
802.302	574
802.557	576
802.813	667
803.068	741
803.324	959
803.579	1211
803.835	1635
804.09	2272
804.345	2889
804.601	3722
804.856	4626
805.111	5397
805.366	5887
805.621	6239
805.876	6554
806.131	6697
806.386	6741
806.641	6871
806.896	6918
807.151	7155
807.406	7175
807.661	7346
807.915	7458
808.17	7580
808.425	7644
808.679	7707
808.934	7887
809.188	7844
809.443	8012
809.697	8129
809.951	8118
810.206	8174
810.46	8326
810.714	8367
810.968	8559
811.223	8507
811.477	8667
811.731	8676
811.985	8672
812.239	8768
812.493	8865
812.747	8909
813	8851
813.254	8939
813.508	9007
813.762	8975
814.015	9053
814.269	9174
814.522	9191
814.776	9336
815.03	9525
815.283	9593
815.536	9716
815.79	9984
816.043	10034
816.296	10195
816.55	10248
816.803	10430
817.056	10647
817.309	10656
817.562	10811
817.815	10937
818.068	11005
818.321	11094
818.574	11318
818.827	11475
819.079	11627
819.332	11927
819.585	11973
819.838	12199
820.09	12259
820.343	12318
820.595	12434
820.848	12551
821.1	12508
821.353	12613
821.605	12556
821.857	12577
822.11	12495
822.362	12490
822.614	12503
822.866	12530
823.118	12471
823.37	12675
823.622	12666
823.874	12783
824.126	12830
824.378	12775
824.63	12833
824.882	12869
825.134	12827
825.385	12822
825.637	12747
825.888	12771
826.14	12745
826.392	12726
826.643	12640
826.895	12671
827.146	12651
827.397	12546
827.649	12620
827.9	12528
828.151	12574
828.402	12625
828.653	12716
828.905	12783
829.156	12830
829.407	12784
829.658	12825
829.909	12861
830.159	12829
830.41	12741
830.661	12730
830.912	12587
831.162	12624
831.413	12555
831.664	12636
831.914	12591
832.165	12631
832.415	12612
832.666	12679
832.916	12730
833.167	12573
833.417	12717
833.667	12561
833.917	12543
834.168	12608
834.418	12643
834.668	12552
834.918	12486
835.168	12446
835.418	12383
835.668	12417
835.918	12438
836.167	12405
836.417	12284
836.667	12477
836.917	12366
837.166	12376
837.416	12412
837.666	12271
837.915	12291
838.165	12290
838.414	12241
838.663	12170
838.913	12208
839.162	12206
839.411	12327
839.661	12150
839.91	12219
840.159	12193
840.408	12249
840.657	12270
840.906	12317
841.155	12294
841.404	12227
841.653	12272
841.902	12182
842.15	12233
842.399	12271
842.648	12277
842.897	12232
843.145	12169
843.394	12110
843.642	12073
843.891	12091
844.139	11965
844.388	11927
844.636	11873
844.884	11866
845.133	11795
845.381	11819
845.629	11934
845.877	11867
846.125	11872
846.373	11867
846.621	11860
846.869	11916
847.117	11841
847.365	11728
847.613	11590
847.861	11695
848.108	11659
848.356	11557
848.604	11585
848.851	11693
849.099	11717
849.346	11751
849.594	11806
849.841	11888
850.089	11860
850.336	11913
850.583	11925
850.831	11801
851.078	11801
851.325	11742
851.572	11757
851.819	11688
852.066	11467
852.313	11323
852.56	11237
852.807	11195
853.054	11271
853.301	11175
853.548	11214
853.794	11330
854.041	11358
854.288	11397
854.534	11560
854.781	11484
855.028	11503
855.274	11555
855.52	11451
855.767	11495
856.013	11381
856.26	11642
856.506	11281
856.752	11315
856.998	11305
857.244	11323
857.49	11468
857.736	11394
857.982	11409
858.228	11405
858.474	11310
858.72	11266
858.966	11204
859.212	11078
859.458	10912
859.703	10841
859.949	10751
860.195	10792
860.44	10670
860.686	10607
860.931	10679
861.177	10568
861.422	10623
861.667	10524
861.913	10583
862.158	10577
862.403	10619
862.648	10703
862.893	10646
863.138	10690
863.384	10632
863.629	10726
863.873	10674
864.118	10515
864.363	10603
864.608	10599
864.853	10523
865.098	10454
865.342	10411
865.587	10393
865.832	10350
866.076	10389
866.321	10368
866.565	10324
866.81	10278
867.054	10246
867.298	10260
867.543	10256
867.787	10284
868.031	10204
868.275	10283
868.519	10233
868.764	10192
869.008	10135
869.252	10250
869.496	10177
869.739	10205
869.983	10145
870.227	10186
870.471	10151
870.715	10257
870.958	10260
871.202	10247
871.446	10243
871.689	10248
871.933	10382
872.176	10282
872.42	10254
872.663	10271
872.906	10313
873.15	10227
873.393	10115
873.636	10102
873.879	10123
874.122	10033
874.366	9864
874.609	9771
874.852	9762
875.095	9736
875.337	9657
875.58	9550
875.823	9660
876.066	9651
876.309	9633
876.551	9531
876.794	9384
877.037	9483
877.279	9460
877.522	9453
877.764	9491
878.007	9502
878.249	9461
878.491	9431
878.734	9487
878.976	9456
879.218	9312
879.46	9322
879.702	9271
879.945	9179
880.187	9107
880.429	9074
880.671	9073
880.912	9030
881.154	8926
881.396	8904
881.638	8972
881.88	8975
882.121	8939
882.363	8930
882.605	9003
882.846	8953
883.088	8943
883.329	8947
883.571	8910
883.812	9016
884.053	9202
884.295	9312
884.536	9491
884.777	9437
885.018	9385
885.259	9297
885.5	9223
885.742	9554
885.982	9261
886.223	9160
886.464	9107
886.705	9046
886.946	9002
887.187	8825
887.428	8834
887.668	8620
887.909	8547
888.15	8413
888.39	8405
888.631	8426
888.871	8348
889.111	8304
889.352	8201
889.592	8111
889.833	8105
890.073	8076
890.313	8078
890.553	7904
890.793	7913
891.033	7892
891.273	7889
891.513	7880
891.753	7869
891.993	7824
892.233	7871
892.473	7924
892.713	7840
892.952	7840
893.192	7879
893.432	7920
893.671	7917
893.911	7839
894.15	7840
894.39	7731
894.629	7712
894.869	7728
895.108	7659
895.347	7559
895.587	7610
895.826	7573
896.065	7483
896.304	7628
896.543	7623
896.782	7436
897.021	7543
897.26	7484
897.499	7540
897.738	7519
897.977	7412
898.216	7345
898.454	7319
898.693	7302
898.932	7315
899.17	7195
899.409	7244
899.647	7158
899.886	7179
900.124	7254
900.363	7150
900.601	7246
900.839	7230
901.078	7248
901.316	7332
901.554	7328
901.792	7445
902.03	7390
902.268	7381
902.506	7392
902.744	7340
902.982	7316
903.22	7152
903.458	7113
903.695	7097
903.933	6964
904.171	6830
904.409	6697
904.646	6672
904.884	6552
905.121	6583
905.359	6408
905.596	6356
905.833	6378
906.071	6318
906.308	6401
906.545	6339
906.783	6307
907.02	6335
907.257	6256
907.494	6226
907.731	6223
907.968	6276
908.205	6194
908.442	6197
908.679	6160
908.915	6116
909.152	6118
909.389	6000
909.626	5929
909.862	5865
910.099	5909
910.335	5926
910.572	5832
910.808	5929
911.045	5851
911.281	5758
911.518	5876
911.754	5799
911.99	5851
912.226	5716
912.463	5689
912.699	5655
912.935	5656
913.171	5654
913.407	5548
913.643	5605
913.879	5472
914.114	5452
914.35	5418
914.586	5304
914.822	5222
915.057	5324
915.293	5182
915.529	5165
915.764	5281
916	5202
916.235	5276
916.471	5199
916.706	5122
916.941	5142
917.177	5189
917.412	5208
917.647	5207
917.882	5150
918.117	5183
918.352	5159
918.588	5155
918.823	5077
919.057	5082
919.292	4908
919.527	5027
919.762	4917
919.997	4965
920.232	4814
920.466	4820
920.701	4676
920.935	4736
921.17	4721
921.405	4659
921.639	4710
921.873	4658
922.108	4660
922.342	4678
922.576	4564
922.811	4535
923.045	4648
923.279	4602
923.513	4473
923.747	4570
923.981	4536
924.215	4442
924.449	4517
924.683	4413
924.917	4431
925.151	4380
925.385	4479
925.618	4349
925.852	4377
926.086	4358
926.319	4339
926.553	4380
926.786	4393
927.02	4386
927.253	4418
927.486	4394
927.72	4287
927.953	4378
928.186	4345
928.42	4335
928.653	4295
928.886	4277
929.119	4281
929.352	4239
929.585	4267
929.818	4169
930.051	4239
930.284	4158
930.516	4056
930.749	4084
930.982	4128
931.215	4117
931.447	4071
931.68	4072
931.912	4019
932.145	4018
932.377	4048
932.61	4134
932.842	3947
933.074	4051
933.307	4035
933.539	4162
933.771	4140
934.003	4097
934.236	4264
934.468	4345
934.7	4304
934.932	4392
935.164	4411
935.395	4341
935.627	4292
935.859	4203
936.091	4053
936.323	4011
936.554	4045
936.786	3987
937.017	3944
937.249	3991
937.481	3898
937.712	3956
937.943	3882
938.175	3922
938.406	3920
938.637	3996
938.869	3869
939.1	4005
939.331	3953
939.562	4014
939.793	4017
940.024	4201
940.255	4609
940.486	5268
940.717	5764
940.948	5680
941.179	5217
941.409	4835
941.64	4505
941.871	4137
942.102	3932
942.332	3883
942.563	3888
942.793	3847
943.024	3763
943.254	3786
943.484	3854
943.715	3900
943.945	3825
944.175	3770
944.405	3735
944.636	3739
944.866	3771
945.096	3774
945.326	3686
945.556	3768
945.786	3742
946.016	3710
946.245	3663
946.475	3617
946.705	3657
946.935	3658
947.164	3635
947.394	3606
947.624	3582
947.853	3646
948.083	3578
948.312	3533
948.542	3538
948.771	3482
949	3505
949.23	3501
949.459	3530
949.688	3575
949.917	3526
950.146	3542
950.375	3585
950.604	3483
950.833	3549
951.062	3537
951.291	3543
951.52	3518
951.749	3536
951.978	3467
952.206	3454
952.435	3441
952.664	3518
952.892	3491
953.121	3456
953.349	3486
953.578	3479
953.806	3447
954.035	3392
954.263	3403
954.491	3353
954.719	3364
954.948	3356
955.176	3321
955.404	3263
955.632	3370
955.86	3328
956.088	3281
956.316	3329
956.544	3324
956.772	3283
956.999	3260
957.227	3340
957.455	3215
957.683	3228
957.91	3200
958.138	3179
958.365	3160
958.593	3155
958.82	3112
959.048	3200
959.275	3167
959.502	3117
959.73	3095
959.957	3174
960.184	3165
960.411	3102
960.638	3198
960.865	3120
961.092	3173
961.319	3013
961.546	3147
961.773	3143
962	3111
962.227	3118
962.454	3101
962.68	3087
962.907	3105
963.134	3052
963.36	3058
963.587	3061
963.813	2999
964.04	3052
964.266	2971
964.493	3077
964.719	2996
964.945	3002
965.171	2874
965.398	2973
965.624	2955
965.85	2884
966.076	2879
966.302	2940
966.528	2858
966.754	2892
966.98	2912
967.206	2895
967.431	2809
967.657	2919
967.883	2908
968.109	2877
968.334	2818
968.56	2792
968.785	2869
969.011	2794
969.236	2820
969.462	2786
969.687	2805
969.912	2837
970.138	2860
970.363	2766
970.588	2810
970.813	2778
971.038	2734
971.263	2782
971.488	2790
971.713	2800
971.938	2787
972.163	2670
972.388	2724
972.613	2649
972.838	2673
973.062	2652
973.287	2698
973.512	2623
973.736	2622
973.961	2611
974.185	2594
974.41	2634
974.634	2547
974.858	2555
975.083	2560
975.307	2597
975.531	2494
975.755	2457
975.98	2497
976.204	2425
976.428	2415
976.652	2445
976.876	2414
977.1	2438
977.324	2410
977.547	2501
977.771	2499
977.995	2498
978.219	2342
978.442	2478
978.666	2406
978.89	2438
979.113	2400
979.337	2415
979.56	2411
979.783	2494
980.007	2363
980.23	2387
980.453	2325
980.677	2382
980.9	2369
981.123	2282
981.346	2318
981.569	2336
981.792	2374
982.015	2326
982.238	2279
982.461	2279
982.684	2273
982.907	2245
983.129	2229
983.352	2311
983.575	2227
983.797	2234
984.02	2198
984.242	2209
984.465	2176
984.687	2235
984.91	2244
985.132	2202
985.354	2229
985.577	2178
985.799	2191
986.021	2099
986.243	2142
986.465	2141
986.687	2209
986.909	2188
987.131	2159
987.353	2127
987.575	2164
987.797	2100
988.019	2061
988.241	2131
988.462	2050
988.684	2155
988.906	2152
989.127	2180
989.349	2047
989.57	2072
989.792	2115
990.013	2137
990.234	2127
990.456	2161
990.677	2108
990.898	2045
991.119	2085
991.341	2102
991.562	2025
991.783	2044
992.004	1984
992.225	1975
992.446	2043
992.667	1939
992.887	2034
993.108	1901
993.329	2054
993.55	1968
993.77	1925
993.991	1887
994.212	1960
994.432	1966
994.653	1953
994.873	1938
995.093	1821
995.314	1862
995.534	1944
995.754	1957
995.975	1968
996.195	1855
996.415	1912
996.635	1881
996.855	1899
997.075	1874
997.295	1888
997.515	1819
997.735	1922
997.955	1865
998.174	1877
998.394	1835
998.614	1879
998.834	1847
999.053	1914
999.273	1853
999.492	1914
999.712	1830
999.931	1788
1000.151	1859
1000.37	1816
1000.589	1861
1000.809	1799
1001.028	1877
1001.247	1826
1001.466	1719
1001.685	1856
1001.904	1815
1002.123	1791
1002.342	1819
1002.561	1757
1002.78	1782
1002.999	1813
1003.218	1764
1003.436	1755
1003.655	1760
1003.874	1726
1004.092	1748
1004.311	1773
1004.53	1758
1004.748	1834
1004.966	1756
1005.185	1828
1005.403	1768
1005.622	1748
1005.84	1811
1006.058	1734
1006.276	1728
1006.494	2211
1006.712	1739
1006.931	1789
1007.149	1721
1007.367	1728
1007.584	1792
1007.802	1780
1008.02	1742
1008.238	1846
1008.456	1831
1008.673	1735
1008.891	1817
1009.109	1788
1009.326	1849
1009.544	1921
1009.761	1847
1009.979	1934
1010.196	1997
1010.413	2076
1010.631	2124
1010.848	2200
1011.065	2205
1011.282	2143
1011.5	2071
1011.717	2168
1011.934	2107
1012.151	2171
1012.368	2133
1012.585	2052
1012.801	2095
1013.018	2089
1013.235	2071
1013.452	2092
1013.669	2096
1013.885	2084
1014.102	2134
1014.318	2087
1014.535	2076
1014.751	2063
1014.968	2081
1015.184	2101
1015.401	2010
1015.617	2017
1015.833	1973
1016.049	1960
1016.266	1933
1016.482	1941
1016.698	1866
1016.914	1932
1017.13	1865
1017.346	1856
1017.562	1901
1017.778	1832
1017.993	1829
1018.209	1877
1018.425	1837
1018.641	1831
1018.856	1778
1019.072	1840
1019.288	1839
1019.503	1807
1019.719	1749
1019.934	1718
1020.149	1821
1020.365	1730
1020.58	1664
1020.795	1713
1021.011	1662
1021.226	1635
1021.441	1627
1021.656	1532
1021.871	1485
1022.086	1454
1022.301	1453
1022.516	1443
1022.731	1502
1022.946	1375
1023.16	1372
1023.375	1356
1023.59	1309
1023.804	1302
1024.019	1361
1024.234	1239
1024.448	1268
1024.663	1186
1024.877	1204
1025.092	1214
1025.306	1215
1025.52	1104
1025.734	1183
1025.949	1103
1026.163	1075
1026.377	990
1026.591	1040
1026.805	984
1027.019	962
1027.233	926
1027.447	869
1027.661	982
1027.875	920
1028.088	921
1028.302	839
1028.516	810
1028.73	811
1028.943	818
1029.157	752
1029.37	691
1029.584	-3
1029.797	-4
1030.011	1
1030.224	-2
