Data from QEP037381__141__13-50-34-881.txt Node

Date: Wed Dec 21 13:50:34 EST 2022
User: dcclab
Spectrometer: QEP03738
Trigger mode: 4
Integration Time (sec): 1.000000E1
Scans to average: 1
Electric dark correction enabled: true
Nonlinearity correction enabled: false
Boxcar width: 0
XAxis mode: Wavelengths
Number of Pixels in Spectrum: 1044
>>>>>Begin Spectral Data<<<<<
784.041	17.12
784.3	-0.88
784.558	-1.88
784.817	-2.88
785.075	88409.12
785.334	14875.12
785.592	6807.12
785.851	4632.12
786.109	3527.12
786.368	2757.12
786.626	2223.12
786.884	1883.12
787.143	1568.12
787.401	1275.12
787.659	1186.12
787.917	1014.12
788.175	955.12
788.433	825.12
788.691	754.12
788.949	704.12
789.207	666.12
789.465	586.12
789.723	561.12
789.98	515.12
790.238	559.12
790.496	533.12
790.753	507.12
791.011	561.12
791.268	487.12
791.526	476.12
791.783	483.12
792.041	473.12
792.298	393.12
792.556	451.12
792.813	433.12
793.07	413.12
793.327	415.12
793.584	495.12
793.841	406.12
794.099	431.12
794.356	492.12
794.613	388.12
794.869	421.12
795.126	383.12
795.383	370.12
795.64	398.12
795.897	354.12
796.153	402.12
796.41	384.12
796.667	384.12
796.923	388.12
797.18	379.12
797.436	410.12
797.693	369.12
797.949	429.12
798.206	443.12
798.462	354.12
798.718	416.12
798.974	391.12
799.231	413.12
799.487	412.12
799.743	418.12
799.999	439.12
800.255	410.12
800.511	410.12
800.767	426.12
801.023	424.12
801.279	440.12
801.534	444.12
801.79	471.12
802.046	466.12
802.302	549.12
802.557	576.12
802.813	661.12
803.068	715.12
803.324	931.12
803.579	1178.12
803.835	1552.12
804.09	2125.12
804.345	2748.12
804.601	3399.12
804.856	4178.12
805.111	4816.12
805.366	5196.12
805.621	5575.12
805.876	5790.12
806.131	5923.12
806.386	6031.12
806.641	6035.12
806.896	6220.12
807.151	6368.12
807.406	6371.12
807.661	6524.12
807.915	6622.12
808.17	6745.12
808.425	6774.12
808.679	6851.12
808.934	7010.12
809.188	7001.12
809.443	7102.12
809.697	7232.12
809.951	7244.12
810.206	7251.12
810.46	7441.12
810.714	7375.12
810.968	7548.12
811.223	7550.12
811.477	7666.12
811.731	7694.12
811.985	7662.12
812.239	7669.12
812.493	7797.12
812.747	7827.12
813	7729.12
813.254	7887.12
813.508	7938.12
813.762	7990.12
814.015	8035.12
814.269	7991.12
814.522	8103.12
814.776	8277.12
815.03	8311.12
815.283	8436.12
815.536	8589.12
815.79	8730.12
816.043	8861.12
816.296	8944.12
816.55	9016.12
816.803	9184.12
817.056	9345.12
817.309	9395.12
817.562	9512.12
817.815	9591.12
818.068	9591.12
818.321	9740.12
818.574	9781.12
818.827	10013.12
819.079	10139.12
819.332	10379.12
819.585	10427.12
819.838	10640.12
820.09	10614.12
820.343	10702.12
820.595	10743.12
820.848	10847.12
821.1	11002.12
821.353	10897.12
821.605	10907.12
821.857	10956.12
822.11	10836.12
822.362	10844.12
822.614	10827.12
822.866	10867.12
823.118	10746.12
823.37	10935.12
823.622	10976.12
823.874	11000.12
824.126	11095.12
824.378	11057.12
824.63	11140.12
824.882	11147.12
825.134	11115.12
825.385	11159.12
825.637	11104.12
825.888	11059.12
826.14	11080.12
826.392	10963.12
826.643	10930.12
826.895	10882.12
827.146	10856.12
827.397	10754.12
827.649	10903.12
827.9	10808.12
828.151	10779.12
828.402	10905.12
828.653	10924.12
828.905	10940.12
829.156	11036.12
829.407	11036.12
829.658	10939.12
829.909	11154.12
830.159	11070.12
830.41	11081.12
830.661	10916.12
830.912	10879.12
831.162	10970.12
831.413	10926.12
831.664	10979.12
831.914	10965.12
832.165	10840.12
832.415	10950.12
832.666	10949.12
832.916	10953.12
833.167	10952.12
833.417	11014.12
833.667	10865.12
833.917	10878.12
834.168	10928.12
834.418	10840.12
834.668	10897.12
834.918	10743.12
835.168	10788.12
835.418	10628.12
835.668	10744.12
835.918	10718.12
836.167	10703.12
836.417	10649.12
836.667	10569.12
836.917	10703.12
837.166	10641.12
837.416	10738.12
837.666	10694.12
837.915	10626.12
838.165	10592.12
838.414	10554.12
838.663	10572.12
838.913	10583.12
839.162	10559.12
839.411	10624.12
839.661	10547.12
839.91	10596.12
840.159	10528.12
840.408	10598.12
840.657	10616.12
840.906	10588.12
841.155	10623.12
841.404	10613.12
841.653	10657.12
841.902	10595.12
842.15	10640.12
842.399	10654.12
842.648	10695.12
842.897	10639.12
843.145	10477.12
843.394	10472.12
843.642	10486.12
843.891	10481.12
844.139	10355.12
844.388	10320.12
844.636	10239.12
844.884	10345.12
845.133	10246.12
845.381	10301.12
845.629	10376.12
845.877	10309.12
846.125	10319.12
846.373	10347.12
846.621	10237.12
846.869	10213.12
847.117	10234.12
847.365	10102.12
847.613	10140.12
847.861	10088.12
848.108	10153.12
848.356	10089.12
848.604	10046.12
848.851	10044.12
849.099	10124.12
849.346	10109.12
849.594	10229.12
849.841	10303.12
850.089	10239.12
850.336	10309.12
850.583	10401.12
850.831	10347.12
851.078	10210.12
851.325	10189.12
851.572	10328.12
851.819	10191.12
852.066	9990.12
852.313	9783.12
852.56	9773.12
852.807	9670.12
853.054	9714.12
853.301	9758.12
853.548	9741.12
853.794	9918.12
854.041	9934.12
854.288	9858.12
854.534	10110.12
854.781	10064.12
855.028	10025.12
855.274	9991.12
855.52	9921.12
855.767	9941.12
856.013	9959.12
856.26	10252.12
856.506	9798.12
856.752	9853.12
856.998	9858.12
857.244	9908.12
857.49	9955.12
857.736	9990.12
857.982	10032.12
858.228	9975.12
858.474	9802.12
858.72	9753.12
858.966	9751.12
859.212	9592.12
859.458	9477.12
859.703	9431.12
859.949	9259.12
860.195	9307.12
860.44	9265.12
860.686	9268.12
860.931	9337.12
861.177	9186.12
861.422	9183.12
861.667	9040.12
861.913	9000.12
862.158	9111.12
862.403	9169.12
862.648	9161.12
862.893	9254.12
863.138	9180.12
863.384	9144.12
863.629	9177.12
863.873	9107.12
864.118	9215.12
864.363	9045.12
864.608	9126.12
864.853	9043.12
865.098	9043.12
865.342	8949.12
865.587	8945.12
865.832	8924.12
866.076	8913.12
866.321	8886.12
866.565	8893.12
866.81	8797.12
867.054	8871.12
867.298	8793.12
867.543	8839.12
867.787	8889.12
868.031	8828.12
868.275	8852.12
868.519	8877.12
868.764	8838.12
869.008	8790.12
869.252	8895.12
869.496	8836.12
869.739	8896.12
869.983	8908.12
870.227	8873.12
870.471	8889.12
870.715	8976.12
870.958	8907.12
871.202	8960.12
871.446	9020.12
871.689	8934.12
871.933	8932.12
872.176	8947.12
872.42	8930.12
872.663	8916.12
872.906	8970.12
873.15	8933.12
873.393	8935.12
873.636	8998.12
873.879	8895.12
874.122	8794.12
874.366	8676.12
874.609	8557.12
874.852	8466.12
875.095	8452.12
875.337	8456.12
875.58	8332.12
875.823	8338.12
876.066	8332.12
876.309	8363.12
876.551	8289.12
876.794	8168.12
877.037	8219.12
877.279	8199.12
877.522	8157.12
877.764	8251.12
878.007	8119.12
878.249	8165.12
878.491	8171.12
878.734	8173.12
878.976	8134.12
879.218	8048.12
879.46	8034.12
879.702	8014.12
879.945	7911.12
880.187	7842.12
880.429	7808.12
880.671	7853.12
880.912	7797.12
881.154	7765.12
881.396	7691.12
881.638	7750.12
881.88	7760.12
882.121	7683.12
882.363	7689.12
882.605	7758.12
882.846	7704.12
883.088	7710.12
883.329	7776.12
883.571	7794.12
883.812	7961.12
884.053	8101.12
884.295	8457.12
884.536	8608.12
884.777	8556.12
885.018	8447.12
885.259	8378.12
885.5	8302.12
885.742	8609.12
885.982	8311.12
886.223	8150.12
886.464	8130.12
886.705	7998.12
886.946	7922.12
887.187	7755.12
887.428	7659.12
887.668	7467.12
887.909	7367.12
888.15	7248.12
888.39	7281.12
888.631	7244.12
888.871	7169.12
889.111	7057.12
889.352	7039.12
889.592	6964.12
889.833	6920.12
890.073	6932.12
890.313	6944.12
890.553	6785.12
890.793	6757.12
891.033	6695.12
891.273	6717.12
891.513	6660.12
891.753	6755.12
891.993	6667.12
892.233	6726.12
892.473	6772.12
892.713	6742.12
892.952	6726.12
893.192	6766.12
893.432	6707.12
893.671	6771.12
893.911	6769.12
894.15	6630.12
894.39	6582.12
894.629	6600.12
894.869	6602.12
895.108	6554.12
895.347	6474.12
895.587	6525.12
895.826	6490.12
896.065	6470.12
896.304	6492.12
896.543	6579.12
896.782	6403.12
897.021	6498.12
897.26	6416.12
897.499	6425.12
897.738	6532.12
897.977	6409.12
898.216	6372.12
898.454	6370.12
898.693	6269.12
898.932	6282.12
899.17	6266.12
899.409	6223.12
899.647	6227.12
899.886	6244.12
900.124	6249.12
900.363	6248.12
900.601	6291.12
900.839	6345.12
901.078	6377.12
901.316	6444.12
901.554	6470.12
901.792	6549.12
902.03	6525.12
902.268	6558.12
902.506	6594.12
902.744	6494.12
902.982	6506.12
903.22	6316.12
903.458	6262.12
903.695	6122.12
903.933	6041.12
904.171	5962.12
904.409	5814.12
904.646	5789.12
904.884	5646.12
905.121	5624.12
905.359	5586.12
905.596	5571.12
905.833	5461.12
906.071	5374.12
906.308	5518.12
906.545	5439.12
906.783	5401.12
907.02	5382.12
907.257	5351.12
907.494	5374.12
907.731	5361.12
907.968	5311.12
908.205	5304.12
908.442	5283.12
908.679	5232.12
908.915	5233.12
909.152	5212.12
909.389	5082.12
909.626	5091.12
909.862	5029.12
910.099	5035.12
910.335	5085.12
910.572	4934.12
910.808	4984.12
911.045	4989.12
911.281	4953.12
911.518	5009.12
911.754	4909.12
911.99	4928.12
912.226	4865.12
912.463	4817.12
912.699	4767.12
912.935	4795.12
913.171	4809.12
913.407	4646.12
913.643	4735.12
913.879	4649.12
914.114	4644.12
914.35	4561.12
914.586	4534.12
914.822	4442.12
915.057	4489.12
915.293	4420.12
915.529	4383.12
915.764	4447.12
916	4415.12
916.235	4423.12
916.471	4442.12
916.706	4359.12
916.941	4361.12
917.177	4373.12
917.412	4475.12
917.647	4394.12
917.882	4340.12
918.117	4380.12
918.352	4337.12
918.588	4465.12
918.823	4276.12
919.057	4304.12
919.292	4172.12
919.527	4294.12
919.762	4168.12
919.997	4171.12
920.232	4109.12
920.466	4114.12
920.701	4014.12
920.935	4041.12
921.17	3998.12
921.405	3971.12
921.639	4023.12
921.873	3979.12
922.108	4002.12
922.342	3987.12
922.576	3905.12
922.811	3903.12
923.045	3964.12
923.279	3935.12
923.513	3836.12
923.747	3901.12
923.981	3889.12
924.215	3799.12
924.449	3803.12
924.683	3726.12
924.917	3751.12
925.151	3722.12
925.385	3811.12
925.618	3799.12
925.852	3792.12
926.086	3666.12
926.319	3740.12
926.553	3724.12
926.786	3744.12
927.02	3699.12
927.253	3749.12
927.486	3728.12
927.72	3681.12
927.953	3706.12
928.186	3729.12
928.42	3740.12
928.653	3667.12
928.886	3630.12
929.119	3669.12
929.352	3630.12
929.585	3618.12
929.818	3602.12
930.051	3570.12
930.284	3620.12
930.516	3500.12
930.749	3462.12
930.982	3553.12
931.215	3451.12
931.447	3461.12
931.68	3468.12
931.912	3422.12
932.145	3468.12
932.377	3467.12
932.61	3622.12
932.842	3385.12
933.074	3520.12
933.307	3415.12
933.539	3548.12
933.771	3518.12
934.003	3529.12
934.236	3624.12
934.468	3696.12
934.7	3645.12
934.932	3655.12
935.164	3594.12
935.395	3493.12
935.627	3485.12
935.859	3464.12
936.091	3413.12
936.323	3422.12
936.554	3454.12
936.786	3375.12
937.017	3330.12
937.249	3369.12
937.481	3299.12
937.712	3385.12
937.943	3397.12
938.175	3373.12
938.406	3353.12
938.637	3420.12
938.869	3387.12
939.1	3448.12
939.331	3410.12
939.562	3491.12
939.793	3590.12
940.024	4021.12
940.255	4644.12
940.486	4909.12
940.717	4752.12
940.948	4368.12
941.179	3999.12
941.409	3754.12
941.64	3528.12
941.871	3416.12
942.102	3301.12
942.332	3245.12
942.563	3325.12
942.793	3320.12
943.024	3227.12
943.254	3238.12
943.484	3256.12
943.715	3273.12
943.945	3271.12
944.175	3201.12
944.405	3197.12
944.636	3177.12
944.866	3244.12
945.096	3221.12
945.326	3157.12
945.556	3218.12
945.786	3200.12
946.016	3173.12
946.245	3110.12
946.475	3093.12
946.705	3105.12
946.935	3117.12
947.164	3116.12
947.394	3054.12
947.624	3079.12
947.853	3134.12
948.083	3082.12
948.312	3046.12
948.542	3036.12
948.771	2914.12
949	2996.12
949.23	3014.12
949.459	3013.12
949.688	3037.12
949.917	2997.12
950.146	3016.12
950.375	3068.12
950.604	2966.12
950.833	3057.12
951.062	3075.12
951.291	2978.12
951.52	2971.12
951.749	2955.12
951.978	2937.12
952.206	2918.12
952.435	2916.12
952.664	2975.12
952.892	2964.12
953.121	2960.12
953.349	2967.12
953.578	2945.12
953.806	2895.12
954.035	2872.12
954.263	2904.12
954.491	2854.12
954.719	2882.12
954.948	2794.12
955.176	2847.12
955.404	2769.12
955.632	2816.12
955.86	2835.12
956.088	2784.12
956.316	2812.12
956.544	2833.12
956.772	2822.12
956.999	2726.12
957.227	2844.12
957.455	2737.12
957.683	2731.12
957.91	2697.12
958.138	2678.12
958.365	2678.12
958.593	2694.12
958.82	2635.12
959.048	2686.12
959.275	2676.12
959.502	2676.12
959.73	2658.12
959.957	2687.12
960.184	2694.12
960.411	2685.12
960.638	2734.12
960.865	2664.12
961.092	2672.12
961.319	2604.12
961.546	2671.12
961.773	2684.12
962	2654.12
962.227	2664.12
962.454	2627.12
962.68	2625.12
962.907	2616.12
963.134	2572.12
963.36	2644.12
963.587	2622.12
963.813	2570.12
964.04	2563.12
964.266	2531.12
964.493	2634.12
964.719	2583.12
964.945	2557.12
965.171	2486.12
965.398	2509.12
965.624	2508.12
965.85	2466.12
966.076	2457.12
966.302	2480.12
966.528	2461.12
966.754	2471.12
966.98	2488.12
967.206	2455.12
967.431	2384.12
967.657	2488.12
967.883	2470.12
968.109	2464.12
968.334	2414.12
968.56	2389.12
968.785	2417.12
969.011	2375.12
969.236	2423.12
969.462	2364.12
969.687	2406.12
969.912	2426.12
970.138	2432.12
970.363	2355.12
970.588	2357.12
970.813	2332.12
971.038	2359.12
971.263	2356.12
971.488	2341.12
971.713	2394.12
971.938	2366.12
972.163	2298.12
972.388	2304.12
972.613	2307.12
972.838	2300.12
973.062	2270.12
973.287	2255.12
973.512	2236.12
973.736	2258.12
973.961	2256.12
974.185	2235.12
974.41	2259.12
974.634	2170.12
974.858	2165.12
975.083	2201.12
975.307	2231.12
975.531	2150.12
975.755	2119.12
975.98	2150.12
976.204	2071.12
976.428	2075.12
976.652	2055.12
976.876	2051.12
977.1	2112.12
977.324	2045.12
977.547	2093.12
977.771	2108.12
977.995	2076.12
978.219	1981.12
978.442	2136.12
978.666	2071.12
978.89	2042.12
979.113	2070.12
979.337	2046.12
979.56	2034.12
979.783	2093.12
980.007	2014.12
980.23	2034.12
980.453	2009.12
980.677	2030.12
980.9	2017.12
981.123	1915.12
981.346	2009.12
981.569	2011.12
981.792	2045.12
982.015	1972.12
982.238	1919.12
982.461	1975.12
982.684	1931.12
982.907	1904.12
983.129	1917.12
983.352	1956.12
983.575	1933.12
983.797	1931.12
984.02	1892.12
984.242	1900.12
984.465	1893.12
984.687	1945.12
984.91	1933.12
985.132	1898.12
985.354	1923.12
985.577	1909.12
985.799	1892.12
986.021	1811.12
986.243	1829.12
986.465	1848.12
986.687	1896.12
986.909	1918.12
987.131	1873.12
987.353	1812.12
987.575	1842.12
987.797	1863.12
988.019	1747.12
988.241	1841.12
988.462	1770.12
988.684	1854.12
988.906	1865.12
989.127	1892.12
989.349	1759.12
989.57	1841.12
989.792	1816.12
990.013	1850.12
990.234	1832.12
990.456	1885.12
990.677	1862.12
990.898	1811.12
991.119	1813.12
991.341	1801.12
991.562	1759.12
991.783	1811.12
992.004	1757.12
992.225	1713.12
992.446	1796.12
992.667	1672.12
992.887	1772.12
993.108	1683.12
993.329	1800.12
993.55	1731.12
993.77	1682.12
993.991	1697.12
994.212	1682.12
994.432	1707.12
994.653	1692.12
994.873	1690.12
995.093	1615.12
995.314	1636.12
995.534	1726.12
995.754	1724.12
995.975	1734.12
996.195	1646.12
996.415	1680.12
996.635	1657.12
996.855	1682.12
997.075	1670.12
997.295	1683.12
997.515	1652.12
997.735	1697.12
997.955	1689.12
998.174	1688.12
998.394	1634.12
998.614	1673.12
998.834	1641.12
999.053	1719.12
999.273	1663.12
999.492	1723.12
999.712	1641.12
999.931	1607.12
1000.151	1676.12
1000.37	1624.12
1000.589	1681.12
1000.809	1601.12
1001.028	1726.12
1001.247	1635.12
1001.466	1541.12
1001.685	1659.12
1001.904	1609.12
1002.123	1616.12
1002.342	1595.12
1002.561	1569.12
1002.78	1583.12
1002.999	1633.12
1003.218	1594.12
1003.436	1558.12
1003.655	1640.12
1003.874	1557.12
1004.092	1571.12
1004.311	1628.12
1004.53	1563.12
1004.748	1639.12
1004.966	1554.12
1005.185	1636.12
1005.403	1639.12
1005.622	1588.12
1005.84	1656.12
1006.058	1587.12
1006.276	1607.12
1006.494	2094.12
1006.712	1598.12
1006.931	1662.12
1007.149	1563.12
1007.367	1603.12
1007.584	1637.12
1007.802	1688.12
1008.02	1652.12
1008.238	1747.12
1008.456	1735.12
1008.673	1612.12
1008.891	1745.12
1009.109	1729.12
1009.326	1777.12
1009.544	1888.12
1009.761	1795.12
1009.979	1949.12
1010.196	2004.12
1010.413	2113.12
1010.631	2242.12
1010.848	2330.12
1011.065	2301.12
1011.282	2269.12
1011.5	2181.12
1011.717	2317.12
1011.934	2257.12
1012.151	2282.12
1012.368	2243.12
1012.585	2245.12
1012.801	2249.12
1013.018	2212.12
1013.235	2217.12
1013.452	2231.12
1013.669	2246.12
1013.885	2256.12
1014.102	2328.12
1014.318	2259.12
1014.535	2216.12
1014.751	2277.12
1014.968	2269.12
1015.184	2277.12
1015.401	2183.12
1015.617	2186.12
1015.833	2111.12
1016.049	2113.12
1016.266	2120.12
1016.482	2110.12
1016.698	2053.12
1016.914	2072.12
1017.13	2021.12
1017.346	2019.12
1017.562	2075.12
1017.778	2013.12
1017.993	1984.12
1018.209	2025.12
1018.425	2018.12
1018.641	1965.12
1018.856	1935.12
1019.072	1979.12
1019.288	2048.12
1019.503	1957.12
1019.719	1858.12
1019.934	1909.12
1020.149	1978.12
1020.365	1880.12
1020.58	1801.12
1020.795	1847.12
1021.011	1779.12
1021.226	1753.12
1021.441	1731.12
1021.656	1638.12
1021.871	1544.12
1022.086	1564.12
1022.301	1547.12
1022.516	1513.12
1022.731	1557.12
1022.946	1446.12
1023.16	1434.12
1023.375	1396.12
1023.59	1353.12
1023.804	1322.12
1024.019	1400.12
1024.234	1272.12
1024.448	1272.12
1024.663	1203.12
1024.877	1213.12
1025.092	1243.12
1025.306	1247.12
1025.52	1108.12
1025.734	1192.12
1025.949	1096.12
1026.163	1083.12
1026.377	1024.12
1026.591	1046.12
1026.805	1002.12
1027.019	957.12
1027.233	922.12
1027.447	888.12
1027.661	996.12
1027.875	907.12
1028.088	918.12
1028.302	820.12
1028.516	831.12
1028.73	825.12
1028.943	804.12
1029.157	729.12
1029.37	694.12
1029.584	-0.88
1029.797	-1.88
1030.011	-3.88
1030.224	-4.88
