Data from QEP037381__146__13-51-24-875.txt Node

Date: Wed Dec 21 13:51:24 EST 2022
User: dcclab
Spectrometer: QEP03738
Trigger mode: 4
Integration Time (sec): 1.000000E1
Scans to average: 1
Electric dark correction enabled: true
Nonlinearity correction enabled: false
Boxcar width: 0
XAxis mode: Wavelengths
Number of Pixels in Spectrum: 1044
>>>>>Begin Spectral Data<<<<<
784.041	12.62
784.3	0.62
784.558	-3.38
784.817	-5.38
785.075	90832.62
785.334	15158.62
785.592	6969.62
785.851	4829.62
786.109	3629.62
786.368	2839.62
786.626	2269.62
786.884	1913.62
787.143	1637.62
787.401	1345.62
787.659	1263.62
787.917	1047.62
788.175	986.62
788.433	854.62
788.691	778.62
788.949	727.62
789.207	680.62
789.465	591.62
789.723	585.62
789.98	531.62
790.238	560.62
790.496	542.62
790.753	512.62
791.011	557.62
791.268	494.62
791.526	480.62
791.783	501.62
792.041	464.62
792.298	397.62
792.556	463.62
792.813	450.62
793.07	420.62
793.327	410.62
793.584	478.62
793.841	420.62
794.099	438.62
794.356	490.62
794.613	403.62
794.869	431.62
795.126	392.62
795.383	372.62
795.64	396.62
795.897	355.62
796.153	404.62
796.41	392.62
796.667	379.62
796.923	389.62
797.18	384.62
797.436	407.62
797.693	369.62
797.949	414.62
798.206	450.62
798.462	354.62
798.718	421.62
798.974	385.62
799.231	440.62
799.487	420.62
799.743	406.62
799.999	434.62
800.255	423.62
800.511	392.62
800.767	447.62
801.023	413.62
801.279	449.62
801.534	452.62
801.79	481.62
802.046	466.62
802.302	554.62
802.557	592.62
802.813	688.62
803.068	734.62
803.324	998.62
803.579	1246.62
803.835	1645.62
804.09	2287.62
804.345	2906.62
804.601	3646.62
804.856	4399.62
805.111	5052.62
805.366	5525.62
805.621	5775.62
805.876	6020.62
806.131	6175.62
806.386	6189.62
806.641	6349.62
806.896	6421.62
807.151	6578.62
807.406	6654.62
807.661	6783.62
807.915	6877.62
808.17	6992.62
808.425	7085.62
808.679	7053.62
808.934	7272.62
809.188	7239.62
809.443	7372.62
809.697	7495.62
809.951	7500.62
810.206	7615.62
810.46	7719.62
810.714	7693.62
810.968	7837.62
811.223	7846.62
811.477	7919.62
811.731	8000.62
811.985	7995.62
812.239	8047.62
812.493	8136.62
812.747	8199.62
813	8092.62
813.254	8161.62
813.508	8284.62
813.762	8244.62
814.015	8302.62
814.269	8395.62
814.522	8518.62
814.776	8591.62
815.03	8700.62
815.283	8793.62
815.536	8937.62
815.79	9103.62
816.043	9232.62
816.296	9286.62
816.55	9488.62
816.803	9506.62
817.056	9722.62
817.309	9810.62
817.562	9857.62
817.815	9974.62
818.068	10032.62
818.321	10219.62
818.574	10313.62
818.827	10426.62
819.079	10552.62
819.332	10837.62
819.585	10959.62
819.838	11135.62
820.09	11150.62
820.343	11278.62
820.595	11291.62
820.848	11357.62
821.1	11422.62
821.353	11370.62
821.605	11436.62
821.857	11430.62
822.11	11415.62
822.362	11379.62
822.614	11342.62
822.866	11453.62
823.118	11325.62
823.37	11471.62
823.622	11529.62
823.874	11538.62
824.126	11607.62
824.378	11612.62
824.63	11715.62
824.882	11619.62
825.134	11642.62
825.385	11711.62
825.637	11586.62
825.888	11572.62
826.14	11607.62
826.392	11567.62
826.643	11478.62
826.895	11500.62
827.146	11385.62
827.397	11421.62
827.649	11428.62
827.9	11345.62
828.151	11418.62
828.402	11398.62
828.653	11433.62
828.905	11547.62
829.156	11552.62
829.407	11583.62
829.658	11535.62
829.909	11590.62
830.159	11610.62
830.41	11645.62
830.661	11562.62
830.912	11388.62
831.162	11369.62
831.413	11329.62
831.664	11403.62
831.914	11466.62
832.165	11429.62
832.415	11408.62
832.666	11487.62
832.916	11488.62
833.167	11424.62
833.417	11538.62
833.667	11451.62
833.917	11356.62
834.168	11448.62
834.418	11385.62
834.668	11398.62
834.918	11282.62
835.168	11286.62
835.418	11166.62
835.668	11166.62
835.918	11199.62
836.167	11269.62
836.417	11158.62
836.667	11165.62
836.917	11195.62
837.166	11119.62
837.416	11171.62
837.666	11163.62
837.915	11038.62
838.165	11076.62
838.414	11057.62
838.663	11034.62
838.913	11005.62
839.162	11004.62
839.411	11071.62
839.661	11033.62
839.91	10967.62
840.159	10977.62
840.408	11039.62
840.657	11080.62
840.906	10958.62
841.155	11047.62
841.404	11040.62
841.653	11049.62
841.902	11025.62
842.15	11144.62
842.399	11124.62
842.648	11120.62
842.897	11074.62
843.145	10970.62
843.394	10932.62
843.642	10930.62
843.891	10804.62
844.139	10815.62
844.388	10749.62
844.636	10632.62
844.884	10710.62
845.133	10667.62
845.381	10640.62
845.629	10729.62
845.877	10684.62
846.125	10662.62
846.373	10664.62
846.621	10591.62
846.869	10625.62
847.117	10562.62
847.365	10535.62
847.613	10463.62
847.861	10520.62
848.108	10588.62
848.356	10499.62
848.604	10381.62
848.851	10489.62
849.099	10512.62
849.346	10596.62
849.594	10626.62
849.841	10669.62
850.089	10689.62
850.336	10710.62
850.583	10765.62
850.831	10778.62
851.078	10629.62
851.325	10586.62
851.572	10713.62
851.819	10626.62
852.066	10296.62
852.313	10178.62
852.56	10148.62
852.807	10109.62
853.054	10044.62
853.301	10153.62
853.548	10126.62
853.794	10232.62
854.041	10267.62
854.288	10234.62
854.534	10446.62
854.781	10420.62
855.028	10375.62
855.274	10383.62
855.52	10331.62
855.767	10224.62
856.013	10284.62
856.26	10580.62
856.506	10195.62
856.752	10218.62
856.998	10173.62
857.244	10191.62
857.49	10283.62
857.736	10331.62
857.982	10258.62
858.228	10288.62
858.474	10104.62
858.72	10068.62
858.966	10018.62
859.212	9895.62
859.458	9791.62
859.703	9766.62
859.949	9641.62
860.195	9633.62
860.44	9565.62
860.686	9535.62
860.931	9538.62
861.177	9428.62
861.422	9454.62
861.667	9367.62
861.913	9462.62
862.158	9436.62
862.403	9502.62
862.648	9515.62
862.893	9528.62
863.138	9584.62
863.384	9468.62
863.629	9486.62
863.873	9519.62
864.118	9450.62
864.363	9430.62
864.608	9393.62
864.853	9399.62
865.098	9298.62
865.342	9278.62
865.587	9166.62
865.832	9260.62
866.076	9320.62
866.321	9310.62
866.565	9202.62
866.81	9108.62
867.054	9214.62
867.298	9091.62
867.543	9072.62
867.787	9116.62
868.031	9150.62
868.275	9141.62
868.519	9115.62
868.764	9083.62
869.008	9082.62
869.252	9131.62
869.496	9074.62
869.739	9084.62
869.983	9176.62
870.227	9110.62
870.471	9122.62
870.715	9191.62
870.958	9165.62
871.202	9153.62
871.446	9218.62
871.689	9154.62
871.933	9154.62
872.176	9225.62
872.42	9192.62
872.663	9209.62
872.906	9215.62
873.15	9137.62
873.393	9132.62
873.636	9145.62
873.879	9088.62
874.122	8996.62
874.366	8859.62
874.609	8778.62
874.852	8662.62
875.095	8682.62
875.337	8614.62
875.58	8495.62
875.823	8607.62
876.066	8487.62
876.309	8592.62
876.551	8489.62
876.794	8382.62
877.037	8484.62
877.279	8384.62
877.522	8406.62
877.764	8433.62
878.007	8374.62
878.249	8381.62
878.491	8367.62
878.734	8383.62
878.976	8437.62
879.218	8279.62
879.46	8303.62
879.702	8248.62
879.945	8144.62
880.187	8015.62
880.429	8060.62
880.671	8052.62
880.912	7990.62
881.154	7981.62
881.396	7917.62
881.638	7969.62
881.88	8040.62
882.121	8027.62
882.363	7987.62
882.605	8034.62
882.846	7927.62
883.088	7998.62
883.329	7958.62
883.571	7998.62
883.812	8052.62
884.053	8187.62
884.295	8429.62
884.536	8680.62
884.777	8537.62
885.018	8401.62
885.259	8463.62
885.5	8325.62
885.742	8563.62
885.982	8288.62
886.223	8183.62
886.464	8185.62
886.705	8045.62
886.946	8024.62
887.187	7834.62
887.428	7844.62
887.668	7676.62
887.909	7536.62
888.15	7482.62
888.39	7419.62
888.631	7454.62
888.871	7375.62
889.111	7288.62
889.352	7207.62
889.592	7157.62
889.833	7140.62
890.073	7031.62
890.313	7046.62
890.553	6969.62
890.793	6927.62
891.033	6921.62
891.273	6859.62
891.513	6923.62
891.753	6857.62
891.993	6822.62
892.233	6872.62
892.473	6982.62
892.713	6925.62
892.952	6917.62
893.192	7022.62
893.432	6940.62
893.671	7004.62
893.911	6936.62
894.15	6845.62
894.39	6791.62
894.629	6816.62
894.869	6806.62
895.108	6729.62
895.347	6682.62
895.587	6727.62
895.826	6671.62
896.065	6613.62
896.304	6682.62
896.543	6676.62
896.782	6538.62
897.021	6647.62
897.26	6643.62
897.499	6655.62
897.738	6579.62
897.977	6586.62
898.216	6473.62
898.454	6471.62
898.693	6454.62
898.932	6458.62
899.17	6386.62
899.409	6364.62
899.647	6370.62
899.886	6386.62
900.124	6433.62
900.363	6388.62
900.601	6403.62
900.839	6433.62
901.078	6482.62
901.316	6438.62
901.554	6533.62
901.792	6621.62
902.03	6589.62
902.268	6613.62
902.506	6662.62
902.744	6533.62
902.982	6502.62
903.22	6401.62
903.458	6308.62
903.695	6218.62
903.933	6113.62
904.171	6050.62
904.409	5926.62
904.646	5916.62
904.884	5818.62
905.121	5727.62
905.359	5693.62
905.596	5679.62
905.833	5523.62
906.071	5555.62
906.308	5586.62
906.545	5543.62
906.783	5495.62
907.02	5534.62
907.257	5480.62
907.494	5479.62
907.731	5490.62
907.968	5459.62
908.205	5406.62
908.442	5360.62
908.679	5383.62
908.915	5309.62
909.152	5292.62
909.389	5200.62
909.626	5210.62
909.862	5151.62
910.099	5166.62
910.335	5179.62
910.572	5114.62
910.808	5138.62
911.045	5068.62
911.281	5041.62
911.518	5089.62
911.754	4998.62
911.99	4989.62
912.226	4989.62
912.463	4884.62
912.699	4919.62
912.935	4922.62
913.171	4838.62
913.407	4771.62
913.643	4831.62
913.879	4792.62
914.114	4709.62
914.35	4656.62
914.586	4600.62
914.822	4556.62
915.057	4651.62
915.293	4523.62
915.529	4480.62
915.764	4586.62
916	4583.62
916.235	4530.62
916.471	4503.62
916.706	4466.62
916.941	4447.62
917.177	4468.62
917.412	4470.62
917.647	4494.62
917.882	4453.62
918.117	4492.62
918.352	4420.62
918.588	4518.62
918.823	4378.62
919.057	4402.62
919.292	4256.62
919.527	4403.62
919.762	4205.62
919.997	4312.62
920.232	4214.62
920.466	4194.62
920.701	4072.62
920.935	4117.62
921.17	4061.62
921.405	4010.62
921.639	4105.62
921.873	4050.62
922.108	4022.62
922.342	4099.62
922.576	3995.62
922.811	4009.62
923.045	4031.62
923.279	4018.62
923.513	3914.62
923.747	3980.62
923.981	3927.62
924.215	3876.62
924.449	3869.62
924.683	3830.62
924.917	3836.62
925.151	3766.62
925.385	3863.62
925.618	3813.62
925.852	3834.62
926.086	3706.62
926.319	3800.62
926.553	3789.62
926.786	3794.62
927.02	3751.62
927.253	3821.62
927.486	3790.62
927.72	3730.62
927.953	3781.62
928.186	3752.62
928.42	3757.62
928.653	3719.62
928.886	3704.62
929.119	3702.62
929.352	3739.62
929.585	3672.62
929.818	3618.62
930.051	3614.62
930.284	3663.62
930.516	3521.62
930.749	3500.62
930.982	3551.62
931.215	3530.62
931.447	3482.62
931.68	3481.62
931.912	3510.62
932.145	3474.62
932.377	3484.62
932.61	3622.62
932.842	3441.62
933.074	3510.62
933.307	3435.62
933.539	3565.62
933.771	3522.62
934.003	3489.62
934.236	3535.62
934.468	3616.62
934.7	3496.62
934.932	3501.62
935.164	3401.62
935.395	3445.62
935.627	3477.62
935.859	3462.62
936.091	3392.62
936.323	3427.62
936.554	3457.62
936.786	3401.62
937.017	3335.62
937.249	3412.62
937.481	3310.62
937.712	3349.62
937.943	3375.62
938.175	3358.62
938.406	3363.62
938.637	3453.62
938.869	3305.62
939.1	3376.62
939.331	3340.62
939.562	3314.62
939.793	3321.62
940.024	3367.62
940.255	3376.62
940.486	3307.62
940.717	3320.62
940.948	3243.62
941.179	3266.62
941.409	3263.62
941.64	3228.62
941.871	3249.62
942.102	3231.62
942.332	3213.62
942.563	3280.62
942.793	3267.62
943.024	3215.62
943.254	3249.62
943.484	3312.62
943.715	3252.62
943.945	3246.62
944.175	3186.62
944.405	3151.62
944.636	3190.62
944.866	3251.62
945.096	3267.62
945.326	3173.62
945.556	3209.62
945.786	3236.62
946.016	3174.62
946.245	3133.62
946.475	3149.62
946.705	3111.62
946.935	3129.62
947.164	3121.62
947.394	3088.62
947.624	3095.62
947.853	3112.62
948.083	3042.62
948.312	3052.62
948.542	2987.62
948.771	2972.62
949	3028.62
949.23	3037.62
949.459	3024.62
949.688	3078.62
949.917	3011.62
950.146	3039.62
950.375	3098.62
950.604	3000.62
950.833	3060.62
951.062	3066.62
951.291	2974.62
951.52	2993.62
951.749	3029.62
951.978	2936.62
952.206	2978.62
952.435	2966.62
952.664	2981.62
952.892	3032.62
953.121	2954.62
953.349	3016.62
953.578	2997.62
953.806	2909.62
954.035	2902.62
954.263	2918.62
954.491	2887.62
954.719	2903.62
954.948	2890.62
955.176	2844.62
955.404	2763.62
955.632	2837.62
955.86	2831.62
956.088	2850.62
956.316	2874.62
956.544	2833.62
956.772	2805.62
956.999	2772.62
957.227	2855.62
957.455	2740.62
957.683	2716.62
957.91	2675.62
958.138	2719.62
958.365	2664.62
958.593	2697.62
958.82	2673.62
959.048	2729.62
959.275	2689.62
959.502	2680.62
959.73	2656.62
959.957	2685.62
960.184	2769.62
960.411	2650.62
960.638	2743.62
960.865	2658.62
961.092	2701.62
961.319	2574.62
961.546	2673.62
961.773	2709.62
962	2630.62
962.227	2669.62
962.454	2630.62
962.68	2660.62
962.907	2636.62
963.134	2584.62
963.36	2626.62
963.587	2632.62
963.813	2577.62
964.04	2558.62
964.266	2501.62
964.493	2626.62
964.719	2588.62
964.945	2558.62
965.171	2464.62
965.398	2548.62
965.624	2523.62
965.85	2444.62
966.076	2480.62
966.302	2489.62
966.528	2466.62
966.754	2503.62
966.98	2491.62
967.206	2461.62
967.431	2417.62
967.657	2511.62
967.883	2435.62
968.109	2459.62
968.334	2435.62
968.56	2409.62
968.785	2383.62
969.011	2370.62
969.236	2461.62
969.462	2352.62
969.687	2355.62
969.912	2414.62
970.138	2416.62
970.363	2321.62
970.588	2358.62
970.813	2348.62
971.038	2328.62
971.263	2386.62
971.488	2379.62
971.713	2390.62
971.938	2369.62
972.163	2279.62
972.388	2285.62
972.613	2280.62
972.838	2284.62
973.062	2284.62
973.287	2271.62
973.512	2185.62
973.736	2245.62
973.961	2191.62
974.185	2224.62
974.41	2250.62
974.634	2168.62
974.858	2193.62
975.083	2195.62
975.307	2220.62
975.531	2139.62
975.755	2098.62
975.98	2112.62
976.204	2061.62
976.428	2085.62
976.652	2082.62
976.876	2073.62
977.1	2090.62
977.324	2051.62
977.547	2114.62
977.771	2112.62
977.995	2079.62
978.219	2027.62
978.442	2118.62
978.666	2081.62
978.89	2046.62
979.113	2049.62
979.337	2057.62
979.56	2012.62
979.783	2103.62
980.007	2036.62
980.23	2021.62
980.453	1991.62
980.677	2030.62
980.9	2000.62
981.123	1910.62
981.346	2002.62
981.569	1955.62
981.792	2015.62
982.015	1958.62
982.238	1930.62
982.461	1943.62
982.684	1939.62
982.907	1908.62
983.129	1858.62
983.352	1960.62
983.575	1921.62
983.797	1942.62
984.02	1890.62
984.242	1895.62
984.465	1911.62
984.687	1891.62
984.91	1927.62
985.132	1877.62
985.354	1880.62
985.577	1874.62
985.799	1865.62
986.021	1782.62
986.243	1808.62
986.465	1822.62
986.687	1843.62
986.909	1900.62
987.131	1837.62
987.353	1778.62
987.575	1847.62
987.797	1810.62
988.019	1768.62
988.241	1838.62
988.462	1781.62
988.684	1845.62
988.906	1866.62
989.127	1866.62
989.349	1749.62
989.57	1789.62
989.792	1811.62
990.013	1845.62
990.234	1824.62
990.456	1834.62
990.677	1828.62
990.898	1773.62
991.119	1773.62
991.341	1809.62
991.562	1748.62
991.783	1782.62
992.004	1699.62
992.225	1684.62
992.446	1731.62
992.667	1655.62
992.887	1716.62
993.108	1646.62
993.329	1784.62
993.55	1710.62
993.77	1620.62
993.991	1664.62
994.212	1690.62
994.432	1670.62
994.653	1666.62
994.873	1677.62
995.093	1559.62
995.314	1617.62
995.534	1684.62
995.754	1705.62
995.975	1715.62
996.195	1597.62
996.415	1666.62
996.635	1626.62
996.855	1645.62
997.075	1636.62
997.295	1636.62
997.515	1594.62
997.735	1672.62
997.955	1625.62
998.174	1635.62
998.394	1608.62
998.614	1651.62
998.834	1584.62
999.053	1688.62
999.273	1647.62
999.492	1709.62
999.712	1623.62
999.931	1546.62
1000.151	1592.62
1000.37	1579.62
1000.589	1636.62
1000.809	1566.62
1001.028	1675.62
1001.247	1600.62
1001.466	1502.62
1001.685	1645.62
1001.904	1606.62
1002.123	1571.62
1002.342	1570.62
1002.561	1546.62
1002.78	1559.62
1002.999	1614.62
1003.218	1541.62
1003.436	1553.62
1003.655	1594.62
1003.874	1543.62
1004.092	1564.62
1004.311	1615.62
1004.53	1563.62
1004.748	1646.62
1004.966	1542.62
1005.185	1579.62
1005.403	1618.62
1005.622	1530.62
1005.84	1634.62
1006.058	1535.62
1006.276	1563.62
1006.494	2077.62
1006.712	1581.62
1006.931	1635.62
1007.149	1558.62
1007.367	1563.62
1007.584	1563.62
1007.802	1661.62
1008.02	1586.62
1008.238	1689.62
1008.456	1716.62
1008.673	1542.62
1008.891	1683.62
1009.109	1649.62
1009.326	1687.62
1009.544	1810.62
1009.761	1732.62
1009.979	1824.62
1010.196	1873.62
1010.413	1952.62
1010.631	2035.62
1010.848	2096.62
1011.065	2124.62
1011.282	2106.62
1011.5	2048.62
1011.717	2112.62
1011.934	2066.62
1012.151	2085.62
1012.368	2058.62
1012.585	1996.62
1012.801	2073.62
1013.018	2034.62
1013.235	2008.62
1013.452	2053.62
1013.669	2057.62
1013.885	2021.62
1014.102	2092.62
1014.318	2069.62
1014.535	1984.62
1014.751	2033.62
1014.968	2031.62
1015.184	2071.62
1015.401	1993.62
1015.617	1986.62
1015.833	1924.62
1016.049	1938.62
1016.266	1927.62
1016.482	1897.62
1016.698	1834.62
1016.914	1872.62
1017.13	1808.62
1017.346	1820.62
1017.562	1870.62
1017.778	1792.62
1017.993	1781.62
1018.209	1814.62
1018.425	1833.62
1018.641	1782.62
1018.856	1781.62
1019.072	1769.62
1019.288	1854.62
1019.503	1756.62
1019.719	1687.62
1019.934	1711.62
1020.149	1791.62
1020.365	1702.62
1020.58	1661.62
1020.795	1686.62
1021.011	1624.62
1021.226	1598.62
1021.441	1590.62
1021.656	1497.62
1021.871	1440.62
1022.086	1430.62
1022.301	1414.62
1022.516	1404.62
1022.731	1448.62
1022.946	1345.62
1023.16	1341.62
1023.375	1306.62
1023.59	1276.62
1023.804	1268.62
1024.019	1315.62
1024.234	1180.62
1024.448	1212.62
1024.663	1133.62
1024.877	1142.62
1025.092	1138.62
1025.306	1171.62
1025.52	1037.62
1025.734	1150.62
1025.949	1041.62
1026.163	1035.62
1026.377	938.62
1026.591	1019.62
1026.805	951.62
1027.019	906.62
1027.233	891.62
1027.447	837.62
1027.661	933.62
1027.875	862.62
1028.088	852.62
1028.302	802.62
1028.516	807.62
1028.73	768.62
1028.943	774.62
1029.157	721.62
1029.37	675.62
1029.584	0.62
1029.797	-2.38
1030.011	-2.38
1030.224	-0.38
