Data from QEP037381__148__15-18-22-883.txt Node

Date: Wed Dec 21 15:18:22 EST 2022
User: dcclab
Spectrometer: QEP03738
Trigger mode: 4
Integration Time (sec): 1.000000E1
Scans to average: 1
Electric dark correction enabled: true
Nonlinearity correction enabled: false
Boxcar width: 0
XAxis mode: Wavelengths
Number of Pixels in Spectrum: 1044
>>>>>Begin Spectral Data<<<<<
784.041	11.75
784.3	3.75
784.558	-5.25
784.817	-5.25
785.075	91786.75
785.334	15116.75
785.592	6871.75
785.851	4697.75
786.109	3561.75
786.368	2764.75
786.626	2240.75
786.884	1874.75
787.143	1581.75
787.401	1295.75
787.659	1196.75
787.917	1015.75
788.175	970.75
788.433	845.75
788.691	763.75
788.949	688.75
789.207	686.75
789.465	581.75
789.723	585.75
789.98	533.75
790.238	557.75
790.496	535.75
790.753	510.75
791.011	568.75
791.268	485.75
791.526	489.75
791.783	508.75
792.041	494.75
792.298	401.75
792.556	479.75
792.813	451.75
793.07	424.75
793.327	412.75
793.584	499.75
793.841	416.75
794.099	437.75
794.356	486.75
794.613	383.75
794.869	450.75
795.126	396.75
795.383	387.75
795.64	395.75
795.897	347.75
796.153	429.75
796.41	394.75
796.667	378.75
796.923	395.75
797.18	388.75
797.436	417.75
797.693	373.75
797.949	426.75
798.206	462.75
798.462	359.75
798.718	418.75
798.974	387.75
799.231	447.75
799.487	431.75
799.743	430.75
799.999	448.75
800.255	436.75
800.511	421.75
800.767	466.75
801.023	442.75
801.279	454.75
801.534	477.75
801.79	515.75
802.046	506.75
802.302	608.75
802.557	645.75
802.813	758.75
803.068	830.75
803.324	1139.75
803.579	1445.75
803.835	1933.75
804.09	2681.75
804.345	3401.75
804.601	4324.75
804.856	5206.75
805.111	6084.75
805.366	6573.75
805.621	7095.75
805.876	7378.75
806.131	7626.75
806.386	7731.75
806.641	7833.75
806.896	8001.75
807.151	8136.75
807.406	8251.75
807.661	8414.75
807.915	8591.75
808.17	8712.75
808.425	8849.75
808.679	8917.75
808.934	9124.75
809.188	9110.75
809.443	9316.75
809.697	9369.75
809.951	9390.75
810.206	9494.75
810.46	9635.75
810.714	9750.75
810.968	9881.75
811.223	9914.75
811.477	10058.75
811.731	10152.75
811.985	10119.75
812.239	10146.75
812.493	10248.75
812.747	10312.75
813	10278.75
813.254	10452.75
813.508	10478.75
813.762	10556.75
814.015	10505.75
814.269	10642.75
814.522	10818.75
814.776	10854.75
815.03	10982.75
815.283	11172.75
815.536	11404.75
815.79	11599.75
816.043	11669.75
816.296	11956.75
816.55	12102.75
816.803	12273.75
817.056	12483.75
817.309	12558.75
817.562	12674.75
817.815	12849.75
818.068	12925.75
818.321	13122.75
818.574	13259.75
818.827	13531.75
819.079	13637.75
819.332	13965.75
819.585	14160.75
819.838	14286.75
820.09	14302.75
820.343	14504.75
820.595	14548.75
820.848	14649.75
821.1	14704.75
821.353	14741.75
821.605	14684.75
821.857	14770.75
822.11	14579.75
822.362	14615.75
822.614	14647.75
822.866	14613.75
823.118	14568.75
823.37	14812.75
823.622	14797.75
823.874	14801.75
824.126	15037.75
824.378	14917.75
824.63	15070.75
824.882	15094.75
825.134	15021.75
825.385	15067.75
825.637	14976.75
825.888	14905.75
826.14	14871.75
826.392	14854.75
826.643	14774.75
826.895	14840.75
827.146	14704.75
827.397	14663.75
827.649	14760.75
827.9	14632.75
828.151	14695.75
828.402	14776.75
828.653	14889.75
828.905	14925.75
829.156	14979.75
829.407	14903.75
829.658	14980.75
829.909	15057.75
830.159	15097.75
830.41	14952.75
830.661	14876.75
830.912	14856.75
831.162	14827.75
831.413	14866.75
831.664	14881.75
831.914	14830.75
832.165	14870.75
832.415	14814.75
832.666	14812.75
832.916	14898.75
833.167	14812.75
833.417	14934.75
833.667	14761.75
833.917	14771.75
834.168	14815.75
834.418	14721.75
834.668	14719.75
834.918	14593.75
835.168	14587.75
835.418	14529.75
835.668	14528.75
835.918	14464.75
836.167	14462.75
836.417	14428.75
836.667	14421.75
836.917	14436.75
837.166	14419.75
837.416	14485.75
837.666	14459.75
837.915	14435.75
838.165	14412.75
838.414	14398.75
838.663	14337.75
838.913	14343.75
839.162	14441.75
839.411	14507.75
839.661	14344.75
839.91	14367.75
840.159	14286.75
840.408	14422.75
840.657	14378.75
840.906	14452.75
841.155	14449.75
841.404	14443.75
841.653	14475.75
841.902	14532.75
842.15	14511.75
842.399	14492.75
842.648	14524.75
842.897	14402.75
843.145	14409.75
843.394	14210.75
843.642	14240.75
843.891	14221.75
844.139	14064.75
844.388	14012.75
844.636	13943.75
844.884	14022.75
845.133	13993.75
845.381	13930.75
845.629	14000.75
845.877	13930.75
846.125	14017.75
846.373	14002.75
846.621	13923.75
846.869	13927.75
847.117	13806.75
847.365	13799.75
847.613	13719.75
847.861	13752.75
848.108	13747.75
848.356	13773.75
848.604	13623.75
848.851	13723.75
849.099	13789.75
849.346	13853.75
849.594	13896.75
849.841	13982.75
850.089	14010.75
850.336	14088.75
850.583	14112.75
850.831	14212.75
851.078	14100.75
851.325	14100.75
851.572	14274.75
851.819	14169.75
852.066	13731.75
852.313	13436.75
852.56	13321.75
852.807	13265.75
853.054	13190.75
853.301	13238.75
853.548	13328.75
853.794	13424.75
854.041	13499.75
854.288	13580.75
854.534	13689.75
854.781	13603.75
855.028	13534.75
855.274	13652.75
855.52	13543.75
855.767	13466.75
856.013	13567.75
856.26	13831.75
856.506	13394.75
856.752	13341.75
856.998	13300.75
857.244	13412.75
857.49	13506.75
857.736	13496.75
857.982	13596.75
858.228	13502.75
858.474	13323.75
858.72	13269.75
858.966	13168.75
859.212	12971.75
859.458	12877.75
859.703	12722.75
859.949	12602.75
860.195	12571.75
860.44	12609.75
860.686	12450.75
860.931	12532.75
861.177	12382.75
861.422	12339.75
861.667	12294.75
861.913	12267.75
862.158	12381.75
862.403	12334.75
862.648	12405.75
862.893	12549.75
863.138	12348.75
863.384	12380.75
863.629	12427.75
863.873	12361.75
864.118	12297.75
864.363	12214.75
864.608	12336.75
864.853	12291.75
865.098	12110.75
865.342	12141.75
865.587	12106.75
865.832	12185.75
866.076	12114.75
866.321	12101.75
866.565	12096.75
866.81	11999.75
867.054	12064.75
867.298	11915.75
867.543	11872.75
867.787	12029.75
868.031	12002.75
868.275	11915.75
868.519	11915.75
868.764	11954.75
869.008	11987.75
869.252	12014.75
869.496	11904.75
869.739	11993.75
869.983	12001.75
870.227	12024.75
870.471	12014.75
870.715	12136.75
870.958	12162.75
871.202	12210.75
871.446	12216.75
871.689	12253.75
871.933	12232.75
872.176	12141.75
872.42	12064.75
872.663	12085.75
872.906	12170.75
873.15	12108.75
873.393	12025.75
873.636	12091.75
873.879	11981.75
874.122	11797.75
874.366	11702.75
874.609	11618.75
874.852	11501.75
875.095	11478.75
875.337	11308.75
875.58	11351.75
875.823	11355.75
876.066	11217.75
876.309	11243.75
876.551	11119.75
876.794	11160.75
877.037	11162.75
877.279	11152.75
877.522	11078.75
877.764	11082.75
878.007	10999.75
878.249	11069.75
878.491	10967.75
878.734	11012.75
878.976	10919.75
879.218	10907.75
879.46	10815.75
879.702	10757.75
879.945	10700.75
880.187	10580.75
880.429	10614.75
880.671	10498.75
880.912	10536.75
881.154	10397.75
881.396	10334.75
881.638	10421.75
881.88	10484.75
882.121	10399.75
882.363	10388.75
882.605	10479.75
882.846	10444.75
883.088	10458.75
883.329	10448.75
883.571	10567.75
883.812	10700.75
884.053	10923.75
884.295	11198.75
884.536	11415.75
884.777	11318.75
885.018	11295.75
885.259	11293.75
885.5	11147.75
885.742	11356.75
885.982	11071.75
886.223	10980.75
886.464	10830.75
886.705	10722.75
886.946	10572.75
887.187	10390.75
887.428	10229.75
887.668	9965.75
887.909	9871.75
888.15	9780.75
888.39	9748.75
888.631	9656.75
888.871	9642.75
889.111	9505.75
889.352	9478.75
889.592	9404.75
889.833	9249.75
890.073	9184.75
890.313	9227.75
890.553	9018.75
890.793	9050.75
891.033	9044.75
891.273	8946.75
891.513	8930.75
891.753	8964.75
891.993	9009.75
892.233	8970.75
892.473	9008.75
892.713	9049.75
892.952	8963.75
893.192	9030.75
893.432	9011.75
893.671	9071.75
893.911	8968.75
894.15	8947.75
894.39	8932.75
894.629	8848.75
894.869	8797.75
895.108	8735.75
895.347	8743.75
895.587	8817.75
895.826	8725.75
896.065	8727.75
896.304	8777.75
896.543	8754.75
896.782	8595.75
897.021	8690.75
897.26	8599.75
897.499	8722.75
897.738	8725.75
897.977	8685.75
898.216	8549.75
898.454	8523.75
898.693	8495.75
898.932	8487.75
899.17	8441.75
899.409	8371.75
899.647	8373.75
899.886	8422.75
900.124	8400.75
900.363	8404.75
900.601	8476.75
900.839	8576.75
901.078	8587.75
901.316	8718.75
901.554	8727.75
901.792	8885.75
902.03	8819.75
902.268	8873.75
902.506	8867.75
902.744	8793.75
902.982	8750.75
903.22	8524.75
903.458	8354.75
903.695	8250.75
903.933	8184.75
904.171	7958.75
904.409	7807.75
904.646	7745.75
904.884	7560.75
905.121	7539.75
905.359	7434.75
905.596	7305.75
905.833	7275.75
906.071	7216.75
906.308	7269.75
906.545	7225.75
906.783	7091.75
907.02	7147.75
907.257	7104.75
907.494	7134.75
907.731	7117.75
907.968	7110.75
908.205	7001.75
908.442	6994.75
908.679	6955.75
908.915	6900.75
909.152	6892.75
909.389	6717.75
909.626	6756.75
909.862	6729.75
910.099	6671.75
910.335	6666.75
910.572	6513.75
910.808	6602.75
911.045	6554.75
911.281	6503.75
911.518	6570.75
911.754	6506.75
911.99	6471.75
912.226	6379.75
912.463	6349.75
912.699	6365.75
912.935	6309.75
913.171	6267.75
913.407	6169.75
913.643	6217.75
913.879	6133.75
914.114	6059.75
914.35	5976.75
914.586	5965.75
914.822	5878.75
915.057	6021.75
915.293	5813.75
915.529	5809.75
915.764	5871.75
916	5861.75
916.235	5806.75
916.471	5797.75
916.706	5734.75
916.941	5765.75
917.177	5763.75
917.412	5803.75
917.647	5778.75
917.882	5756.75
918.117	5779.75
918.352	5752.75
918.588	5787.75
918.823	5664.75
919.057	5644.75
919.292	5547.75
919.527	5566.75
919.762	5421.75
919.997	5522.75
920.232	5341.75
920.466	5404.75
920.701	5237.75
920.935	5261.75
921.17	5234.75
921.405	5170.75
921.639	5310.75
921.873	5229.75
922.108	5223.75
922.342	5241.75
922.576	5130.75
922.811	5122.75
923.045	5161.75
923.279	5160.75
923.513	5001.75
923.747	5110.75
923.981	5041.75
924.215	4967.75
924.449	5008.75
924.683	4863.75
924.917	4880.75
925.151	4883.75
925.385	4903.75
925.618	4896.75
925.852	4892.75
926.086	4847.75
926.319	4893.75
926.553	4874.75
926.786	4885.75
927.02	4863.75
927.253	4891.75
927.486	4872.75
927.72	4819.75
927.953	4862.75
928.186	4806.75
928.42	4832.75
928.653	4744.75
928.886	4763.75
929.119	4766.75
929.352	4748.75
929.585	4679.75
929.818	4671.75
930.051	4651.75
930.284	4616.75
930.516	4519.75
930.749	4574.75
930.982	4608.75
931.215	4520.75
931.447	4449.75
931.68	4441.75
931.912	4430.75
932.145	4418.75
932.377	4458.75
932.61	4564.75
932.842	4402.75
933.074	4522.75
933.307	4444.75
933.539	4548.75
933.771	4488.75
934.003	4515.75
934.236	4506.75
934.468	4487.75
934.7	4422.75
934.932	4418.75
935.164	4437.75
935.395	4416.75
935.627	4422.75
935.859	4374.75
936.091	4313.75
936.323	4411.75
936.554	4420.75
936.786	4353.75
937.017	4315.75
937.249	4324.75
937.481	4248.75
937.712	4302.75
937.943	4315.75
938.175	4293.75
938.406	4284.75
938.637	4369.75
938.869	4208.75
939.1	4292.75
939.331	4226.75
939.562	4268.75
939.793	4235.75
940.024	4256.75
940.255	4241.75
940.486	4182.75
940.717	4196.75
940.948	4159.75
941.179	4097.75
941.409	4155.75
941.64	4120.75
941.871	4159.75
942.102	4082.75
942.332	4141.75
942.563	4173.75
942.793	4120.75
943.024	4030.75
943.254	4127.75
943.484	4171.75
943.715	4165.75
943.945	4113.75
944.175	4058.75
944.405	4035.75
944.636	4072.75
944.866	4114.75
945.096	4065.75
945.326	3986.75
945.556	4081.75
945.786	4074.75
946.016	4028.75
946.245	3964.75
946.475	4010.75
946.705	4001.75
946.935	3951.75
947.164	3974.75
947.394	3825.75
947.624	3884.75
947.853	3922.75
948.083	3869.75
948.312	3869.75
948.542	3778.75
948.771	3763.75
949	3795.75
949.23	3821.75
949.459	3817.75
949.688	3825.75
949.917	3798.75
950.146	3835.75
950.375	3883.75
950.604	3757.75
950.833	3831.75
951.062	3878.75
951.291	3725.75
951.52	3800.75
951.749	3795.75
951.978	3728.75
952.206	3691.75
952.435	3673.75
952.664	3701.75
952.892	3725.75
953.121	3727.75
953.349	3710.75
953.578	3733.75
953.806	3670.75
954.035	3638.75
954.263	3650.75
954.491	3591.75
954.719	3645.75
954.948	3548.75
955.176	3598.75
955.404	3503.75
955.632	3530.75
955.86	3566.75
956.088	3532.75
956.316	3582.75
956.544	3554.75
956.772	3498.75
956.999	3475.75
957.227	3526.75
957.455	3430.75
957.683	3429.75
957.91	3366.75
958.138	3373.75
958.365	3379.75
958.593	3345.75
958.82	3310.75
959.048	3405.75
959.275	3324.75
959.502	3309.75
959.73	3306.75
959.957	3325.75
960.184	3364.75
960.411	3317.75
960.638	3392.75
960.865	3302.75
961.092	3299.75
961.319	3217.75
961.546	3326.75
961.773	3315.75
962	3288.75
962.227	3319.75
962.454	3278.75
962.68	3263.75
962.907	3244.75
963.134	3187.75
963.36	3211.75
963.587	3211.75
963.813	3155.75
964.04	3217.75
964.266	3125.75
964.493	3182.75
964.719	3164.75
964.945	3161.75
965.171	3073.75
965.398	3107.75
965.624	3132.75
965.85	3018.75
966.076	3046.75
966.302	3049.75
966.528	3042.75
966.754	3055.75
966.98	3027.75
967.206	3027.75
967.431	2960.75
967.657	3021.75
967.883	3002.75
968.109	2968.75
968.334	2932.75
968.56	2927.75
968.785	2935.75
969.011	2892.75
969.236	2972.75
969.462	2900.75
969.687	2908.75
969.912	2985.75
970.138	2934.75
970.363	2823.75
970.588	2879.75
970.813	2866.75
971.038	2827.75
971.263	2886.75
971.488	2895.75
971.713	2880.75
971.938	2881.75
972.163	2746.75
972.388	2829.75
972.613	2786.75
972.838	2772.75
973.062	2744.75
973.287	2752.75
973.512	2667.75
973.736	2741.75
973.961	2697.75
974.185	2693.75
974.41	2707.75
974.634	2622.75
974.858	2637.75
975.083	2680.75
975.307	2650.75
975.531	2647.75
975.755	2584.75
975.98	2529.75
976.204	2554.75
976.428	2548.75
976.652	2511.75
976.876	2500.75
977.1	2567.75
977.324	2497.75
977.547	2521.75
977.771	2542.75
977.995	2515.75
978.219	2450.75
978.442	2577.75
978.666	2481.75
978.89	2472.75
979.113	2479.75
979.337	2459.75
979.56	2439.75
979.783	2503.75
980.007	2445.75
980.23	2444.75
980.453	2381.75
980.677	2456.75
980.9	2431.75
981.123	2324.75
981.346	2404.75
981.569	2391.75
981.792	2403.75
982.015	2360.75
982.238	2367.75
982.461	2326.75
982.684	2325.75
982.907	2300.75
983.129	2294.75
983.352	2327.75
983.575	2300.75
983.797	2317.75
984.02	2234.75
984.242	2233.75
984.465	2240.75
984.687	2267.75
984.91	2301.75
985.132	2231.75
985.354	2284.75
985.577	2235.75
985.799	2222.75
986.021	2140.75
986.243	2157.75
986.465	2181.75
986.687	2250.75
986.909	2259.75
987.131	2178.75
987.353	2140.75
987.575	2217.75
987.797	2154.75
988.019	2071.75
988.241	2131.75
988.462	2094.75
988.684	2132.75
988.906	2185.75
989.127	2175.75
989.349	2081.75
989.57	2142.75
989.792	2171.75
990.013	2177.75
990.234	2184.75
990.456	2177.75
990.677	2169.75
990.898	2092.75
991.119	2085.75
991.341	2094.75
991.562	2053.75
991.783	2079.75
992.004	2057.75
992.225	1988.75
992.446	2052.75
992.667	1977.75
992.887	2059.75
993.108	1952.75
993.329	2094.75
993.55	2019.75
993.77	1930.75
993.991	1932.75
994.212	1978.75
994.432	2011.75
994.653	1979.75
994.873	1980.75
995.093	1877.75
995.314	1931.75
995.534	1976.75
995.754	1969.75
995.975	1997.75
996.195	1881.75
996.415	1924.75
996.635	1916.75
996.855	1949.75
997.075	1887.75
997.295	1914.75
997.515	1868.75
997.735	1946.75
997.955	1917.75
998.174	1889.75
998.394	1882.75
998.614	1911.75
998.834	1868.75
999.053	1938.75
999.273	1884.75
999.492	1941.75
999.712	1902.75
999.931	1858.75
1000.151	1872.75
1000.37	1829.75
1000.589	1903.75
1000.809	1823.75
1001.028	1902.75
1001.247	1850.75
1001.466	1759.75
1001.685	1915.75
1001.904	1822.75
1002.123	1809.75
1002.342	1827.75
1002.561	1797.75
1002.78	1788.75
1002.999	1843.75
1003.218	1789.75
1003.436	1755.75
1003.655	1823.75
1003.874	1794.75
1004.092	1770.75
1004.311	1825.75
1004.53	1778.75
1004.748	1867.75
1004.966	1754.75
1005.185	1838.75
1005.403	1823.75
1005.622	1793.75
1005.84	1875.75
1006.058	1771.75
1006.276	1780.75
1006.494	2266.75
1006.712	1788.75
1006.931	1880.75
1007.149	1764.75
1007.367	1756.75
1007.584	1788.75
1007.802	1829.75
1008.02	1809.75
1008.238	1925.75
1008.456	1921.75
1008.673	1818.75
1008.891	1907.75
1009.109	1871.75
1009.326	1967.75
1009.544	2082.75
1009.761	2012.75
1009.979	2100.75
1010.196	2138.75
1010.413	2326.75
1010.631	2401.75
1010.848	2469.75
1011.065	2498.75
1011.282	2448.75
1011.5	2397.75
1011.717	2501.75
1011.934	2422.75
1012.151	2429.75
1012.368	2439.75
1012.585	2378.75
1012.801	2429.75
1013.018	2453.75
1013.235	2428.75
1013.452	2441.75
1013.669	2471.75
1013.885	2442.75
1014.102	2522.75
1014.318	2504.75
1014.535	2397.75
1014.751	2502.75
1014.968	2484.75
1015.184	2443.75
1015.401	2382.75
1015.617	2445.75
1015.833	2342.75
1016.049	2348.75
1016.266	2312.75
1016.482	2311.75
1016.698	2258.75
1016.914	2283.75
1017.13	2216.75
1017.346	2231.75
1017.562	2331.75
1017.778	2253.75
1017.993	2223.75
1018.209	2259.75
1018.425	2243.75
1018.641	2227.75
1018.856	2199.75
1019.072	2255.75
1019.288	2272.75
1019.503	2196.75
1019.719	2160.75
1019.934	2161.75
1020.149	2232.75
1020.365	2121.75
1020.58	2061.75
1020.795	2081.75
1021.011	2021.75
1021.226	1949.75
1021.441	1977.75
1021.656	1868.75
1021.871	1779.75
1022.086	1762.75
1022.301	1749.75
1022.516	1733.75
1022.731	1779.75
1022.946	1639.75
1023.16	1626.75
1023.375	1604.75
1023.59	1535.75
1023.804	1527.75
1024.019	1583.75
1024.234	1449.75
1024.448	1506.75
1024.663	1374.75
1024.877	1359.75
1025.092	1366.75
1025.306	1380.75
1025.52	1287.75
1025.734	1322.75
1025.949	1272.75
1026.163	1204.75
1026.377	1143.75
1026.591	1187.75
1026.805	1104.75
1027.019	1098.75
1027.233	1058.75
1027.447	1003.75
1027.661	1115.75
1027.875	1017.75
1028.088	1018.75
1028.302	956.75
1028.516	931.75
1028.73	912.75
1028.943	918.75
1029.157	848.75
1029.37	800.75
1029.584	0.75
1029.797	-2.25
1030.011	-1.25
1030.224	-2.25
