Data from QEP037381__141__15-17-12-883.txt Node

Date: Wed Dec 21 15:17:12 EST 2022
User: dcclab
Spectrometer: QEP03738
Trigger mode: 4
Integration Time (sec): 1.000000E1
Scans to average: 1
Electric dark correction enabled: true
Nonlinearity correction enabled: false
Boxcar width: 0
XAxis mode: Wavelengths
Number of Pixels in Spectrum: 1044
>>>>>Begin Spectral Data<<<<<
784.041	10.12
784.3	4.12
784.558	1.12
784.817	-1.88
785.075	88136.12
785.334	15452.12
785.592	7310.12
785.851	5037.12
786.109	3797.12
786.368	2975.12
786.626	2403.12
786.884	2016.12
787.143	1680.12
787.401	1379.12
787.659	1262.12
787.917	1088.12
788.175	991.12
788.433	872.12
788.691	794.12
788.949	730.12
789.207	707.12
789.465	594.12
789.723	587.12
789.98	527.12
790.238	582.12
790.496	531.12
790.753	514.12
791.011	554.12
791.268	513.12
791.526	506.12
791.783	508.12
792.041	480.12
792.298	416.12
792.556	479.12
792.813	451.12
793.07	434.12
793.327	418.12
793.584	499.12
793.841	422.12
794.099	445.12
794.356	507.12
794.613	416.12
794.869	443.12
795.126	402.12
795.383	405.12
795.64	416.12
795.897	363.12
796.153	421.12
796.41	404.12
796.667	384.12
796.923	407.12
797.18	398.12
797.436	430.12
797.693	389.12
797.949	449.12
798.206	460.12
798.462	383.12
798.718	426.12
798.974	408.12
799.231	437.12
799.487	429.12
799.743	446.12
799.999	467.12
800.255	457.12
800.511	432.12
800.767	480.12
801.023	460.12
801.279	487.12
801.534	520.12
801.79	536.12
802.046	555.12
802.302	645.12
802.557	703.12
802.813	840.12
803.068	955.12
803.324	1317.12
803.579	1712.12
803.835	2314.12
804.09	3173.12
804.345	4030.12
804.601	5066.12
804.856	6081.12
805.111	7073.12
805.366	7732.12
805.621	8280.12
805.876	8660.12
806.131	8829.12
806.386	9020.12
806.641	9185.12
806.896	9397.12
807.151	9622.12
807.406	9713.12
807.661	9859.12
807.915	10063.12
808.17	10199.12
808.425	10292.12
808.679	10396.12
808.934	10634.12
809.188	10743.12
809.443	10878.12
809.697	10983.12
809.951	11130.12
810.206	11086.12
810.46	11373.12
810.714	11462.12
810.968	11531.12
811.223	11588.12
811.477	11814.12
811.731	11843.12
811.985	11826.12
812.239	11886.12
812.493	12028.12
812.747	12118.12
813	12148.12
813.254	12198.12
813.508	12219.12
813.762	12319.12
814.015	12382.12
814.269	12522.12
814.522	12681.12
814.776	12720.12
815.03	12941.12
815.283	13151.12
815.536	13247.12
815.79	13587.12
816.043	13851.12
816.296	14005.12
816.55	14152.12
816.803	14400.12
817.056	14523.12
817.309	14745.12
817.562	14888.12
817.815	15067.12
818.068	15118.12
818.321	15308.12
818.574	15597.12
818.827	15873.12
819.079	16007.12
819.332	16293.12
819.585	16478.12
819.838	16803.12
820.09	16909.12
820.343	16937.12
820.595	17106.12
820.848	17126.12
821.1	17303.12
821.353	17097.12
821.605	17228.12
821.857	17222.12
822.11	17073.12
822.362	17081.12
822.614	17134.12
822.866	17112.12
823.118	17114.12
823.37	17307.12
823.622	17360.12
823.874	17433.12
824.126	17606.12
824.378	17412.12
824.63	17547.12
824.882	17601.12
825.134	17566.12
825.385	17619.12
825.637	17494.12
825.888	17508.12
826.14	17446.12
826.392	17402.12
826.643	17348.12
826.895	17274.12
827.146	17181.12
827.397	17199.12
827.649	17232.12
827.9	17175.12
828.151	17158.12
828.402	17252.12
828.653	17377.12
828.905	17456.12
829.156	17400.12
829.407	17479.12
829.658	17511.12
829.909	17555.12
830.159	17667.12
830.41	17524.12
830.661	17485.12
830.912	17252.12
831.162	17295.12
831.413	17343.12
831.664	17374.12
831.914	17283.12
832.165	17221.12
832.415	17243.12
832.666	17328.12
832.916	17364.12
833.167	17307.12
833.417	17269.12
833.667	17332.12
833.917	17186.12
834.168	17264.12
834.418	17199.12
834.668	17205.12
834.918	17066.12
835.168	17027.12
835.418	16795.12
835.668	16841.12
835.918	16937.12
836.167	16857.12
836.417	16774.12
836.667	16875.12
836.917	16888.12
837.166	16818.12
837.416	16869.12
837.666	16917.12
837.915	16775.12
838.165	16760.12
838.414	16782.12
838.663	16667.12
838.913	16788.12
839.162	16727.12
839.411	16709.12
839.661	16642.12
839.91	16684.12
840.159	16696.12
840.408	16692.12
840.657	16848.12
840.906	16784.12
841.155	16815.12
841.404	16749.12
841.653	16775.12
841.902	16782.12
842.15	16927.12
842.399	16850.12
842.648	16865.12
842.897	16817.12
843.145	16648.12
843.394	16536.12
843.642	16473.12
843.891	16602.12
844.139	16386.12
844.388	16264.12
844.636	16222.12
844.884	16316.12
845.133	16276.12
845.381	16180.12
845.629	16310.12
845.877	16241.12
846.125	16262.12
846.373	16221.12
846.621	16152.12
846.869	16226.12
847.117	16106.12
847.365	15956.12
847.613	15806.12
847.861	15918.12
848.108	15991.12
848.356	15852.12
848.604	15919.12
848.851	15957.12
849.099	15991.12
849.346	16023.12
849.594	16141.12
849.841	16163.12
850.089	16256.12
850.336	16310.12
850.583	16426.12
850.831	16390.12
851.078	16314.12
851.325	16414.12
851.572	16474.12
851.819	16250.12
852.066	15768.12
852.313	15578.12
852.56	15374.12
852.807	15291.12
853.054	15210.12
853.301	15267.12
853.548	15322.12
853.794	15584.12
854.041	15503.12
854.288	15534.12
854.534	15750.12
854.781	15714.12
855.028	15639.12
855.274	15619.12
855.52	15571.12
855.767	15481.12
856.013	15480.12
856.26	15879.12
856.506	15406.12
856.752	15293.12
856.998	15368.12
857.244	15376.12
857.49	15521.12
857.736	15429.12
857.982	15599.12
858.228	15500.12
858.474	15286.12
858.72	15248.12
858.966	15123.12
859.212	14966.12
859.458	14749.12
859.703	14600.12
859.949	14478.12
860.195	14481.12
860.44	14405.12
860.686	14264.12
860.931	14412.12
861.177	14261.12
861.422	14276.12
861.667	14045.12
861.913	14081.12
862.158	14153.12
862.403	14191.12
862.648	14232.12
862.893	14356.12
863.138	14376.12
863.384	14306.12
863.629	14108.12
863.873	14202.12
864.118	14262.12
864.363	14110.12
864.608	14157.12
864.853	14096.12
865.098	14001.12
865.342	13923.12
865.587	13918.12
865.832	13950.12
866.076	13890.12
866.321	13806.12
866.565	13876.12
866.81	13767.12
867.054	13818.12
867.298	13772.12
867.543	13640.12
867.787	13701.12
868.031	13657.12
868.275	13733.12
868.519	13670.12
868.764	13684.12
869.008	13638.12
869.252	13639.12
869.496	13598.12
869.739	13658.12
869.983	13595.12
870.227	13719.12
870.471	13673.12
870.715	13780.12
870.958	13848.12
871.202	13868.12
871.446	13868.12
871.689	13900.12
871.933	13818.12
872.176	13800.12
872.42	13777.12
872.663	13749.12
872.906	13825.12
873.15	13701.12
873.393	13596.12
873.636	13818.12
873.879	13603.12
874.122	13423.12
874.366	13196.12
874.609	13157.12
874.852	12995.12
875.095	13000.12
875.337	12884.12
875.58	12851.12
875.823	12823.12
876.066	12859.12
876.309	12842.12
876.551	12657.12
876.794	12651.12
877.037	12643.12
877.279	12590.12
877.522	12509.12
877.764	12549.12
878.007	12519.12
878.249	12569.12
878.491	12385.12
878.734	12505.12
878.976	12355.12
879.218	12308.12
879.46	12311.12
879.702	12243.12
879.945	12105.12
880.187	11962.12
880.429	11973.12
880.671	11933.12
880.912	11894.12
881.154	11797.12
881.396	11685.12
881.638	11805.12
881.88	11879.12
882.121	11741.12
882.363	11796.12
882.605	11857.12
882.846	11794.12
883.088	11781.12
883.329	11844.12
883.571	11736.12
883.812	11959.12
884.053	12222.12
884.295	12515.12
884.536	12805.12
884.777	12639.12
885.018	12661.12
885.259	12592.12
885.5	12427.12
885.742	12716.12
885.982	12434.12
886.223	12209.12
886.464	12181.12
886.705	11992.12
886.946	11920.12
887.187	11665.12
887.428	11523.12
887.668	11308.12
887.909	11133.12
888.15	11003.12
888.39	10928.12
888.631	10903.12
888.871	10861.12
889.111	10740.12
889.352	10577.12
889.592	10471.12
889.833	10461.12
890.073	10351.12
890.313	10372.12
890.553	10236.12
890.793	10212.12
891.033	10178.12
891.273	10101.12
891.513	10126.12
891.753	10022.12
891.993	10146.12
892.233	10145.12
892.473	10172.12
892.713	10100.12
892.952	10085.12
893.192	10137.12
893.432	10164.12
893.671	10201.12
893.911	10087.12
894.15	10110.12
894.39	9937.12
894.629	9923.12
894.869	9908.12
895.108	9818.12
895.347	9767.12
895.587	9825.12
895.826	9738.12
896.065	9806.12
896.304	9787.12
896.543	9826.12
896.782	9659.12
897.021	9786.12
897.26	9716.12
897.499	9815.12
897.738	9790.12
897.977	9764.12
898.216	9646.12
898.454	9556.12
898.693	9523.12
898.932	9486.12
899.17	9473.12
899.409	9395.12
899.647	9385.12
899.886	9354.12
900.124	9460.12
900.363	9442.12
900.601	9435.12
900.839	9513.12
901.078	9612.12
901.316	9640.12
901.554	9749.12
901.792	9846.12
902.03	9801.12
902.268	9852.12
902.506	9870.12
902.744	9734.12
902.982	9629.12
903.22	9432.12
903.458	9286.12
903.695	9098.12
903.933	9032.12
904.171	8834.12
904.409	8727.12
904.646	8610.12
904.884	8521.12
905.121	8448.12
905.359	8277.12
905.596	8192.12
905.833	8086.12
906.071	8083.12
906.308	8095.12
906.545	7963.12
906.783	7940.12
907.02	7950.12
907.257	7902.12
907.494	7908.12
907.731	7923.12
907.968	7916.12
908.205	7830.12
908.442	7770.12
908.679	7731.12
908.915	7679.12
909.152	7561.12
909.389	7492.12
909.626	7467.12
909.862	7462.12
910.099	7400.12
910.335	7398.12
910.572	7277.12
910.808	7328.12
911.045	7288.12
911.281	7283.12
911.518	7352.12
911.754	7250.12
911.99	7165.12
912.226	7129.12
912.463	7047.12
912.699	7069.12
912.935	6972.12
913.171	6912.12
913.407	6839.12
913.643	6888.12
913.879	6751.12
914.114	6682.12
914.35	6672.12
914.586	6613.12
914.822	6537.12
915.057	6590.12
915.293	6440.12
915.529	6391.12
915.764	6485.12
916	6453.12
916.235	6405.12
916.471	6468.12
916.706	6347.12
916.941	6354.12
917.177	6367.12
917.412	6392.12
917.647	6386.12
917.882	6310.12
918.117	6371.12
918.352	6324.12
918.588	6331.12
918.823	6247.12
919.057	6231.12
919.292	6077.12
919.527	6144.12
919.762	6043.12
919.997	6095.12
920.232	5906.12
920.466	5934.12
920.701	5745.12
920.935	5782.12
921.17	5751.12
921.405	5755.12
921.639	5744.12
921.873	5690.12
922.108	5693.12
922.342	5695.12
922.576	5623.12
922.811	5674.12
923.045	5679.12
923.279	5693.12
923.513	5534.12
923.747	5609.12
923.981	5517.12
924.215	5455.12
924.449	5493.12
924.683	5401.12
924.917	5400.12
925.151	5361.12
925.385	5398.12
925.618	5332.12
925.852	5343.12
926.086	5257.12
926.319	5321.12
926.553	5334.12
926.786	5333.12
927.02	5282.12
927.253	5401.12
927.486	5329.12
927.72	5297.12
927.953	5303.12
928.186	5285.12
928.42	5295.12
928.653	5189.12
928.886	5176.12
929.119	5228.12
929.352	5148.12
929.585	5132.12
929.818	5056.12
930.051	5087.12
930.284	5086.12
930.516	4932.12
930.749	4916.12
930.982	4977.12
931.215	4963.12
931.447	4859.12
931.68	4863.12
931.912	4888.12
932.145	4843.12
932.377	4861.12
932.61	5068.12
932.842	4780.12
933.074	4882.12
933.307	4801.12
933.539	4889.12
933.771	4858.12
934.003	4885.12
934.236	4947.12
934.468	4939.12
934.7	4834.12
934.932	4848.12
935.164	4783.12
935.395	4796.12
935.627	4806.12
935.859	4813.12
936.091	4758.12
936.323	4778.12
936.554	4775.12
936.786	4705.12
937.017	4678.12
937.249	4689.12
937.481	4608.12
937.712	4745.12
937.943	4647.12
938.175	4675.12
938.406	4626.12
938.637	4676.12
938.869	4603.12
939.1	4648.12
939.331	4569.12
939.562	4617.12
939.793	4603.12
940.024	4581.12
940.255	4596.12
940.486	4532.12
940.717	4517.12
940.948	4490.12
941.179	4423.12
941.409	4446.12
941.64	4481.12
941.871	4513.12
942.102	4451.12
942.332	4466.12
942.563	4470.12
942.793	4487.12
943.024	4408.12
943.254	4463.12
943.484	4485.12
943.715	4463.12
943.945	4478.12
944.175	4386.12
944.405	4346.12
944.636	4386.12
944.866	4421.12
945.096	4419.12
945.326	4348.12
945.556	4415.12
945.786	4474.12
946.016	4333.12
946.245	4275.12
946.475	4249.12
946.705	4253.12
946.935	4256.12
947.164	4234.12
947.394	4197.12
947.624	4182.12
947.853	4230.12
948.083	4175.12
948.312	4171.12
948.542	4094.12
948.771	4047.12
949	4083.12
949.23	4111.12
949.459	4101.12
949.688	4147.12
949.917	4057.12
950.146	4088.12
950.375	4150.12
950.604	4028.12
950.833	4107.12
951.062	4098.12
951.291	4062.12
951.52	4019.12
951.749	4000.12
951.978	3994.12
952.206	4017.12
952.435	3956.12
952.664	4010.12
952.892	4022.12
953.121	3967.12
953.349	3990.12
953.578	3965.12
953.806	3890.12
954.035	3863.12
954.263	3904.12
954.491	3825.12
954.719	3867.12
954.948	3805.12
955.176	3801.12
955.404	3670.12
955.632	3785.12
955.86	3777.12
956.088	3752.12
956.316	3736.12
956.544	3810.12
956.772	3692.12
956.999	3688.12
957.227	3764.12
957.455	3646.12
957.683	3641.12
957.91	3605.12
958.138	3607.12
958.365	3584.12
958.593	3564.12
958.82	3515.12
959.048	3617.12
959.275	3578.12
959.502	3514.12
959.73	3523.12
959.957	3543.12
960.184	3555.12
960.411	3469.12
960.638	3549.12
960.865	3507.12
961.092	3508.12
961.319	3427.12
961.546	3523.12
961.773	3512.12
962	3489.12
962.227	3535.12
962.454	3475.12
962.68	3460.12
962.907	3477.12
963.134	3430.12
963.36	3458.12
963.587	3403.12
963.813	3372.12
964.04	3359.12
964.266	3312.12
964.493	3389.12
964.719	3356.12
964.945	3327.12
965.171	3232.12
965.398	3306.12
965.624	3287.12
965.85	3216.12
966.076	3224.12
966.302	3227.12
966.528	3218.12
966.754	3181.12
966.98	3151.12
967.206	3205.12
967.431	3090.12
967.657	3198.12
967.883	3170.12
968.109	3158.12
968.334	3097.12
968.56	3092.12
968.785	3084.12
969.011	3045.12
969.236	3116.12
969.462	3038.12
969.687	3081.12
969.912	3101.12
970.138	3111.12
970.363	3016.12
970.588	3038.12
970.813	3022.12
971.038	3001.12
971.263	3023.12
971.488	2984.12
971.713	3034.12
971.938	3002.12
972.163	2915.12
972.388	2936.12
972.613	2907.12
972.838	2934.12
973.062	2941.12
973.287	2903.12
973.512	2838.12
973.736	2848.12
973.961	2833.12
974.185	2824.12
974.41	2856.12
974.634	2729.12
974.858	2777.12
975.083	2804.12
975.307	2817.12
975.531	2708.12
975.755	2680.12
975.98	2700.12
976.204	2632.12
976.428	2672.12
976.652	2654.12
976.876	2621.12
977.1	2629.12
977.324	2580.12
977.547	2629.12
977.771	2641.12
977.995	2638.12
978.219	2548.12
978.442	2677.12
978.666	2560.12
978.89	2565.12
979.113	2586.12
979.337	2569.12
979.56	2526.12
979.783	2629.12
980.007	2509.12
980.23	2516.12
980.453	2496.12
980.677	2506.12
980.9	2552.12
981.123	2417.12
981.346	2523.12
981.569	2504.12
981.792	2516.12
982.015	2477.12
982.238	2420.12
982.461	2439.12
982.684	2426.12
982.907	2356.12
983.129	2354.12
983.352	2412.12
983.575	2385.12
983.797	2385.12
984.02	2305.12
984.242	2333.12
984.465	2324.12
984.687	2371.12
984.91	2369.12
985.132	2319.12
985.354	2325.12
985.577	2306.12
985.799	2319.12
986.021	2190.12
986.243	2243.12
986.465	2252.12
986.687	2305.12
986.909	2349.12
987.131	2263.12
987.353	2233.12
987.575	2281.12
987.797	2247.12
988.019	2120.12
988.241	2201.12
988.462	2191.12
988.684	2208.12
988.906	2230.12
989.127	2282.12
989.349	2108.12
989.57	2175.12
989.792	2217.12
990.013	2206.12
990.234	2206.12
990.456	2232.12
990.677	2241.12
990.898	2149.12
991.119	2159.12
991.341	2176.12
991.562	2076.12
991.783	2155.12
992.004	2085.12
992.225	2081.12
992.446	2100.12
992.667	2020.12
992.887	2117.12
993.108	2000.12
993.329	2128.12
993.55	2054.12
993.77	1997.12
993.991	1985.12
994.212	2031.12
994.432	2012.12
994.653	2022.12
994.873	2003.12
995.093	1922.12
995.314	1900.12
995.534	1981.12
995.754	2019.12
995.975	2038.12
996.195	1911.12
996.415	1972.12
996.635	1953.12
996.855	1990.12
997.075	1945.12
997.295	1958.12
997.515	1959.12
997.735	1984.12
997.955	1951.12
998.174	1927.12
998.394	1898.12
998.614	1988.12
998.834	1921.12
999.053	1980.12
999.273	1931.12
999.492	2002.12
999.712	1941.12
999.931	1879.12
1000.151	1908.12
1000.37	1909.12
1000.589	1958.12
1000.809	1840.12
1001.028	1962.12
1001.247	1915.12
1001.466	1809.12
1001.685	1907.12
1001.904	1870.12
1002.123	1863.12
1002.342	1835.12
1002.561	1784.12
1002.78	1816.12
1002.999	1917.12
1003.218	1831.12
1003.436	1802.12
1003.655	1851.12
1003.874	1783.12
1004.092	1803.12
1004.311	1850.12
1004.53	1810.12
1004.748	1863.12
1004.966	1791.12
1005.185	1801.12
1005.403	1822.12
1005.622	1802.12
1005.84	1899.12
1006.058	1734.12
1006.276	1821.12
1006.494	2269.12
1006.712	1809.12
1006.931	1851.12
1007.149	1773.12
1007.367	1779.12
1007.584	1827.12
1007.802	1860.12
1008.02	1807.12
1008.238	1937.12
1008.456	1923.12
1008.673	1807.12
1008.891	1931.12
1009.109	1908.12
1009.326	1982.12
1009.544	2077.12
1009.761	1994.12
1009.979	2114.12
1010.196	2199.12
1010.413	2301.12
1010.631	2370.12
1010.848	2483.12
1011.065	2482.12
1011.282	2449.12
1011.5	2413.12
1011.717	2486.12
1011.934	2417.12
1012.151	2450.12
1012.368	2439.12
1012.585	2361.12
1012.801	2431.12
1013.018	2416.12
1013.235	2404.12
1013.452	2413.12
1013.669	2467.12
1013.885	2446.12
1014.102	2498.12
1014.318	2446.12
1014.535	2409.12
1014.751	2417.12
1014.968	2440.12
1015.184	2433.12
1015.401	2372.12
1015.617	2379.12
1015.833	2338.12
1016.049	2336.12
1016.266	2301.12
1016.482	2304.12
1016.698	2231.12
1016.914	2284.12
1017.13	2225.12
1017.346	2224.12
1017.562	2280.12
1017.778	2237.12
1017.993	2157.12
1018.209	2249.12
1018.425	2199.12
1018.641	2217.12
1018.856	2178.12
1019.072	2224.12
1019.288	2252.12
1019.503	2192.12
1019.719	2098.12
1019.934	2112.12
1020.149	2178.12
1020.365	2107.12
1020.58	2039.12
1020.795	2056.12
1021.011	1970.12
1021.226	1936.12
1021.441	1916.12
1021.656	1819.12
1021.871	1752.12
1022.086	1739.12
1022.301	1713.12
1022.516	1685.12
1022.731	1766.12
1022.946	1632.12
1023.16	1621.12
1023.375	1577.12
1023.59	1549.12
1023.804	1513.12
1024.019	1589.12
1024.234	1439.12
1024.448	1439.12
1024.663	1376.12
1024.877	1383.12
1025.092	1382.12
1025.306	1368.12
1025.52	1259.12
1025.734	1358.12
1025.949	1227.12
1026.163	1189.12
1026.377	1141.12
1026.591	1180.12
1026.805	1092.12
1027.019	1093.12
1027.233	1061.12
1027.447	1000.12
1027.661	1075.12
1027.875	1028.12
1028.088	1031.12
1028.302	957.12
1028.516	940.12
1028.73	926.12
1028.943	895.12
1029.157	857.12
1029.37	791.12
1029.584	-0.88
1029.797	-5.88
1030.011	-3.88
1030.224	-2.88
