Data from QEP037381__145__15-17-52-885.txt Node

Date: Wed Dec 21 15:17:52 EST 2022
User: dcclab
Spectrometer: QEP03738
Trigger mode: 4
Integration Time (sec): 1.000000E1
Scans to average: 1
Electric dark correction enabled: true
Nonlinearity correction enabled: false
Boxcar width: 0
XAxis mode: Wavelengths
Number of Pixels in Spectrum: 1044
>>>>>Begin Spectral Data<<<<<
784.041	9.88
784.3	-0.12
784.558	-3.12
784.817	-3.12
785.075	88559.88
785.334	14936.88
785.592	6879.88
785.851	4743.88
786.109	3595.88
786.368	2797.88
786.626	2244.88
786.884	1887.88
787.143	1608.88
787.401	1317.88
787.659	1200.88
787.917	1031.88
788.175	970.88
788.433	845.88
788.691	764.88
788.949	706.88
789.207	696.88
789.465	591.88
789.723	583.88
789.98	552.88
790.238	586.88
790.496	536.88
790.753	509.88
791.011	559.88
791.268	497.88
791.526	468.88
791.783	495.88
792.041	486.88
792.298	410.88
792.556	461.88
792.813	443.88
793.07	437.88
793.327	407.88
793.584	501.88
793.841	413.88
794.099	437.88
794.356	490.88
794.613	404.88
794.869	442.88
795.126	389.88
795.383	376.88
795.64	404.88
795.897	347.88
796.153	416.88
796.41	408.88
796.667	385.88
796.923	385.88
797.18	393.88
797.436	411.88
797.693	372.88
797.949	425.88
798.206	459.88
798.462	367.88
798.718	433.88
798.974	395.88
799.231	458.88
799.487	418.88
799.743	414.88
799.999	446.88
800.255	435.88
800.511	418.88
800.767	442.88
801.023	431.88
801.279	461.88
801.534	468.88
801.79	507.88
802.046	494.88
802.302	592.88
802.557	628.88
802.813	704.88
803.068	788.88
803.324	1066.88
803.579	1335.88
803.835	1802.88
804.09	2488.88
804.345	3163.88
804.601	3966.88
804.856	4869.88
805.111	5639.88
805.366	6230.88
805.621	6632.88
805.876	6822.88
806.131	7021.88
806.386	7105.88
806.641	7213.88
806.896	7366.88
807.151	7532.88
807.406	7645.88
807.661	7795.88
807.915	7938.88
808.17	8070.88
808.425	8143.88
808.679	8264.88
808.934	8332.88
809.188	8480.88
809.443	8591.88
809.697	8684.88
809.951	8716.88
810.206	8857.88
810.46	8884.88
810.714	9012.88
810.968	9193.88
811.223	9166.88
811.477	9242.88
811.731	9343.88
811.985	9322.88
812.239	9409.88
812.493	9503.88
812.747	9557.88
813	9579.88
813.254	9621.88
813.508	9700.88
813.762	9775.88
814.015	9795.88
814.269	9870.88
814.522	9980.88
814.776	10085.88
815.03	10240.88
815.283	10363.88
815.536	10556.88
815.79	10748.88
816.043	10912.88
816.296	11134.88
816.55	11178.88
816.803	11306.88
817.056	11515.88
817.309	11643.88
817.562	11837.88
817.815	11845.88
818.068	11924.88
818.321	12090.88
818.574	12297.88
818.827	12479.88
819.079	12676.88
819.332	12984.88
819.585	13074.88
819.838	13292.88
820.09	13391.88
820.343	13427.88
820.595	13451.88
820.848	13606.88
821.1	13709.88
821.353	13689.88
821.605	13649.88
821.857	13686.88
822.11	13577.88
822.362	13550.88
822.614	13537.88
822.866	13641.88
823.118	13709.88
823.37	13713.88
823.622	13765.88
823.874	13794.88
824.126	13914.88
824.378	13877.88
824.63	13950.88
824.882	14044.88
825.134	14022.88
825.385	14030.88
825.637	13966.88
825.888	13912.88
826.14	13920.88
826.392	13852.88
826.643	13773.88
826.895	13805.88
827.146	13712.88
827.397	13759.88
827.649	13697.88
827.9	13719.88
828.151	13647.88
828.402	13797.88
828.653	13800.88
828.905	13851.88
829.156	13945.88
829.407	13867.88
829.658	13878.88
829.909	13888.88
830.159	13946.88
830.41	13859.88
830.661	13843.88
830.912	13713.88
831.162	13722.88
831.413	13708.88
831.664	13704.88
831.914	13776.88
832.165	13779.88
832.415	13774.88
832.666	13781.88
832.916	13880.88
833.167	13739.88
833.417	13827.88
833.667	13750.88
833.917	13771.88
834.168	13774.88
834.418	13848.88
834.668	13640.88
834.918	13650.88
835.168	13606.88
835.418	13509.88
835.668	13571.88
835.918	13494.88
836.167	13532.88
836.417	13496.88
836.667	13444.88
836.917	13491.88
837.166	13341.88
837.416	13474.88
837.666	13459.88
837.915	13394.88
838.165	13447.88
838.414	13259.88
838.663	13212.88
838.913	13412.88
839.162	13279.88
839.411	13397.88
839.661	13273.88
839.91	13305.88
840.159	13340.88
840.408	13346.88
840.657	13339.88
840.906	13342.88
841.155	13353.88
841.404	13353.88
841.653	13403.88
841.902	13358.88
842.15	13369.88
842.399	13414.88
842.648	13450.88
842.897	13439.88
843.145	13249.88
843.394	13237.88
843.642	13261.88
843.891	13154.88
844.139	13053.88
844.388	12908.88
844.636	12951.88
844.884	12891.88
845.133	12929.88
845.381	12967.88
845.629	12955.88
845.877	12882.88
846.125	12942.88
846.373	12963.88
846.621	12975.88
846.869	12911.88
847.117	12805.88
847.365	12746.88
847.613	12747.88
847.861	12725.88
848.108	12782.88
848.356	12745.88
848.604	12642.88
848.851	12649.88
849.099	12756.88
849.346	12811.88
849.594	12961.88
849.841	12880.88
850.089	12969.88
850.336	13112.88
850.583	13018.88
850.831	13062.88
851.078	13058.88
851.325	13068.88
851.572	13260.88
851.819	13019.88
852.066	12656.88
852.313	12468.88
852.56	12245.88
852.807	12272.88
853.054	12216.88
853.301	12306.88
853.548	12367.88
853.794	12523.88
854.041	12430.88
854.288	12467.88
854.534	12674.88
854.781	12586.88
855.028	12538.88
855.274	12590.88
855.52	12473.88
855.767	12358.88
856.013	12526.88
856.26	12815.88
856.506	12296.88
856.752	12350.88
856.998	12345.88
857.244	12304.88
857.49	12457.88
857.736	12386.88
857.982	12511.88
858.228	12473.88
858.474	12322.88
858.72	12306.88
858.966	12214.88
859.212	11999.88
859.458	11999.88
859.703	11852.88
859.949	11773.88
860.195	11641.88
860.44	11614.88
860.686	11570.88
860.931	11568.88
861.177	11516.88
861.422	11466.88
861.667	11286.88
861.913	11317.88
862.158	11408.88
862.403	11511.88
862.648	11630.88
862.893	11601.88
863.138	11619.88
863.384	11596.88
863.629	11536.88
863.873	11518.88
864.118	11538.88
864.363	11392.88
864.608	11430.88
864.853	11493.88
865.098	11428.88
865.342	11334.88
865.587	11249.88
865.832	11253.88
866.076	11311.88
866.321	11237.88
866.565	11190.88
866.81	11166.88
867.054	11101.88
867.298	11140.88
867.543	11070.88
867.787	11171.88
868.031	11053.88
868.275	11148.88
868.519	11041.88
868.764	11070.88
869.008	10978.88
869.252	11155.88
869.496	11010.88
869.739	11011.88
869.983	11131.88
870.227	11110.88
870.471	11078.88
870.715	11206.88
870.958	11251.88
871.202	11194.88
871.446	11193.88
871.689	11223.88
871.933	11233.88
872.176	11231.88
872.42	11133.88
872.663	11145.88
872.906	11216.88
873.15	11070.88
873.393	11126.88
873.636	11179.88
873.879	11047.88
874.122	10998.88
874.366	10712.88
874.609	10710.88
874.852	10589.88
875.095	10669.88
875.337	10563.88
875.58	10412.88
875.823	10432.88
876.066	10523.88
876.309	10461.88
876.551	10308.88
876.794	10295.88
877.037	10329.88
877.279	10214.88
877.522	10290.88
877.764	10291.88
878.007	10204.88
878.249	10239.88
878.491	10157.88
878.734	10274.88
878.976	10168.88
879.218	10058.88
879.46	10088.88
879.702	10051.88
879.945	9928.88
880.187	9745.88
880.429	9760.88
880.671	9730.88
880.912	9712.88
881.154	9689.88
881.396	9705.88
881.638	9776.88
881.88	9742.88
882.121	9694.88
882.363	9687.88
882.605	9746.88
882.846	9627.88
883.088	9737.88
883.329	9673.88
883.571	9627.88
883.812	9843.88
884.053	10051.88
884.295	10338.88
884.536	10486.88
884.777	10446.88
885.018	10396.88
885.259	10316.88
885.5	10224.88
885.742	10468.88
885.982	10094.88
886.223	10033.88
886.464	10015.88
886.705	9859.88
886.946	9768.88
887.187	9551.88
887.428	9514.88
887.668	9342.88
887.909	9163.88
888.15	9107.88
888.39	9070.88
888.631	9079.88
888.871	8994.88
889.111	8948.88
889.352	8790.88
889.592	8768.88
889.833	8721.88
890.073	8700.88
890.313	8602.88
890.553	8466.88
890.793	8516.88
891.033	8416.88
891.273	8347.88
891.513	8322.88
891.753	8441.88
891.993	8407.88
892.233	8352.88
892.473	8487.88
892.713	8451.88
892.952	8433.88
893.192	8529.88
893.432	8467.88
893.671	8544.88
893.911	8464.88
894.15	8403.88
894.39	8292.88
894.629	8333.88
894.869	8239.88
895.108	8285.88
895.347	8154.88
895.587	8223.88
895.826	8214.88
896.065	8121.88
896.304	8235.88
896.543	8220.88
896.782	8087.88
897.021	8090.88
897.26	8093.88
897.499	8227.88
897.738	8123.88
897.977	8108.88
898.216	8026.88
898.454	7956.88
898.693	7842.88
898.932	7852.88
899.17	7845.88
899.409	7795.88
899.647	7798.88
899.886	7798.88
900.124	7887.88
900.363	7818.88
900.601	7938.88
900.839	7899.88
901.078	7983.88
901.316	8058.88
901.554	8129.88
901.792	8151.88
902.03	8147.88
902.268	8160.88
902.506	8275.88
902.744	8088.88
902.982	8038.88
903.22	7871.88
903.458	7755.88
903.695	7637.88
903.933	7553.88
904.171	7359.88
904.409	7316.88
904.646	7201.88
904.884	7071.88
905.121	7084.88
905.359	7015.88
905.596	6913.88
905.833	6750.88
906.071	6723.88
906.308	6830.88
906.545	6785.88
906.783	6694.88
907.02	6791.88
907.257	6640.88
907.494	6704.88
907.731	6701.88
907.968	6662.88
908.205	6628.88
908.442	6608.88
908.679	6554.88
908.915	6548.88
909.152	6432.88
909.389	6332.88
909.626	6317.88
909.862	6295.88
910.099	6279.88
910.335	6273.88
910.572	6202.88
910.808	6232.88
911.045	6194.88
911.281	6152.88
911.518	6193.88
911.754	6131.88
911.99	6123.88
912.226	6056.88
912.463	6029.88
912.699	5958.88
912.935	6002.88
913.171	5880.88
913.407	5847.88
913.643	5873.88
913.879	5836.88
914.114	5756.88
914.35	5674.88
914.586	5700.88
914.822	5591.88
915.057	5616.88
915.293	5483.88
915.529	5452.88
915.764	5510.88
916	5562.88
916.235	5498.88
916.471	5504.88
916.706	5446.88
916.941	5478.88
917.177	5410.88
917.412	5488.88
917.647	5453.88
917.882	5388.88
918.117	5481.88
918.352	5447.88
918.588	5431.88
918.823	5329.88
919.057	5293.88
919.292	5210.88
919.527	5286.88
919.762	5168.88
919.997	5234.88
920.232	5085.88
920.466	5125.88
920.701	4981.88
920.935	5002.88
921.17	4980.88
921.405	4898.88
921.639	4994.88
921.873	4905.88
922.108	4965.88
922.342	4944.88
922.576	4804.88
922.811	4859.88
923.045	4861.88
923.279	4920.88
923.513	4742.88
923.747	4838.88
923.981	4774.88
924.215	4764.88
924.449	4683.88
924.683	4687.88
924.917	4631.88
925.151	4641.88
925.385	4759.88
925.618	4622.88
925.852	4650.88
926.086	4615.88
926.319	4567.88
926.553	4580.88
926.786	4614.88
927.02	4597.88
927.253	4631.88
927.486	4658.88
927.72	4574.88
927.953	4609.88
928.186	4567.88
928.42	4612.88
928.653	4597.88
928.886	4503.88
929.119	4504.88
929.352	4485.88
929.585	4455.88
929.818	4409.88
930.051	4400.88
930.284	4366.88
930.516	4286.88
930.749	4287.88
930.982	4347.88
931.215	4309.88
931.447	4252.88
931.68	4249.88
931.912	4230.88
932.145	4214.88
932.377	4255.88
932.61	4387.88
932.842	4165.88
933.074	4257.88
933.307	4254.88
933.539	4257.88
933.771	4272.88
934.003	4292.88
934.236	4391.88
934.468	4422.88
934.7	4356.88
934.932	4372.88
935.164	4266.88
935.395	4274.88
935.627	4231.88
935.859	4234.88
936.091	4164.88
936.323	4207.88
936.554	4193.88
936.786	4160.88
937.017	4081.88
937.249	4166.88
937.481	4024.88
937.712	4156.88
937.943	4105.88
938.175	4106.88
938.406	4110.88
938.637	4119.88
938.869	4095.88
939.1	4105.88
939.331	4143.88
939.562	4134.88
939.793	4254.88
940.024	4531.88
940.255	4987.88
940.486	5206.88
940.717	5095.88
940.948	4746.88
941.179	4470.88
941.409	4320.88
941.64	4112.88
941.871	4084.88
942.102	3997.88
942.332	4012.88
942.563	4019.88
942.793	3939.88
943.024	3931.88
943.254	3931.88
943.484	4004.88
943.715	4012.88
943.945	3939.88
944.175	3900.88
944.405	3896.88
944.636	3903.88
944.866	3957.88
945.096	3970.88
945.326	3897.88
945.556	3945.88
945.786	3922.88
946.016	3837.88
946.245	3819.88
946.475	3799.88
946.705	3812.88
946.935	3811.88
947.164	3767.88
947.394	3696.88
947.624	3736.88
947.853	3758.88
948.083	3721.88
948.312	3721.88
948.542	3651.88
948.771	3573.88
949	3591.88
949.23	3629.88
949.459	3656.88
949.688	3701.88
949.917	3628.88
950.146	3627.88
950.375	3694.88
950.604	3597.88
950.833	3662.88
951.062	3685.88
951.291	3626.88
951.52	3564.88
951.749	3629.88
951.978	3552.88
952.206	3526.88
952.435	3573.88
952.664	3577.88
952.892	3570.88
953.121	3538.88
953.349	3562.88
953.578	3552.88
953.806	3530.88
954.035	3446.88
954.263	3507.88
954.491	3431.88
954.719	3486.88
954.948	3426.88
955.176	3395.88
955.404	3325.88
955.632	3434.88
955.86	3420.88
956.088	3396.88
956.316	3392.88
956.544	3371.88
956.772	3336.88
956.999	3328.88
957.227	3391.88
957.455	3298.88
957.683	3312.88
957.91	3255.88
958.138	3241.88
958.365	3226.88
958.593	3211.88
958.82	3165.88
959.048	3239.88
959.275	3217.88
959.502	3216.88
959.73	3122.88
959.957	3216.88
960.184	3248.88
960.411	3163.88
960.638	3238.88
960.865	3174.88
961.092	3175.88
961.319	3101.88
961.546	3206.88
961.773	3177.88
962	3173.88
962.227	3222.88
962.454	3132.88
962.68	3115.88
962.907	3144.88
963.134	3060.88
963.36	3125.88
963.587	3132.88
963.813	3009.88
964.04	3061.88
964.266	3038.88
964.493	3090.88
964.719	3050.88
964.945	3029.88
965.171	2945.88
965.398	2968.88
965.624	3004.88
965.85	2930.88
966.076	2940.88
966.302	2968.88
966.528	2940.88
966.754	2936.88
966.98	2935.88
967.206	2924.88
967.431	2823.88
967.657	2922.88
967.883	2900.88
968.109	2900.88
968.334	2844.88
968.56	2817.88
968.785	2861.88
969.011	2817.88
969.236	2845.88
969.462	2811.88
969.687	2837.88
969.912	2863.88
970.138	2847.88
970.363	2723.88
970.588	2799.88
970.813	2763.88
971.038	2727.88
971.263	2773.88
971.488	2772.88
971.713	2799.88
971.938	2814.88
972.163	2688.88
972.388	2695.88
972.613	2678.88
972.838	2707.88
973.062	2703.88
973.287	2687.88
973.512	2650.88
973.736	2648.88
973.961	2638.88
974.185	2640.88
974.41	2640.88
974.634	2533.88
974.858	2523.88
975.083	2576.88
975.307	2599.88
975.531	2541.88
975.755	2469.88
975.98	2479.88
976.204	2433.88
976.428	2443.88
976.652	2457.88
976.876	2457.88
977.1	2441.88
977.324	2402.88
977.547	2436.88
977.771	2449.88
977.995	2419.88
978.219	2367.88
978.442	2520.88
978.666	2421.88
978.89	2426.88
979.113	2381.88
979.337	2369.88
979.56	2378.88
979.783	2472.88
980.007	2315.88
980.23	2356.88
980.453	2327.88
980.677	2354.88
980.9	2331.88
981.123	2261.88
981.346	2328.88
981.569	2331.88
981.792	2318.88
982.015	2313.88
982.238	2262.88
982.461	2279.88
982.684	2213.88
982.907	2236.88
983.129	2211.88
983.352	2267.88
983.575	2251.88
983.797	2228.88
984.02	2164.88
984.242	2189.88
984.465	2198.88
984.687	2228.88
984.91	2196.88
985.132	2239.88
985.354	2200.88
985.577	2184.88
985.799	2163.88
986.021	2090.88
986.243	2085.88
986.465	2125.88
986.687	2173.88
986.909	2220.88
987.131	2146.88
987.353	2111.88
987.575	2139.88
987.797	2111.88
988.019	2045.88
988.241	2077.88
988.462	2081.88
988.684	2107.88
988.906	2129.88
989.127	2138.88
989.349	2058.88
989.57	2062.88
989.792	2089.88
990.013	2087.88
990.234	2102.88
990.456	2131.88
990.677	2099.88
990.898	2036.88
991.119	2044.88
991.341	2102.88
991.562	2002.88
991.783	2010.88
992.004	1998.88
992.225	1939.88
992.446	2010.88
992.667	1929.88
992.887	2000.88
993.108	1909.88
993.329	2016.88
993.55	1955.88
993.77	1898.88
993.991	1916.88
994.212	1942.88
994.432	1926.88
994.653	1921.88
994.873	1937.88
995.093	1824.88
995.314	1856.88
995.534	1916.88
995.754	1910.88
995.975	1961.88
996.195	1830.88
996.415	1879.88
996.635	1872.88
996.855	1907.88
997.075	1842.88
997.295	1874.88
997.515	1835.88
997.735	1916.88
997.955	1901.88
998.174	1850.88
998.394	1864.88
998.614	1894.88
998.834	1802.88
999.053	1904.88
999.273	1844.88
999.492	1903.88
999.712	1819.88
999.931	1796.88
1000.151	1837.88
1000.37	1795.88
1000.589	1862.88
1000.809	1761.88
1001.028	1882.88
1001.247	1854.88
1001.466	1704.88
1001.685	1891.88
1001.904	1766.88
1002.123	1758.88
1002.342	1778.88
1002.561	1726.88
1002.78	1750.88
1002.999	1806.88
1003.218	1766.88
1003.436	1716.88
1003.655	1783.88
1003.874	1720.88
1004.092	1726.88
1004.311	1781.88
1004.53	1735.88
1004.748	1792.88
1004.966	1743.88
1005.185	1772.88
1005.403	1790.88
1005.622	1759.88
1005.84	1799.88
1006.058	1729.88
1006.276	1747.88
1006.494	2261.88
1006.712	1749.88
1006.931	1792.88
1007.149	1749.88
1007.367	1716.88
1007.584	1780.88
1007.802	1807.88
1008.02	1785.88
1008.238	1898.88
1008.456	1869.88
1008.673	1733.88
1008.891	1853.88
1009.109	1824.88
1009.326	1900.88
1009.544	2004.88
1009.761	1945.88
1009.979	2044.88
1010.196	2097.88
1010.413	2271.88
1010.631	2325.88
1010.848	2420.88
1011.065	2398.88
1011.282	2368.88
1011.5	2282.88
1011.717	2412.88
1011.934	2376.88
1012.151	2373.88
1012.368	2369.88
1012.585	2310.88
1012.801	2376.88
1013.018	2351.88
1013.235	2317.88
1013.452	2334.88
1013.669	2365.88
1013.885	2342.88
1014.102	2396.88
1014.318	2385.88
1014.535	2331.88
1014.751	2361.88
1014.968	2377.88
1015.184	2385.88
1015.401	2276.88
1015.617	2316.88
1015.833	2245.88
1016.049	2254.88
1016.266	2253.88
1016.482	2232.88
1016.698	2163.88
1016.914	2212.88
1017.13	2152.88
1017.346	2134.88
1017.562	2211.88
1017.778	2135.88
1017.993	2104.88
1018.209	2145.88
1018.425	2129.88
1018.641	2134.88
1018.856	2092.88
1019.072	2130.88
1019.288	2160.88
1019.503	2123.88
1019.719	2022.88
1019.934	2024.88
1020.149	2111.88
1020.365	2034.88
1020.58	1958.88
1020.795	1976.88
1021.011	1905.88
1021.226	1826.88
1021.441	1845.88
1021.656	1759.88
1021.871	1716.88
1022.086	1690.88
1022.301	1665.88
1022.516	1647.88
1022.731	1678.88
1022.946	1568.88
1023.16	1558.88
1023.375	1535.88
1023.59	1465.88
1023.804	1449.88
1024.019	1518.88
1024.234	1393.88
1024.448	1401.88
1024.663	1330.88
1024.877	1309.88
1025.092	1345.88
1025.306	1328.88
1025.52	1210.88
1025.734	1295.88
1025.949	1182.88
1026.163	1175.88
1026.377	1094.88
1026.591	1168.88
1026.805	1055.88
1027.019	1076.88
1027.233	1015.88
1027.447	953.88
1027.661	1064.88
1027.875	1004.88
1028.088	1005.88
1028.302	899.88
1028.516	898.88
1028.73	906.88
1028.943	872.88
1029.157	808.88
1029.37	761.88
1029.584	-1.12
1029.797	-1.12
1030.011	-0.12
1030.224	-1.12
