Data from QEP037381__144__15-17-42-883.txt Node

Date: Wed Dec 21 15:17:42 EST 2022
User: dcclab
Spectrometer: QEP03738
Trigger mode: 4
Integration Time (sec): 1.000000E1
Scans to average: 1
Electric dark correction enabled: true
Nonlinearity correction enabled: false
Boxcar width: 0
XAxis mode: Wavelengths
Number of Pixels in Spectrum: 1044
>>>>>Begin Spectral Data<<<<<
784.041	11.62
784.3	1.62
784.558	-0.38
784.817	-7.38
785.075	89765.62
785.334	15038.62
785.592	6850.62
785.851	4568.62
786.109	3534.62
786.368	2786.62
786.626	2232.62
786.884	1858.62
787.143	1531.62
787.401	1284.62
787.659	1172.62
787.917	1011.62
788.175	945.62
788.433	828.62
788.691	765.62
788.949	691.62
789.207	670.62
789.465	582.62
789.723	574.62
789.98	531.62
790.238	561.62
790.496	526.62
790.753	499.62
791.011	557.62
791.268	493.62
791.526	479.62
791.783	500.62
792.041	497.62
792.298	394.62
792.556	464.62
792.813	455.62
793.07	419.62
793.327	408.62
793.584	487.62
793.841	408.62
794.099	427.62
794.356	501.62
794.613	394.62
794.869	447.62
795.126	403.62
795.383	379.62
795.64	404.62
795.897	353.62
796.153	410.62
796.41	385.62
796.667	371.62
796.923	380.62
797.18	383.62
797.436	416.62
797.693	385.62
797.949	426.62
798.206	438.62
798.462	361.62
798.718	413.62
798.974	397.62
799.231	433.62
799.487	411.62
799.743	425.62
799.999	449.62
800.255	432.62
800.511	415.62
800.767	453.62
801.023	440.62
801.279	451.62
801.534	462.62
801.79	498.62
802.046	481.62
802.302	576.62
802.557	608.62
802.813	701.62
803.068	784.62
803.324	1036.62
803.579	1294.62
803.835	1700.62
804.09	2353.62
804.345	2953.62
804.601	3714.62
804.856	4554.62
805.111	5216.62
805.366	5787.62
805.621	6124.62
805.876	6477.62
806.131	6596.62
806.386	6664.62
806.641	6779.62
806.896	6909.62
807.151	7091.62
807.406	7159.62
807.661	7360.62
807.915	7437.62
808.17	7551.62
808.425	7672.62
808.679	7762.62
808.934	7854.62
809.188	7878.62
809.443	8024.62
809.697	8143.62
809.951	8081.62
810.206	8245.62
810.46	8393.62
810.714	8430.62
810.968	8547.62
811.223	8573.62
811.477	8653.62
811.731	8778.62
811.985	8791.62
812.239	8817.62
812.493	8883.62
812.747	8856.62
813	8920.62
813.254	8957.62
813.508	9120.62
813.762	9080.62
814.015	9146.62
814.269	9227.62
814.522	9338.62
814.776	9428.62
815.03	9620.62
815.283	9733.62
815.536	9853.62
815.79	10044.62
816.043	10162.62
816.296	10285.62
816.55	10448.62
816.803	10612.62
817.056	10744.62
817.309	10899.62
817.562	10939.62
817.815	11155.62
818.068	11205.62
818.321	11338.62
818.574	11478.62
818.827	11604.62
819.079	11762.62
819.332	12042.62
819.585	12115.62
819.838	12365.62
820.09	12356.62
820.343	12555.62
820.595	12511.62
820.848	12711.62
821.1	12691.62
821.353	12727.62
821.605	12696.62
821.857	12717.62
822.11	12678.62
822.362	12656.62
822.614	12594.62
822.866	12678.62
823.118	12639.62
823.37	12849.62
823.622	12820.62
823.874	12931.62
824.126	12910.62
824.378	12912.62
824.63	12989.62
824.882	13001.62
825.134	12970.62
825.385	12962.62
825.637	12965.62
825.888	12893.62
826.14	12892.62
826.392	12825.62
826.643	12737.62
826.895	12712.62
827.146	12655.62
827.397	12653.62
827.649	12784.62
827.9	12578.62
828.151	12724.62
828.402	12663.62
828.653	12776.62
828.905	12770.62
829.156	12903.62
829.407	12810.62
829.658	12915.62
829.909	12955.62
830.159	13030.62
830.41	12912.62
830.661	12861.62
830.912	12821.62
831.162	12674.62
831.413	12737.62
831.664	12824.62
831.914	12759.62
832.165	12701.62
832.415	12764.62
832.666	12745.62
832.916	12776.62
833.167	12769.62
833.417	12778.62
833.667	12727.62
833.917	12715.62
834.168	12710.62
834.418	12721.62
834.668	12680.62
834.918	12589.62
835.168	12585.62
835.418	12449.62
835.668	12448.62
835.918	12505.62
836.167	12414.62
836.417	12345.62
836.667	12477.62
836.917	12443.62
837.166	12428.62
837.416	12397.62
837.666	12411.62
837.915	12347.62
838.165	12430.62
838.414	12322.62
838.663	12311.62
838.913	12382.62
839.162	12283.62
839.411	12408.62
839.661	12280.62
839.91	12304.62
840.159	12271.62
840.408	12363.62
840.657	12341.62
840.906	12400.62
841.155	12377.62
841.404	12327.62
841.653	12390.62
841.902	12373.62
842.15	12495.62
842.399	12485.62
842.648	12467.62
842.897	12319.62
843.145	12335.62
843.394	12216.62
843.642	12206.62
843.891	12131.62
844.139	12016.62
844.388	11939.62
844.636	11910.62
844.884	11981.62
845.133	11957.62
845.381	12002.62
845.629	11934.62
845.877	11951.62
846.125	11973.62
846.373	11996.62
846.621	11928.62
846.869	11951.62
847.117	11822.62
847.365	11722.62
847.613	11751.62
847.861	11804.62
848.108	11858.62
848.356	11769.62
848.604	11663.62
848.851	11699.62
849.099	11767.62
849.346	11758.62
849.594	11862.62
849.841	11940.62
850.089	11996.62
850.336	11893.62
850.583	12121.62
850.831	12040.62
851.078	12055.62
851.325	12106.62
851.572	12361.62
851.819	12147.62
852.066	11755.62
852.313	11397.62
852.56	11297.62
852.807	11332.62
853.054	11300.62
853.301	11398.62
853.548	11405.62
853.794	11528.62
854.041	11472.62
854.288	11496.62
854.534	11753.62
854.781	11572.62
855.028	11544.62
855.274	11608.62
855.52	11523.62
855.767	11480.62
856.013	11533.62
856.26	11828.62
856.506	11362.62
856.752	11387.62
856.998	11357.62
857.244	11404.62
857.49	11505.62
857.736	11577.62
857.982	11500.62
858.228	11526.62
858.474	11408.62
858.72	11378.62
858.966	11131.62
859.212	11131.62
859.458	10942.62
859.703	10843.62
859.949	10683.62
860.195	10648.62
860.44	10690.62
860.686	10624.62
860.931	10666.62
861.177	10604.62
861.422	10565.62
861.667	10350.62
861.913	10410.62
862.158	10483.62
862.403	10559.62
862.648	10588.62
862.893	10608.62
863.138	10629.62
863.384	10497.62
863.629	10498.62
863.873	10583.62
864.118	10569.62
864.363	10526.62
864.608	10437.62
864.853	10455.62
865.098	10391.62
865.342	10348.62
865.587	10231.62
865.832	10300.62
866.076	10338.62
866.321	10347.62
866.565	10290.62
866.81	10217.62
867.054	10246.62
867.298	10221.62
867.543	10125.62
867.787	10199.62
868.031	10150.62
868.275	10164.62
868.519	10143.62
868.764	10153.62
869.008	10210.62
869.252	10158.62
869.496	10164.62
869.739	10142.62
869.983	10230.62
870.227	10171.62
870.471	10248.62
870.715	10350.62
870.958	10369.62
871.202	10358.62
871.446	10390.62
871.689	10302.62
871.933	10284.62
872.176	10285.62
872.42	10322.62
872.663	10265.62
872.906	10291.62
873.15	10274.62
873.393	10179.62
873.636	10306.62
873.879	10221.62
874.122	10123.62
874.366	9978.62
874.609	9879.62
874.852	9757.62
875.095	9706.62
875.337	9661.62
875.58	9648.62
875.823	9573.62
876.066	9543.62
876.309	9635.62
876.551	9474.62
876.794	9441.62
877.037	9478.62
877.279	9346.62
877.522	9458.62
877.764	9399.62
878.007	9371.62
878.249	9359.62
878.491	9220.62
878.734	9314.62
878.976	9304.62
879.218	9254.62
879.46	9202.62
879.702	9150.62
879.945	9026.62
880.187	8966.62
880.429	8889.62
880.671	8874.62
880.912	8914.62
881.154	8851.62
881.396	8819.62
881.638	8879.62
881.88	8828.62
882.121	8860.62
882.363	8863.62
882.605	8894.62
882.846	8857.62
883.088	8875.62
883.329	8843.62
883.571	8859.62
883.812	9052.62
884.053	9304.62
884.295	9562.62
884.536	9824.62
884.777	9733.62
885.018	9647.62
885.259	9543.62
885.5	9483.62
885.742	9744.62
885.982	9469.62
886.223	9320.62
886.464	9208.62
886.705	9081.62
886.946	9031.62
887.187	8762.62
887.428	8723.62
887.668	8516.62
887.909	8432.62
888.15	8262.62
888.39	8331.62
888.631	8188.62
888.871	8181.62
889.111	8098.62
889.352	7997.62
889.592	7898.62
889.833	7840.62
890.073	7798.62
890.313	7839.62
890.553	7644.62
890.793	7680.62
891.033	7645.62
891.273	7582.62
891.513	7592.62
891.753	7614.62
891.993	7564.62
892.233	7651.62
892.473	7689.62
892.713	7648.62
892.952	7577.62
893.192	7698.62
893.432	7704.62
893.671	7750.62
893.911	7666.62
894.15	7691.62
894.39	7476.62
894.629	7477.62
894.869	7467.62
895.108	7469.62
895.347	7391.62
895.587	7401.62
895.826	7457.62
896.065	7317.62
896.304	7388.62
896.543	7434.62
896.782	7354.62
897.021	7376.62
897.26	7395.62
897.499	7450.62
897.738	7462.62
897.977	7422.62
898.216	7277.62
898.454	7222.62
898.693	7225.62
898.932	7188.62
899.17	7108.62
899.409	7164.62
899.647	7117.62
899.886	7172.62
900.124	7206.62
900.363	7179.62
900.601	7242.62
900.839	7276.62
901.078	7369.62
901.316	7384.62
901.554	7514.62
901.792	7499.62
902.03	7535.62
902.268	7510.62
902.506	7561.62
902.744	7490.62
902.982	7433.62
903.22	7259.62
903.458	7146.62
903.695	6996.62
903.933	6910.62
904.171	6714.62
904.409	6616.62
904.646	6590.62
904.884	6394.62
905.121	6377.62
905.359	6331.62
905.596	6222.62
905.833	6097.62
906.071	6196.62
906.308	6152.62
906.545	6098.62
906.783	6059.62
907.02	6051.62
907.257	6037.62
907.494	6067.62
907.731	6029.62
907.968	6037.62
908.205	5916.62
908.442	5897.62
908.679	5943.62
908.915	5859.62
909.152	5827.62
909.389	5691.62
909.626	5709.62
909.862	5634.62
910.099	5664.62
910.335	5676.62
910.572	5576.62
910.808	5618.62
911.045	5542.62
911.281	5513.62
911.518	5605.62
911.754	5516.62
911.99	5490.62
912.226	5489.62
912.463	5374.62
912.699	5376.62
912.935	5350.62
913.171	5296.62
913.407	5263.62
913.643	5270.62
913.879	5118.62
914.114	5163.62
914.35	5040.62
914.586	5079.62
914.822	5029.62
915.057	5081.62
915.293	4982.62
915.529	4962.62
915.764	5033.62
916	4952.62
916.235	4964.62
916.471	4955.62
916.706	4863.62
916.941	4908.62
917.177	4930.62
917.412	4952.62
917.647	4930.62
917.882	4818.62
918.117	4886.62
918.352	4867.62
918.588	4978.62
918.823	4852.62
919.057	4787.62
919.292	4672.62
919.527	4775.62
919.762	4635.62
919.997	4638.62
920.232	4557.62
920.466	4629.62
920.701	4450.62
920.935	4469.62
921.17	4469.62
921.405	4396.62
921.639	4501.62
921.873	4432.62
922.108	4406.62
922.342	4403.62
922.576	4307.62
922.811	4337.62
923.045	4396.62
923.279	4383.62
923.513	4239.62
923.747	4327.62
923.981	4287.62
924.215	4254.62
924.449	4242.62
924.683	4181.62
924.917	4141.62
925.151	4169.62
925.385	4231.62
925.618	4175.62
925.852	4162.62
926.086	4118.62
926.319	4183.62
926.553	4133.62
926.786	4166.62
927.02	4134.62
927.253	4132.62
927.486	4146.62
927.72	4059.62
927.953	4154.62
928.186	4090.62
928.42	4125.62
928.653	4022.62
928.886	4053.62
929.119	4065.62
929.352	4032.62
929.585	4009.62
929.818	3979.62
930.051	3973.62
930.284	3959.62
930.516	3863.62
930.749	3853.62
930.982	3899.62
931.215	3845.62
931.447	3802.62
931.68	3848.62
931.912	3787.62
932.145	3767.62
932.377	3822.62
932.61	3954.62
932.842	3803.62
933.074	3847.62
933.307	3780.62
933.539	3905.62
933.771	3834.62
934.003	3785.62
934.236	3865.62
934.468	3888.62
934.7	3760.62
934.932	3823.62
935.164	3741.62
935.395	3703.62
935.627	3807.62
935.859	3778.62
936.091	3707.62
936.323	3754.62
936.554	3822.62
936.786	3724.62
937.017	3615.62
937.249	3705.62
937.481	3652.62
937.712	3737.62
937.943	3707.62
938.175	3660.62
938.406	3648.62
938.637	3654.62
938.869	3663.62
939.1	3663.62
939.331	3632.62
939.562	3624.62
939.793	3611.62
940.024	3654.62
940.255	3672.62
940.486	3544.62
940.717	3575.62
940.948	3562.62
941.179	3500.62
941.409	3514.62
941.64	3483.62
941.871	3547.62
942.102	3530.62
942.332	3524.62
942.563	3534.62
942.793	3518.62
943.024	3515.62
943.254	3536.62
943.484	3580.62
943.715	3540.62
943.945	3563.62
944.175	3475.62
944.405	3483.62
944.636	3464.62
944.866	3528.62
945.096	3517.62
945.326	3444.62
945.556	3499.62
945.786	3508.62
946.016	3477.62
946.245	3378.62
946.475	3407.62
946.705	3384.62
946.935	3367.62
947.164	3386.62
947.394	3326.62
947.624	3341.62
947.853	3370.62
948.083	3344.62
948.312	3290.62
948.542	3262.62
948.771	3218.62
949	3282.62
949.23	3207.62
949.459	3259.62
949.688	3289.62
949.917	3244.62
950.146	3252.62
950.375	3304.62
950.604	3205.62
950.833	3279.62
951.062	3323.62
951.291	3225.62
951.52	3207.62
951.749	3234.62
951.978	3182.62
952.206	3176.62
952.435	3224.62
952.664	3208.62
952.892	3188.62
953.121	3165.62
953.349	3155.62
953.578	3214.62
953.806	3129.62
954.035	3117.62
954.263	3133.62
954.491	3067.62
954.719	3124.62
954.948	3060.62
955.176	3051.62
955.404	2981.62
955.632	3083.62
955.86	3087.62
956.088	3054.62
956.316	3019.62
956.544	3075.62
956.772	3013.62
956.999	2973.62
957.227	3044.62
957.455	2951.62
957.683	2947.62
957.91	2921.62
958.138	2902.62
958.365	2871.62
958.593	2886.62
958.82	2851.62
959.048	2895.62
959.275	2873.62
959.502	2875.62
959.73	2828.62
959.957	2860.62
960.184	2888.62
960.411	2833.62
960.638	2917.62
960.865	2853.62
961.092	2856.62
961.319	2785.62
961.546	2900.62
961.773	2871.62
962	2848.62
962.227	2843.62
962.454	2836.62
962.68	2837.62
962.907	2804.62
963.134	2776.62
963.36	2762.62
963.587	2807.62
963.813	2717.62
964.04	2763.62
964.266	2681.62
964.493	2775.62
964.719	2723.62
964.945	2733.62
965.171	2614.62
965.398	2642.62
965.624	2695.62
965.85	2623.62
966.076	2634.62
966.302	2662.62
966.528	2618.62
966.754	2651.62
966.98	2649.62
967.206	2629.62
967.431	2563.62
967.657	2594.62
967.883	2618.62
968.109	2632.62
968.334	2546.62
968.56	2540.62
968.785	2562.62
969.011	2517.62
969.236	2581.62
969.462	2504.62
969.687	2531.62
969.912	2601.62
970.138	2590.62
970.363	2493.62
970.588	2547.62
970.813	2486.62
971.038	2471.62
971.263	2464.62
971.488	2536.62
971.713	2504.62
971.938	2509.62
972.163	2420.62
972.388	2418.62
972.613	2418.62
972.838	2429.62
973.062	2380.62
973.287	2370.62
973.512	2338.62
973.736	2383.62
973.961	2375.62
974.185	2356.62
974.41	2400.62
974.634	2270.62
974.858	2316.62
975.083	2294.62
975.307	2339.62
975.531	2300.62
975.755	2226.62
975.98	2265.62
976.204	2163.62
976.428	2194.62
976.652	2188.62
976.876	2162.62
977.1	2212.62
977.324	2144.62
977.547	2203.62
977.771	2217.62
977.995	2183.62
978.219	2125.62
978.442	2216.62
978.666	2196.62
978.89	2177.62
979.113	2168.62
979.337	2157.62
979.56	2127.62
979.783	2199.62
980.007	2077.62
980.23	2110.62
980.453	2105.62
980.677	2128.62
980.9	2111.62
981.123	2021.62
981.346	2104.62
981.569	2104.62
981.792	2098.62
982.015	2055.62
982.238	2053.62
982.461	2052.62
982.684	2026.62
982.907	1997.62
983.129	1977.62
983.352	2043.62
983.575	2003.62
983.797	2006.62
984.02	1963.62
984.242	2000.62
984.465	1975.62
984.687	2014.62
984.91	2062.62
985.132	1981.62
985.354	1989.62
985.577	1946.62
985.799	1950.62
986.021	1889.62
986.243	1913.62
986.465	1928.62
986.687	1975.62
986.909	1990.62
987.131	1922.62
987.353	1915.62
987.575	1943.62
987.797	1911.62
988.019	1838.62
988.241	1908.62
988.462	1854.62
988.684	1940.62
988.906	1947.62
989.127	1981.62
989.349	1860.62
989.57	1874.62
989.792	1918.62
990.013	1913.62
990.234	1923.62
990.456	1967.62
990.677	1953.62
990.898	1837.62
991.119	1867.62
991.341	1891.62
991.562	1801.62
991.783	1836.62
992.004	1805.62
992.225	1777.62
992.446	1843.62
992.667	1748.62
992.887	1834.62
993.108	1745.62
993.329	1855.62
993.55	1788.62
993.77	1753.62
993.991	1719.62
994.212	1795.62
994.432	1742.62
994.653	1788.62
994.873	1743.62
995.093	1663.62
995.314	1698.62
995.534	1788.62
995.754	1773.62
995.975	1811.62
996.195	1688.62
996.415	1738.62
996.635	1721.62
996.855	1725.62
997.075	1710.62
997.295	1715.62
997.515	1718.62
997.735	1757.62
997.955	1716.62
998.174	1700.62
998.394	1676.62
998.614	1744.62
998.834	1700.62
999.053	1741.62
999.273	1703.62
999.492	1778.62
999.712	1683.62
999.931	1639.62
1000.151	1684.62
1000.37	1649.62
1000.589	1740.62
1000.809	1647.62
1001.028	1775.62
1001.247	1687.62
1001.466	1592.62
1001.685	1709.62
1001.904	1649.62
1002.123	1644.62
1002.342	1661.62
1002.561	1622.62
1002.78	1643.62
1002.999	1685.62
1003.218	1627.62
1003.436	1574.62
1003.655	1675.62
1003.874	1598.62
1004.092	1594.62
1004.311	1642.62
1004.53	1612.62
1004.748	1687.62
1004.966	1592.62
1005.185	1666.62
1005.403	1656.62
1005.622	1619.62
1005.84	1721.62
1006.058	1608.62
1006.276	1633.62
1006.494	2119.62
1006.712	1658.62
1006.931	1705.62
1007.149	1612.62
1007.367	1610.62
1007.584	1663.62
1007.802	1687.62
1008.02	1653.62
1008.238	1771.62
1008.456	1785.62
1008.673	1647.62
1008.891	1768.62
1009.109	1723.62
1009.326	1817.62
1009.544	1923.62
1009.761	1850.62
1009.979	1969.62
1010.196	2022.62
1010.413	2160.62
1010.631	2236.62
1010.848	2319.62
1011.065	2338.62
1011.282	2317.62
1011.5	2244.62
1011.717	2329.62
1011.934	2295.62
1012.151	2287.62
1012.368	2313.62
1012.585	2227.62
1012.801	2296.62
1013.018	2295.62
1013.235	2250.62
1013.452	2238.62
1013.669	2308.62
1013.885	2300.62
1014.102	2391.62
1014.318	2336.62
1014.535	2255.62
1014.751	2290.62
1014.968	2287.62
1015.184	2313.62
1015.401	2196.62
1015.617	2256.62
1015.833	2200.62
1016.049	2201.62
1016.266	2182.62
1016.482	2198.62
1016.698	2110.62
1016.914	2160.62
1017.13	2110.62
1017.346	2075.62
1017.562	2118.62
1017.778	2081.62
1017.993	2042.62
1018.209	2110.62
1018.425	2085.62
1018.641	2046.62
1018.856	2022.62
1019.072	2081.62
1019.288	2113.62
1019.503	2119.62
1019.719	1973.62
1019.934	1991.62
1020.149	2029.62
1020.365	2008.62
1020.58	1896.62
1020.795	1966.62
1021.011	1868.62
1021.226	1788.62
1021.441	1819.62
1021.656	1740.62
1021.871	1646.62
1022.086	1644.62
1022.301	1611.62
1022.516	1607.62
1022.731	1652.62
1022.946	1548.62
1023.16	1518.62
1023.375	1471.62
1023.59	1440.62
1023.804	1401.62
1024.019	1488.62
1024.234	1345.62
1024.448	1383.62
1024.663	1271.62
1024.877	1282.62
1025.092	1298.62
1025.306	1298.62
1025.52	1172.62
1025.734	1251.62
1025.949	1170.62
1026.163	1106.62
1026.377	1053.62
1026.591	1102.62
1026.805	1016.62
1027.019	1030.62
1027.233	976.62
1027.447	926.62
1027.661	1032.62
1027.875	954.62
1028.088	937.62
1028.302	871.62
1028.516	872.62
1028.73	853.62
1028.943	845.62
1029.157	799.62
1029.37	753.62
1029.584	0.62
1029.797	-2.38
1030.011	-2.38
1030.224	-1.38
