Data from QEP037381__130__15-15-22-882.txt Node

Date: Wed Dec 21 15:15:22 EST 2022
User: dcclab
Spectrometer: QEP03738
Trigger mode: 4
Integration Time (sec): 1.000000E1
Scans to average: 1
Electric dark correction enabled: true
Nonlinearity correction enabled: false
Boxcar width: 0
XAxis mode: Wavelengths
Number of Pixels in Spectrum: 1044
>>>>>Begin Spectral Data<<<<<
784.041	9.25
784.3	1.25
784.558	0.25
784.817	-5.75
785.075	95619.25
785.334	16187.25
785.592	7447.25
785.851	5094.25
786.109	3845.25
786.368	3007.25
786.626	2402.25
786.884	1986.25
787.143	1661.25
787.401	1407.25
787.659	1270.25
787.917	1071.25
788.175	998.25
788.433	877.25
788.691	796.25
788.949	733.25
789.207	696.25
789.465	606.25
789.723	592.25
789.98	543.25
790.238	593.25
790.496	546.25
790.753	548.25
791.011	582.25
791.268	530.25
791.526	503.25
791.783	519.25
792.041	504.25
792.298	417.25
792.556	490.25
792.813	457.25
793.07	436.25
793.327	425.25
793.584	513.25
793.841	434.25
794.099	453.25
794.356	513.25
794.613	419.25
794.869	430.25
795.126	414.25
795.383	414.25
795.64	432.25
795.897	382.25
796.153	451.25
796.41	422.25
796.667	393.25
796.923	411.25
797.18	421.25
797.436	440.25
797.693	399.25
797.949	458.25
798.206	491.25
798.462	403.25
798.718	461.25
798.974	437.25
799.231	482.25
799.487	453.25
799.743	477.25
799.999	499.25
800.255	505.25
800.511	468.25
800.767	517.25
801.023	496.25
801.279	545.25
801.534	567.25
801.79	616.25
802.046	647.25
802.302	755.25
802.557	855.25
802.813	1044.25
803.068	1276.25
803.324	1726.25
803.579	2319.25
803.835	3147.25
804.09	4364.25
804.345	5618.25
804.601	7054.25
804.856	8548.25
805.111	9912.25
805.366	10913.25
805.621	11662.25
805.876	12194.25
806.131	12589.25
806.386	12758.25
806.641	13130.25
806.896	13377.25
807.151	13651.25
807.406	13810.25
807.661	14042.25
807.915	14408.25
808.17	14620.25
808.425	14771.25
808.679	14917.25
808.934	15121.25
809.188	15229.25
809.443	15462.25
809.697	15741.25
809.951	15835.25
810.206	16039.25
810.46	16115.25
810.714	16389.25
810.968	16526.25
811.223	16581.25
811.477	16682.25
811.731	16963.25
811.985	16963.25
812.239	17089.25
812.493	17161.25
812.747	17355.25
813	17509.25
813.254	17477.25
813.508	17693.25
813.762	17716.25
814.015	17790.25
814.269	18022.25
814.522	18118.25
814.776	18473.25
815.03	18670.25
815.283	18911.25
815.536	19320.25
815.79	19570.25
816.043	19953.25
816.296	20170.25
816.55	20444.25
816.803	20815.25
817.056	20958.25
817.309	21216.25
817.562	21551.25
817.815	21703.25
818.068	21859.25
818.321	22204.25
818.574	22422.25
818.827	22803.25
819.079	23080.25
819.332	23568.25
819.585	23802.25
819.838	24157.25
820.09	24150.25
820.343	24451.25
820.595	24689.25
820.848	24756.25
821.1	24820.25
821.353	24796.25
821.605	24985.25
821.857	24888.25
822.11	24763.25
822.362	24739.25
822.614	24762.25
822.866	24757.25
823.118	24777.25
823.37	25016.25
823.622	24916.25
823.874	25149.25
824.126	25131.25
824.378	25325.25
824.63	25371.25
824.882	25357.25
825.134	25387.25
825.385	25236.25
825.637	25174.25
825.888	25301.25
826.14	25143.25
826.392	25083.25
826.643	25055.25
826.895	25052.25
827.146	24988.25
827.397	24722.25
827.649	24958.25
827.9	25027.25
828.151	24855.25
828.402	25137.25
828.653	25086.25
828.905	25294.25
829.156	25296.25
829.407	25299.25
829.658	25244.25
829.909	25370.25
830.159	25310.25
830.41	25329.25
830.661	25158.25
830.912	24961.25
831.162	24988.25
831.413	25013.25
831.664	25033.25
831.914	24985.25
832.165	25068.25
832.415	25042.25
832.666	25000.25
832.916	25071.25
833.167	25135.25
833.417	25004.25
833.667	24981.25
833.917	24899.25
834.168	24872.25
834.418	24864.25
834.668	24709.25
834.918	24629.25
835.168	24569.25
835.418	24489.25
835.668	24422.25
835.918	24430.25
836.167	24441.25
836.417	24303.25
836.667	24217.25
836.917	24445.25
837.166	24346.25
837.416	24426.25
837.666	24345.25
837.915	24225.25
838.165	24213.25
838.414	24178.25
838.663	24108.25
838.913	24225.25
839.162	24159.25
839.411	24192.25
839.661	23999.25
839.91	24087.25
840.159	24104.25
840.408	24120.25
840.657	24148.25
840.906	24144.25
841.155	24319.25
841.404	24206.25
841.653	24154.25
841.902	24287.25
842.15	24375.25
842.399	24422.25
842.648	24328.25
842.897	24135.25
843.145	24091.25
843.394	23940.25
843.642	23763.25
843.891	23752.25
844.139	23618.25
844.388	23470.25
844.636	23425.25
844.884	23501.25
845.133	23349.25
845.381	23459.25
845.629	23460.25
845.877	23420.25
846.125	23445.25
846.373	23453.25
846.621	23415.25
846.869	23364.25
847.117	23195.25
847.365	23075.25
847.613	22985.25
847.861	22911.25
848.108	22893.25
848.356	22816.25
848.604	22816.25
848.851	22856.25
849.099	22867.25
849.346	22984.25
849.594	23098.25
849.841	23246.25
850.089	23401.25
850.336	23302.25
850.583	23495.25
850.831	23398.25
851.078	23308.25
851.325	23369.25
851.572	23474.25
851.819	23132.25
852.066	22683.25
852.313	22303.25
852.56	22153.25
852.807	22079.25
853.054	21895.25
853.301	22083.25
853.548	22073.25
853.794	22197.25
854.041	22331.25
854.288	22428.25
854.534	22641.25
854.781	22629.25
855.028	22469.25
855.274	22554.25
855.52	22327.25
855.767	22317.25
856.013	22407.25
856.26	22571.25
856.506	21989.25
856.752	22129.25
856.998	22046.25
857.244	22215.25
857.49	22238.25
857.736	22345.25
857.982	22281.25
858.228	22318.25
858.474	22149.25
858.72	22013.25
858.966	21779.25
859.212	21606.25
859.458	21394.25
859.703	21166.25
859.949	20963.25
860.195	20867.25
860.44	20801.25
860.686	20695.25
860.931	20755.25
861.177	20552.25
861.422	20570.25
861.667	20469.25
861.913	20470.25
862.158	20466.25
862.403	20536.25
862.648	20550.25
862.893	20665.25
863.138	20601.25
863.384	20555.25
863.629	20557.25
863.873	20575.25
864.118	20554.25
864.363	20524.25
864.608	20494.25
864.853	20390.25
865.098	20319.25
865.342	20207.25
865.587	20161.25
865.832	20205.25
866.076	20072.25
866.321	20099.25
866.565	20019.25
866.81	19974.25
867.054	19958.25
867.298	19831.25
867.543	19793.25
867.787	19764.25
868.031	19825.25
868.275	19909.25
868.519	19747.25
868.764	19666.25
869.008	19762.25
869.252	19711.25
869.496	19747.25
869.739	19665.25
869.983	19677.25
870.227	19759.25
870.471	19734.25
870.715	19691.25
870.958	19820.25
871.202	19864.25
871.446	20035.25
871.689	19948.25
871.933	19893.25
872.176	19820.25
872.42	19828.25
872.663	19814.25
872.906	19790.25
873.15	19721.25
873.393	19658.25
873.636	19631.25
873.879	19390.25
874.122	19235.25
874.366	19063.25
874.609	18851.25
874.852	18820.25
875.095	18704.25
875.337	18614.25
875.58	18562.25
875.823	18554.25
876.066	18411.25
876.309	18478.25
876.551	18322.25
876.794	18214.25
877.037	18394.25
877.279	18083.25
877.522	18231.25
877.764	18142.25
878.007	18139.25
878.249	18142.25
878.491	18035.25
878.734	18111.25
878.976	17962.25
879.218	17890.25
879.46	17871.25
879.702	17759.25
879.945	17547.25
880.187	17400.25
880.429	17316.25
880.671	17276.25
880.912	17158.25
881.154	17167.25
881.396	17031.25
881.638	17240.25
881.88	17262.25
882.121	17108.25
882.363	16996.25
882.605	17101.25
882.846	17021.25
883.088	17009.25
883.329	16961.25
883.571	17094.25
883.812	17271.25
884.053	17502.25
884.295	17745.25
884.536	18094.25
884.777	18009.25
885.018	17978.25
885.259	17857.25
885.5	17741.25
885.742	18016.25
885.982	17679.25
886.223	17536.25
886.464	17391.25
886.705	17158.25
886.946	17056.25
887.187	16744.25
887.428	16579.25
887.668	16341.25
887.909	16066.25
888.15	15919.25
888.39	15910.25
888.631	15811.25
888.871	15691.25
889.111	15623.25
889.352	15431.25
889.592	15264.25
889.833	15141.25
890.073	15113.25
890.313	15068.25
890.553	14888.25
890.793	14865.25
891.033	14859.25
891.273	14762.25
891.513	14656.25
891.753	14606.25
891.993	14669.25
892.233	14662.25
892.473	14834.25
892.713	14729.25
892.952	14717.25
893.192	14763.25
893.432	14822.25
893.671	14771.25
893.911	14637.25
894.15	14621.25
894.39	14449.25
894.629	14410.25
894.869	14382.25
895.108	14250.25
895.347	14148.25
895.587	14257.25
895.826	14153.25
896.065	14151.25
896.304	14195.25
896.543	14114.25
896.782	14080.25
897.021	14136.25
897.26	14085.25
897.499	14108.25
897.738	14068.25
897.977	13921.25
898.216	13859.25
898.454	13695.25
898.693	13666.25
898.932	13701.25
899.17	13588.25
899.409	13608.25
899.647	13495.25
899.886	13567.25
900.124	13658.25
900.363	13545.25
900.601	13605.25
900.839	13611.25
901.078	13654.25
901.316	13730.25
901.554	13866.25
901.792	13850.25
902.03	13887.25
902.268	13868.25
902.506	13939.25
902.744	13718.25
902.982	13535.25
903.22	13418.25
903.458	13140.25
903.695	12985.25
903.933	12768.25
904.171	12629.25
904.409	12395.25
904.646	12275.25
904.884	12097.25
905.121	11904.25
905.359	11801.25
905.596	11699.25
905.833	11560.25
906.071	11536.25
906.308	11513.25
906.545	11501.25
906.783	11365.25
907.02	11378.25
907.257	11303.25
907.494	11392.25
907.731	11318.25
907.968	11261.25
908.205	11222.25
908.442	11035.25
908.679	11059.25
908.915	10972.25
909.152	10935.25
909.389	10797.25
909.626	10753.25
909.862	10652.25
910.099	10604.25
910.335	10611.25
910.572	10504.25
910.808	10478.25
911.045	10453.25
911.281	10455.25
911.518	10406.25
911.754	10318.25
911.99	10283.25
912.226	10193.25
912.463	10112.25
912.699	10097.25
912.935	9957.25
913.171	9945.25
913.407	9806.25
913.643	9781.25
913.879	9689.25
914.114	9531.25
914.35	9458.25
914.586	9411.25
914.822	9353.25
915.057	9402.25
915.293	9161.25
915.529	9084.25
915.764	9196.25
916	9180.25
916.235	9159.25
916.471	9201.25
916.706	9004.25
916.941	9049.25
917.177	9029.25
917.412	9027.25
917.647	9053.25
917.882	9007.25
918.117	9059.25
918.352	9043.25
918.588	8942.25
918.823	8844.25
919.057	8830.25
919.292	8596.25
919.527	8684.25
919.762	8533.25
919.997	8516.25
920.232	8356.25
920.466	8319.25
920.701	8247.25
920.935	8193.25
921.17	8020.25
921.405	8099.25
921.639	8123.25
921.873	8067.25
922.108	8073.25
922.342	8058.25
922.576	7928.25
922.811	7974.25
923.045	7948.25
923.279	7904.25
923.513	7753.25
923.747	7776.25
923.981	7765.25
924.215	7695.25
924.449	7681.25
924.683	7567.25
924.917	7510.25
925.151	7538.25
925.385	7502.25
925.618	7523.25
925.852	7530.25
926.086	7401.25
926.319	7481.25
926.553	7456.25
926.786	7488.25
927.02	7499.25
927.253	7431.25
927.486	7443.25
927.72	7360.25
927.953	7437.25
928.186	7330.25
928.42	7363.25
928.653	7275.25
928.886	7213.25
929.119	7208.25
929.352	7234.25
929.585	7196.25
929.818	7068.25
930.051	7043.25
930.284	7014.25
930.516	6941.25
930.749	6824.25
930.982	6871.25
931.215	6845.25
931.447	6742.25
931.68	6727.25
931.912	6741.25
932.145	6739.25
932.377	6700.25
932.61	6853.25
932.842	6684.25
933.074	6715.25
933.307	6618.25
933.539	6815.25
933.771	6752.25
934.003	6679.25
934.236	6822.25
934.468	6776.25
934.7	6656.25
934.932	6723.25
935.164	6655.25
935.395	6599.25
935.627	6550.25
935.859	6587.25
936.091	6522.25
936.323	6586.25
936.554	6574.25
936.786	6513.25
937.017	6433.25
937.249	6437.25
937.481	6358.25
937.712	6486.25
937.943	6462.25
938.175	6389.25
938.406	6374.25
938.637	6365.25
938.869	6278.25
939.1	6336.25
939.331	6367.25
939.562	6323.25
939.793	6293.25
940.024	6263.25
940.255	6245.25
940.486	6179.25
940.717	6141.25
940.948	6166.25
941.179	6102.25
941.409	6086.25
941.64	6073.25
941.871	6119.25
942.102	6091.25
942.332	6059.25
942.563	6128.25
942.793	6069.25
943.024	6024.25
943.254	6057.25
943.484	6065.25
943.715	6124.25
943.945	6076.25
944.175	5985.25
944.405	5993.25
944.636	5969.25
944.866	6022.25
945.096	6004.25
945.326	5900.25
945.556	5972.25
945.786	5953.25
946.016	5908.25
946.245	5828.25
946.475	5811.25
946.705	5791.25
946.935	5732.25
947.164	5700.25
947.394	5699.25
947.624	5704.25
947.853	5758.25
948.083	5629.25
948.312	5545.25
948.542	5529.25
948.771	5484.25
949	5502.25
949.23	5472.25
949.459	5486.25
949.688	5567.25
949.917	5533.25
950.146	5478.25
950.375	5543.25
950.604	5456.25
950.833	5516.25
951.062	5469.25
951.291	5447.25
951.52	5444.25
951.749	5389.25
951.978	5384.25
952.206	5374.25
952.435	5337.25
952.664	5341.25
952.892	5357.25
953.121	5352.25
953.349	5342.25
953.578	5253.25
953.806	5263.25
954.035	5222.25
954.263	5178.25
954.491	5150.25
954.719	5177.25
954.948	5097.25
955.176	5053.25
955.404	5042.25
955.632	5039.25
955.86	5034.25
956.088	5045.25
956.316	5026.25
956.544	5069.25
956.772	4997.25
956.999	4916.25
957.227	4984.25
957.455	4868.25
957.683	4845.25
957.91	4829.25
958.138	4803.25
958.365	4760.25
958.593	4779.25
958.82	4721.25
959.048	4752.25
959.275	4753.25
959.502	4677.25
959.73	4664.25
959.957	4717.25
960.184	4708.25
960.411	4636.25
960.638	4716.25
960.865	4642.25
961.092	4658.25
961.319	4577.25
961.546	4660.25
961.773	4647.25
962	4642.25
962.227	4634.25
962.454	4588.25
962.68	4525.25
962.907	4575.25
963.134	4491.25
963.36	4505.25
963.587	4465.25
963.813	4414.25
964.04	4403.25
964.266	4326.25
964.493	4422.25
964.719	4366.25
964.945	4323.25
965.171	4267.25
965.398	4306.25
965.624	4315.25
965.85	4202.25
966.076	4184.25
966.302	4218.25
966.528	4199.25
966.754	4213.25
966.98	4184.25
967.206	4119.25
967.431	4087.25
967.657	4120.25
967.883	4112.25
968.109	4118.25
968.334	4055.25
968.56	4033.25
968.785	4022.25
969.011	3981.25
969.236	4071.25
969.462	4025.25
969.687	3942.25
969.912	4056.25
970.138	4005.25
970.363	3896.25
970.588	3957.25
970.813	3898.25
971.038	3898.25
971.263	3914.25
971.488	3886.25
971.713	3927.25
971.938	3898.25
972.163	3765.25
972.388	3812.25
972.613	3765.25
972.838	3797.25
973.062	3770.25
973.287	3731.25
973.512	3690.25
973.736	3695.25
973.961	3665.25
974.185	3645.25
974.41	3669.25
974.634	3554.25
974.858	3543.25
975.083	3611.25
975.307	3626.25
975.531	3513.25
975.755	3502.25
975.98	3475.25
976.204	3404.25
976.428	3412.25
976.652	3400.25
976.876	3364.25
977.1	3379.25
977.324	3355.25
977.547	3412.25
977.771	3422.25
977.995	3343.25
978.219	3285.25
978.442	3388.25
978.666	3353.25
978.89	3290.25
979.113	3336.25
979.337	3241.25
979.56	3239.25
979.783	3314.25
980.007	3236.25
980.23	3261.25
980.453	3236.25
980.677	3245.25
980.9	3206.25
981.123	3100.25
981.346	3196.25
981.569	3153.25
981.792	3194.25
982.015	3128.25
982.238	3080.25
982.461	3134.25
982.684	3040.25
982.907	2992.25
983.129	2984.25
983.352	3031.25
983.575	3003.25
983.797	3002.25
984.02	2952.25
984.242	2947.25
984.465	2948.25
984.687	2987.25
984.91	2958.25
985.132	2959.25
985.354	2956.25
985.577	2914.25
985.799	2888.25
986.021	2801.25
986.243	2811.25
986.465	2862.25
986.687	2846.25
986.909	2906.25
987.131	2831.25
987.353	2831.25
987.575	2837.25
987.797	2804.25
988.019	2733.25
988.241	2780.25
988.462	2756.25
988.684	2821.25
988.906	2813.25
989.127	2819.25
989.349	2709.25
989.57	2716.25
989.792	2734.25
990.013	2749.25
990.234	2794.25
990.456	2764.25
990.677	2765.25
990.898	2669.25
991.119	2684.25
991.341	2709.25
991.562	2586.25
991.783	2667.25
992.004	2574.25
992.225	2551.25
992.446	2608.25
992.667	2480.25
992.887	2607.25
993.108	2461.25
993.329	2616.25
993.55	2540.25
993.77	2462.25
993.991	2480.25
994.212	2488.25
994.432	2452.25
994.653	2474.25
994.873	2436.25
995.093	2345.25
995.314	2373.25
995.534	2435.25
995.754	2441.25
995.975	2483.25
996.195	2385.25
996.415	2445.25
996.635	2381.25
996.855	2431.25
997.075	2352.25
997.295	2374.25
997.515	2342.25
997.735	2410.25
997.955	2369.25
998.174	2369.25
998.394	2361.25
998.614	2376.25
998.834	2296.25
999.053	2343.25
999.273	2360.25
999.492	2378.25
999.712	2309.25
999.931	2268.25
1000.151	2295.25
1000.37	2249.25
1000.589	2343.25
1000.809	2231.25
1001.028	2337.25
1001.247	2251.25
1001.466	2174.25
1001.685	2279.25
1001.904	2210.25
1002.123	2180.25
1002.342	2213.25
1002.561	2158.25
1002.78	2184.25
1002.999	2222.25
1003.218	2166.25
1003.436	2123.25
1003.655	2169.25
1003.874	2088.25
1004.092	2112.25
1004.311	2172.25
1004.53	2099.25
1004.748	2166.25
1004.966	2054.25
1005.185	2138.25
1005.403	2141.25
1005.622	2110.25
1005.84	2164.25
1006.058	2067.25
1006.276	2113.25
1006.494	2619.25
1006.712	2057.25
1006.931	2135.25
1007.149	2065.25
1007.367	2061.25
1007.584	2103.25
1007.802	2161.25
1008.02	2062.25
1008.238	2218.25
1008.456	2172.25
1008.673	2056.25
1008.891	2183.25
1009.109	2137.25
1009.326	2187.25
1009.544	2288.25
1009.761	2222.25
1009.979	2305.25
1010.196	2407.25
1010.413	2487.25
1010.631	2514.25
1010.848	2601.25
1011.065	2652.25
1011.282	2585.25
1011.5	2542.25
1011.717	2619.25
1011.934	2611.25
1012.151	2624.25
1012.368	2589.25
1012.585	2521.25
1012.801	2591.25
1013.018	2552.25
1013.235	2514.25
1013.452	2556.25
1013.669	2599.25
1013.885	2550.25
1014.102	2589.25
1014.318	2559.25
1014.535	2506.25
1014.751	2516.25
1014.968	2529.25
1015.184	2549.25
1015.401	2473.25
1015.617	2450.25
1015.833	2412.25
1016.049	2447.25
1016.266	2406.25
1016.482	2388.25
1016.698	2290.25
1016.914	2331.25
1017.13	2312.25
1017.346	2289.25
1017.562	2352.25
1017.778	2288.25
1017.993	2274.25
1018.209	2321.25
1018.425	2293.25
1018.641	2281.25
1018.856	2241.25
1019.072	2270.25
1019.288	2310.25
1019.503	2234.25
1019.719	2163.25
1019.934	2163.25
1020.149	2233.25
1020.365	2183.25
1020.58	2087.25
1020.795	2116.25
1021.011	2028.25
1021.226	2008.25
1021.441	2000.25
1021.656	1921.25
1021.871	1851.25
1022.086	1827.25
1022.301	1801.25
1022.516	1764.25
1022.731	1807.25
1022.946	1706.25
1023.16	1683.25
1023.375	1687.25
1023.59	1604.25
1023.804	1571.25
1024.019	1634.25
1024.234	1531.25
1024.448	1510.25
1024.663	1470.25
1024.877	1465.25
1025.092	1471.25
1025.306	1483.25
1025.52	1336.25
1025.734	1412.25
1025.949	1331.25
1026.163	1280.25
1026.377	1203.25
1026.591	1256.25
1026.805	1156.25
1027.019	1172.25
1027.233	1125.25
1027.447	1064.25
1027.661	1155.25
1027.875	1089.25
1028.088	1070.25
1028.302	1006.25
1028.516	992.25
1028.73	972.25
1028.943	946.25
1029.157	886.25
1029.37	819.25
1029.584	-1.75
1029.797	-0.75
1030.011	-0.75
1030.224	-1.75
