Data from QEP037381__20__10-25-40-304.txt Node

Date: Fri Apr 28 10:25:40 EDT 2023
User: dcclab
Spectrometer: QEP03738
Trigger mode: 4
Integration Time (sec): 1.000000E1
Scans to average: 1
Electric dark correction enabled: true
Nonlinearity correction enabled: false
Boxcar width: 0
XAxis mode: Wavelengths
Number of Pixels in Spectrum: 1044
>>>>>Begin Spectral Data<<<<<
784.041	9.75
784.3	0.75
784.558	-3.25
784.817	-2.25
785.075	64197.75
785.334	13008.75
785.592	6838.75
785.851	4839.75
786.109	3715.75
786.368	2902.75
786.626	2349.75
786.884	1984.75
787.143	1659.75
787.401	1373.75
787.659	1242.75
787.917	1083.75
788.175	1007.75
788.433	877.75
788.691	798.75
788.949	757.75
789.207	735.75
789.465	638.75
789.723	617.75
789.98	558.75
790.238	612.75
790.496	575.75
790.753	561.75
791.011	609.75
791.268	541.75
791.526	520.75
791.783	534.75
792.041	538.75
792.298	450.75
792.556	522.75
792.813	512.75
793.07	490.75
793.327	476.75
793.584	547.75
793.841	475.75
794.099	492.75
794.356	550.75
794.613	473.75
794.869	499.75
795.126	463.75
795.383	458.75
795.64	481.75
795.897	428.75
796.153	493.75
796.41	483.75
796.667	470.75
796.923	474.75
797.18	473.75
797.436	518.75
797.693	475.75
797.949	527.75
798.206	566.75
798.462	485.75
798.718	558.75
798.974	513.75
799.231	565.75
799.487	570.75
799.743	583.75
799.999	623.75
800.255	637.75
800.511	621.75
800.767	687.75
801.023	693.75
801.279	770.75
801.534	838.75
801.79	937.75
802.046	1058.75
802.302	1342.75
802.557	1616.75
802.813	2139.75
803.068	2938.75
803.324	4272.75
803.579	6030.75
803.835	8477.75
804.09	11573.75
804.345	14811.75
804.601	18015.75
804.856	21009.75
805.111	23384.75
805.366	24835.75
805.621	26174.75
805.876	26864.75
806.131	27475.75
806.386	27909.75
806.641	28500.75
806.896	28961.75
807.151	29356.75
807.406	29833.75
807.661	30494.75
807.915	30983.75
808.17	31531.75
808.425	31781.75
808.679	32252.75
808.934	32580.75
809.188	33081.75
809.443	33379.75
809.697	33878.75
809.951	33974.75
810.206	34376.75
810.46	34740.75
810.714	35003.75
810.968	35302.75
811.223	35466.75
811.477	35914.75
811.731	36252.75
811.985	36432.75
812.239	36566.75
812.493	36798.75
812.747	37103.75
813	37087.75
813.254	37331.75
813.508	37617.75
813.762	37626.75
814.015	37989.75
814.269	38249.75
814.522	38492.75
814.776	38953.75
815.03	39400.75
815.283	39952.75
815.536	40563.75
815.79	41218.75
816.043	41807.75
816.296	42240.75
816.55	42836.75
816.803	43218.75
817.056	43983.75
817.309	44349.75
817.562	44789.75
817.815	45383.75
818.068	45797.75
818.321	46450.75
818.574	47190.75
818.827	47730.75
819.079	48451.75
819.332	49421.75
819.585	50037.75
819.838	50570.75
820.09	51033.75
820.343	51524.75
820.595	51850.75
820.848	52163.75
821.1	52309.75
821.353	52432.75
821.605	52470.75
821.857	52412.75
822.11	52144.75
822.362	52318.75
822.614	52229.75
822.866	52254.75
823.118	52178.75
823.37	52523.75
823.622	52628.75
823.874	52968.75
824.126	53003.75
824.378	53266.75
824.63	53243.75
824.882	53432.75
825.134	53548.75
825.385	53533.75
825.637	53488.75
825.888	53365.75
826.14	53193.75
826.392	53132.75
826.643	52931.75
826.895	52702.75
827.146	52646.75
827.397	52521.75
827.649	52622.75
827.9	52527.75
828.151	52640.75
828.402	52752.75
828.653	52974.75
828.905	53129.75
829.156	53255.75
829.407	53263.75
829.658	53321.75
829.909	53514.75
830.159	53143.75
830.41	53007.75
830.661	52665.75
830.912	52486.75
831.162	52266.75
831.413	52324.75
831.664	52153.75
831.914	52147.75
832.165	52180.75
832.415	52163.75
832.666	52152.75
832.916	52303.75
833.167	52193.75
833.417	52287.75
833.667	52037.75
833.917	52024.75
834.168	51770.75
834.418	51540.75
834.668	51452.75
834.918	51259.75
835.168	51044.75
835.418	50858.75
835.668	50627.75
835.918	50507.75
836.167	50531.75
836.417	50542.75
836.667	50578.75
836.917	50320.75
837.166	50586.75
837.416	50414.75
837.666	50300.75
837.915	50372.75
838.165	50310.75
838.414	50103.75
838.663	49989.75
838.913	50133.75
839.162	49969.75
839.411	49895.75
839.661	49790.75
839.91	49740.75
840.159	49590.75
840.408	49686.75
840.657	49508.75
840.906	49646.75
841.155	49790.75
841.404	49704.75
841.653	49767.75
841.902	49929.75
842.15	49833.75
842.399	50030.75
842.648	49837.75
842.897	49718.75
843.145	49528.75
843.394	49056.75
843.642	48885.75
843.891	48828.75
844.139	48326.75
844.388	48211.75
844.636	48073.75
844.884	48029.75
845.133	48004.75
845.381	48094.75
845.629	48026.75
845.877	47881.75
846.125	47810.75
846.373	47695.75
846.621	47631.75
846.869	47492.75
847.117	47371.75
847.365	47084.75
847.613	47022.75
847.861	46806.75
848.108	46919.75
848.356	46646.75
848.604	46747.75
848.851	46584.75
849.099	46790.75
849.346	47061.75
849.594	47249.75
849.841	47284.75
850.089	47393.75
850.336	47375.75
850.583	47464.75
850.831	47268.75
851.078	46717.75
851.325	46803.75
851.572	46614.75
851.819	46216.75
852.066	45484.75
852.313	45019.75
852.56	44802.75
852.807	44558.75
853.054	44529.75
853.301	44663.75
853.548	44536.75
853.794	44741.75
854.041	45050.75
854.288	45136.75
854.534	45622.75
854.781	45467.75
855.028	45321.75
855.274	45424.75
855.52	45228.75
855.767	45240.75
856.013	45130.75
856.26	45169.75
856.506	44601.75
856.752	44438.75
856.998	44497.75
857.244	44785.75
857.49	44970.75
857.736	44913.75
857.982	44892.75
858.228	44694.75
858.474	44481.75
858.72	43988.75
858.966	43760.75
859.212	43424.75
859.458	42981.75
859.703	42648.75
859.949	42232.75
860.195	42104.75
860.44	41812.75
860.686	41833.75
860.931	41711.75
861.177	41457.75
861.422	41341.75
861.667	41147.75
861.913	41216.75
862.158	41239.75
862.403	41322.75
862.648	41552.75
862.893	41627.75
863.138	41524.75
863.384	41324.75
863.629	41346.75
863.873	41248.75
864.118	41077.75
864.363	40906.75
864.608	40555.75
864.853	40647.75
865.098	40240.75
865.342	40165.75
865.587	39916.75
865.832	40052.75
866.076	39879.75
866.321	39658.75
866.565	39655.75
866.81	39575.75
867.054	39460.75
867.298	39378.75
867.543	39374.75
867.787	39354.75
868.031	39349.75
868.275	39119.75
868.519	39125.75
868.764	39170.75
869.008	39066.75
869.252	38865.75
869.496	38851.75
869.739	38856.75
869.983	38821.75
870.227	38917.75
870.471	38806.75
870.715	39103.75
870.958	39075.75
871.202	39056.75
871.446	39166.75
871.689	39208.75
871.933	39036.75
872.176	39056.75
872.42	38990.75
872.663	38868.75
872.906	39031.75
873.15	38869.75
873.393	38753.75
873.636	38601.75
873.879	38131.75
874.122	37663.75
874.366	37238.75
874.609	36909.75
874.852	36794.75
875.095	36611.75
875.337	36522.75
875.58	36320.75
875.823	36271.75
876.066	36097.75
876.309	36004.75
876.551	35860.75
876.794	35715.75
877.037	35632.75
877.279	35591.75
877.522	35677.75
877.764	35694.75
878.007	35642.75
878.249	35530.75
878.491	35501.75
878.734	35506.75
878.976	35415.75
879.218	35241.75
879.46	34924.75
879.702	34642.75
879.945	34326.75
880.187	34195.75
880.429	34085.75
880.671	33902.75
880.912	33802.75
881.154	33642.75
881.396	33533.75
881.638	33669.75
881.88	33430.75
882.121	33438.75
882.363	33392.75
882.605	33429.75
882.846	33338.75
883.088	33405.75
883.329	33205.75
883.571	33331.75
883.812	33756.75
884.053	34072.75
884.295	34744.75
884.536	34822.75
884.777	34422.75
885.018	34283.75
885.259	34103.75
885.5	33993.75
885.742	34123.75
885.982	33883.75
886.223	33555.75
886.464	33450.75
886.705	33168.75
886.946	32930.75
887.187	32492.75
887.428	32270.75
887.668	31658.75
887.909	31369.75
888.15	31106.75
888.39	30850.75
888.631	30621.75
888.871	30340.75
889.111	30152.75
889.352	30115.75
889.592	29790.75
889.833	29543.75
890.073	29418.75
890.313	29331.75
890.553	29044.75
890.793	28931.75
891.033	28759.75
891.273	28661.75
891.513	28608.75
891.753	28585.75
891.993	28451.75
892.233	28512.75
892.473	28648.75
892.713	28496.75
892.952	28398.75
893.192	28608.75
893.432	28499.75
893.671	28395.75
893.911	28215.75
894.15	28114.75
894.39	27839.75
894.629	27726.75
894.869	27562.75
895.108	27373.75
895.347	27259.75
895.587	27174.75
895.826	27079.75
896.065	26990.75
896.304	26984.75
896.543	26945.75
896.782	26908.75
897.021	26767.75
897.26	26588.75
897.499	26532.75
897.738	26591.75
897.977	26442.75
898.216	26248.75
898.454	25986.75
898.693	25813.75
898.932	25805.75
899.17	25611.75
899.409	25614.75
899.647	25619.75
899.886	25469.75
900.124	25605.75
900.363	25444.75
900.601	25628.75
900.839	25551.75
901.078	25608.75
901.316	25783.75
901.554	25830.75
901.792	25905.75
902.03	25795.75
902.268	25691.75
902.506	25703.75
902.744	25523.75
902.982	25390.75
903.22	25021.75
903.458	24808.75
903.695	24569.75
903.933	24106.75
904.171	23953.75
904.409	23595.75
904.646	23294.75
904.884	22901.75
905.121	22814.75
905.359	22608.75
905.596	22432.75
905.833	22246.75
906.071	22235.75
906.308	22187.75
906.545	22158.75
906.783	22059.75
907.02	22016.75
907.257	22014.75
907.494	21982.75
907.731	21947.75
907.968	21712.75
908.205	21678.75
908.442	21476.75
908.679	21347.75
908.915	21265.75
909.152	21080.75
909.389	20886.75
909.626	20827.75
909.862	20651.75
910.099	20519.75
910.335	20541.75
910.572	20316.75
910.808	20391.75
911.045	20316.75
911.281	20141.75
911.518	20195.75
911.754	20003.75
911.99	19873.75
912.226	19667.75
912.463	19571.75
912.699	19397.75
912.935	19283.75
913.171	19173.75
913.407	19053.75
913.643	18835.75
913.879	18753.75
914.114	18510.75
914.35	18452.75
914.586	18271.75
914.822	18056.75
915.057	18056.75
915.293	17810.75
915.529	17807.75
915.764	17828.75
916	17773.75
916.235	17703.75
916.471	17677.75
916.706	17581.75
916.941	17557.75
917.177	17502.75
917.412	17563.75
917.647	17544.75
917.882	17396.75
918.117	17436.75
918.352	17377.75
918.588	17355.75
918.823	17098.75
919.057	16938.75
919.292	16781.75
919.527	16664.75
919.762	16476.75
919.997	16421.75
920.232	16227.75
920.466	16052.75
920.701	15795.75
920.935	15778.75
921.17	15708.75
921.405	15576.75
921.639	15647.75
921.873	15497.75
922.108	15462.75
922.342	15473.75
922.576	15344.75
922.811	15329.75
923.045	15248.75
923.279	15235.75
923.513	15073.75
923.747	15097.75
923.981	14876.75
924.215	14827.75
924.449	14765.75
924.683	14593.75
924.917	14566.75
925.151	14537.75
925.385	14434.75
925.618	14358.75
925.852	14357.75
926.086	14285.75
926.319	14329.75
926.553	14279.75
926.786	14264.75
927.02	14301.75
927.253	14328.75
927.486	14223.75
927.72	14004.75
927.953	14135.75
928.186	14027.75
928.42	14006.75
928.653	13868.75
928.886	13835.75
929.119	13795.75
929.352	13766.75
929.585	13584.75
929.818	13498.75
930.051	13396.75
930.284	13274.75
930.516	13129.75
930.749	13037.75
930.982	13038.75
931.215	12987.75
931.447	12832.75
931.68	12884.75
931.912	12867.75
932.145	12827.75
932.377	12850.75
932.61	12985.75
932.842	12813.75
933.074	12885.75
933.307	12823.75
933.539	12905.75
933.771	12794.75
934.003	12697.75
934.236	12875.75
934.468	12900.75
934.7	12752.75
934.932	12675.75
935.164	12634.75
935.395	12586.75
935.627	12555.75
935.859	12546.75
936.091	12319.75
936.323	12430.75
936.554	12350.75
936.786	12315.75
937.017	12187.75
937.249	12176.75
937.481	12139.75
937.712	12191.75
937.943	12057.75
938.175	12113.75
938.406	12026.75
938.637	12102.75
938.869	11937.75
939.1	12100.75
939.331	11856.75
939.562	11891.75
939.793	11900.75
940.024	11810.75
940.255	11791.75
940.486	11705.75
940.717	11622.75
940.948	11624.75
941.179	11524.75
941.409	11481.75
941.64	11487.75
941.871	11508.75
942.102	11450.75
942.332	11472.75
942.563	11533.75
942.793	11512.75
943.024	11408.75
943.254	11494.75
943.484	11447.75
943.715	11413.75
943.945	11399.75
944.175	11368.75
944.405	11299.75
944.636	11328.75
944.866	11293.75
945.096	11226.75
945.326	11116.75
945.556	11202.75
945.786	11171.75
946.016	11077.75
946.245	10882.75
946.475	10926.75
946.705	10900.75
946.935	10804.75
947.164	10773.75
947.394	10614.75
947.624	10653.75
947.853	10611.75
948.083	10578.75
948.312	10534.75
948.542	10440.75
948.771	10380.75
949	10417.75
949.23	10402.75
949.459	10367.75
949.688	10411.75
949.917	10346.75
950.146	10317.75
950.375	10361.75
950.604	10241.75
950.833	10320.75
951.062	10299.75
951.291	10250.75
951.52	10183.75
951.749	10161.75
951.978	10140.75
952.206	10108.75
952.435	10057.75
952.664	10048.75
952.892	9995.75
953.121	9959.75
953.349	9958.75
953.578	9889.75
953.806	9878.75
954.035	9712.75
954.263	9771.75
954.491	9670.75
954.719	9679.75
954.948	9614.75
955.176	9543.75
955.404	9433.75
955.632	9463.75
955.86	9394.75
956.088	9353.75
956.316	9398.75
956.544	9325.75
956.772	9269.75
956.999	9202.75
957.227	9195.75
957.455	9059.75
957.683	9098.75
957.91	8998.75
958.138	8861.75
958.365	8949.75
958.593	8907.75
958.82	8778.75
959.048	8861.75
959.275	8749.75
959.502	8770.75
959.73	8685.75
959.957	8708.75
960.184	8702.75
960.411	8661.75
960.638	8723.75
960.865	8607.75
961.092	8663.75
961.319	8528.75
961.546	8642.75
961.773	8640.75
962	8568.75
962.227	8573.75
962.454	8534.75
962.68	8420.75
962.907	8484.75
963.134	8306.75
963.36	8379.75
963.587	8264.75
963.813	8174.75
964.04	8179.75
964.266	8088.75
964.493	8048.75
964.719	8065.75
964.945	8032.75
965.171	7863.75
965.398	7919.75
965.624	7920.75
965.85	7781.75
966.076	7720.75
966.302	7796.75
966.528	7771.75
966.754	7675.75
966.98	7644.75
967.206	7613.75
967.431	7637.75
967.657	7561.75
967.883	7547.75
968.109	7558.75
968.334	7426.75
968.56	7413.75
968.785	7458.75
969.011	7380.75
969.236	7393.75
969.462	7370.75
969.687	7384.75
969.912	7301.75
970.138	7367.75
970.363	7286.75
970.588	7262.75
970.813	7250.75
971.038	7189.75
971.263	7150.75
971.488	7118.75
971.713	7100.75
971.938	7123.75
972.163	6955.75
972.388	6967.75
972.613	6965.75
972.838	6957.75
973.062	6851.75
973.287	6873.75
973.512	6783.75
973.736	6773.75
973.961	6776.75
974.185	6671.75
974.41	6690.75
974.634	6556.75
974.858	6557.75
975.083	6549.75
975.307	6552.75
975.531	6416.75
975.755	6389.75
975.98	6359.75
976.204	6264.75
976.428	6199.75
976.652	6266.75
976.876	6240.75
977.1	6217.75
977.324	6107.75
977.547	6237.75
977.771	6165.75
977.995	6087.75
978.219	6003.75
978.442	6176.75
978.666	6036.75
978.89	6031.75
979.113	5973.75
979.337	5975.75
979.56	5890.75
979.783	6017.75
980.007	5934.75
980.23	5852.75
980.453	5828.75
980.677	5816.75
980.9	5778.75
981.123	5742.75
981.346	5728.75
981.569	5720.75
981.792	5740.75
982.015	5647.75
982.238	5549.75
982.461	5589.75
982.684	5491.75
982.907	5445.75
983.129	5425.75
983.352	5387.75
983.575	5402.75
983.797	5376.75
984.02	5309.75
984.242	5300.75
984.465	5326.75
984.687	5297.75
984.91	5275.75
985.132	5220.75
985.354	5238.75
985.577	5183.75
985.799	5110.75
986.021	5048.75
986.243	5018.75
986.465	5042.75
986.687	5098.75
986.909	5113.75
987.131	5019.75
987.353	4986.75
987.575	4993.75
987.797	4963.75
988.019	4913.75
988.241	4954.75
988.462	4904.75
988.684	4902.75
988.906	4918.75
989.127	4905.75
989.349	4809.75
989.57	4808.75
989.792	4822.75
990.013	4850.75
990.234	4756.75
990.456	4782.75
990.677	4782.75
990.898	4733.75
991.119	4696.75
991.341	4628.75
991.562	4619.75
991.783	4601.75
992.004	4548.75
992.225	4453.75
992.446	4566.75
992.667	4422.75
992.887	4489.75
993.108	4342.75
993.329	4489.75
993.55	4364.75
993.77	4271.75
993.991	4308.75
994.212	4280.75
994.432	4280.75
994.653	4230.75
994.873	4235.75
995.093	4116.75
995.314	4100.75
995.534	4199.75
995.754	4167.75
995.975	4211.75
996.195	4050.75
996.415	4094.75
996.635	4082.75
996.855	4098.75
997.075	4030.75
997.295	4049.75
997.515	4002.75
997.735	4030.75
997.955	4025.75
998.174	3997.75
998.394	3978.75
998.614	3995.75
998.834	3897.75
999.053	4007.75
999.273	3912.75
999.492	3988.75
999.712	3890.75
999.931	3845.75
1000.151	3853.75
1000.37	3775.75
1000.589	3856.75
1000.809	3722.75
1001.028	3808.75
1001.247	3740.75
1001.466	3590.75
1001.685	3713.75
1001.904	3621.75
1002.123	3571.75
1002.342	3622.75
1002.561	3509.75
1002.78	3568.75
1002.999	3569.75
1003.218	3531.75
1003.436	3459.75
1003.655	3538.75
1003.874	3423.75
1004.092	3417.75
1004.311	3441.75
1004.53	3391.75
1004.748	3451.75
1004.966	3387.75
1005.185	3404.75
1005.403	3421.75
1005.622	3397.75
1005.84	3418.75
1006.058	3371.75
1006.276	3361.75
1006.494	3729.75
1006.712	3352.75
1006.931	3405.75
1007.149	3324.75
1007.367	3319.75
1007.584	3336.75
1007.802	3440.75
1008.02	3381.75
1008.238	3466.75
1008.456	3456.75
1008.673	3358.75
1008.891	3475.75
1009.109	3410.75
1009.326	3558.75
1009.544	3697.75
1009.761	3600.75
1009.979	3775.75
1010.196	3813.75
1010.413	4031.75
1010.631	4104.75
1010.848	4236.75
1011.065	4204.75
1011.282	4179.75
1011.5	4092.75
1011.717	4154.75
1011.934	4120.75
1012.151	4096.75
1012.368	4063.75
1012.585	4002.75
1012.801	3994.75
1013.018	4019.75
1013.235	3971.75
1013.452	4031.75
1013.669	4075.75
1013.885	4027.75
1014.102	4095.75
1014.318	4078.75
1014.535	4024.75
1014.751	4028.75
1014.968	4001.75
1015.184	3962.75
1015.401	3882.75
1015.617	3818.75
1015.833	3727.75
1016.049	3760.75
1016.266	3648.75
1016.482	3668.75
1016.698	3568.75
1016.914	3602.75
1017.13	3489.75
1017.346	3488.75
1017.562	3549.75
1017.778	3434.75
1017.993	3429.75
1018.209	3440.75
1018.425	3460.75
1018.641	3380.75
1018.856	3353.75
1019.072	3368.75
1019.288	3363.75
1019.503	3321.75
1019.719	3228.75
1019.934	3228.75
1020.149	3285.75
1020.365	3195.75
1020.58	3111.75
1020.795	3116.75
1021.011	2965.75
1021.226	2953.75
1021.441	2897.75
1021.656	2768.75
1021.871	2694.75
1022.086	2666.75
1022.301	2626.75
1022.516	2567.75
1022.731	2608.75
1022.946	2506.75
1023.16	2462.75
1023.375	2436.75
1023.59	2361.75
1023.804	2309.75
1024.019	2348.75
1024.234	2216.75
1024.448	2221.75
1024.663	2122.75
1024.877	2120.75
1025.092	2128.75
1025.306	2071.75
1025.52	1945.75
1025.734	2026.75
1025.949	1930.75
1026.163	1847.75
1026.377	1762.75
1026.591	1799.75
1026.805	1693.75
1027.019	1687.75
1027.233	1642.75
1027.447	1563.75
1027.661	1646.75
1027.875	1579.75
1028.088	1574.75
1028.302	1471.75
1028.516	1408.75
1028.73	1404.75
1028.943	1360.75
1029.157	1288.75
1029.37	1211.75
1029.584	-1.25
1029.797	-1.25
1030.011	2.75
1030.224	-5.25
