Data from QEP037381__17__10-25-10-304.txt Node

Date: Fri Apr 28 10:25:10 EDT 2023
User: dcclab
Spectrometer: QEP03738
Trigger mode: 4
Integration Time (sec): 1.000000E1
Scans to average: 1
Electric dark correction enabled: true
Nonlinearity correction enabled: false
Boxcar width: 0
XAxis mode: Wavelengths
Number of Pixels in Spectrum: 1044
>>>>>Begin Spectral Data<<<<<
784.041	10.62
784.3	0.62
784.558	-5.38
784.817	-3.38
785.075	66080.62
785.334	13659.62
785.592	7200.62
785.851	5107.62
786.109	3916.62
786.368	3060.62
786.626	2450.62
786.884	2094.62
787.143	1759.62
787.401	1483.62
787.659	1308.62
787.917	1159.62
788.175	1054.62
788.433	897.62
788.691	848.62
788.949	770.62
789.207	742.62
789.465	642.62
789.723	635.62
789.98	569.62
790.238	616.62
790.496	571.62
790.753	557.62
791.011	602.62
791.268	535.62
791.526	515.62
791.783	544.62
792.041	520.62
792.298	442.62
792.556	499.62
792.813	477.62
793.07	465.62
793.327	455.62
793.584	536.62
793.841	467.62
794.099	486.62
794.356	541.62
794.613	457.62
794.869	490.62
795.126	446.62
795.383	428.62
795.64	469.62
795.897	409.62
796.153	483.62
796.41	470.62
796.667	440.62
796.923	448.62
797.18	459.62
797.436	491.62
797.693	448.62
797.949	499.62
798.206	536.62
798.462	465.62
798.718	507.62
798.974	498.62
799.231	532.62
799.487	530.62
799.743	522.62
799.999	567.62
800.255	576.62
800.511	581.62
800.767	627.62
801.023	639.62
801.279	669.62
801.534	747.62
801.79	835.62
802.046	904.62
802.302	1130.62
802.557	1388.62
802.813	1808.62
803.068	2446.62
803.324	3519.62
803.579	4993.62
803.835	7009.62
804.09	9610.62
804.345	12153.62
804.601	15008.62
804.856	17212.62
805.111	19186.62
805.366	20555.62
805.621	21419.62
805.876	21971.62
806.131	22382.62
806.386	22754.62
806.641	23135.62
806.896	23523.62
807.151	23988.62
807.406	24195.62
807.661	24833.62
807.915	25210.62
808.17	25536.62
808.425	25768.62
808.679	26133.62
808.934	26554.62
809.188	26721.62
809.443	27144.62
809.697	27478.62
809.951	27587.62
810.206	27957.62
810.46	28200.62
810.714	28276.62
810.968	28650.62
811.223	28878.62
811.477	29040.62
811.731	29272.62
811.985	29437.62
812.239	29618.62
812.493	29756.62
812.747	29868.62
813	29990.62
813.254	30338.62
813.508	30433.62
813.762	30558.62
814.015	30659.62
814.269	30907.62
814.522	31177.62
814.776	31454.62
815.03	31936.62
815.283	32261.62
815.536	32779.62
815.79	33272.62
816.043	33841.62
816.296	34166.62
816.55	34556.62
816.803	34982.62
817.056	35520.62
817.309	35839.62
817.562	36322.62
817.815	36695.62
818.068	37140.62
818.321	37596.62
818.574	38075.62
818.827	38432.62
819.079	39120.62
819.332	39915.62
819.585	40421.62
819.838	40924.62
820.09	41312.62
820.343	41549.62
820.595	41780.62
820.848	42186.62
821.1	42142.62
821.353	42194.62
821.605	42184.62
821.857	42304.62
822.11	42169.62
822.362	42121.62
822.614	42095.62
822.866	42058.62
823.118	42250.62
823.37	42290.62
823.622	42417.62
823.874	42642.62
824.126	42833.62
824.378	42881.62
824.63	43086.62
824.882	43317.62
825.134	43171.62
825.385	43135.62
825.637	43171.62
825.888	43095.62
826.14	42880.62
826.392	42834.62
826.643	42788.62
826.895	42528.62
827.146	42456.62
827.397	42303.62
827.649	42472.62
827.9	42169.62
828.151	42549.62
828.402	42551.62
828.653	42741.62
828.905	42922.62
829.156	42929.62
829.407	42989.62
829.658	42894.62
829.909	43190.62
830.159	43113.62
830.41	42885.62
830.661	42557.62
830.912	42419.62
831.162	42183.62
831.413	42157.62
831.664	42223.62
831.914	42198.62
832.165	42264.62
832.415	42198.62
832.666	42186.62
832.916	42195.62
833.167	42297.62
833.417	42087.62
833.667	41965.62
833.917	42016.62
834.168	41908.62
834.418	41700.62
834.668	41607.62
834.918	41437.62
835.168	41302.62
835.418	41103.62
835.668	40960.62
835.918	40963.62
836.167	40993.62
836.417	40777.62
836.667	40834.62
836.917	40926.62
837.166	40835.62
837.416	40907.62
837.666	40809.62
837.915	40696.62
838.165	40789.62
838.414	40658.62
838.663	40675.62
838.913	40572.62
839.162	40445.62
839.411	40244.62
839.661	40274.62
839.91	40272.62
840.159	40216.62
840.408	40186.62
840.657	40154.62
840.906	40265.62
841.155	40306.62
841.404	40233.62
841.653	40370.62
841.902	40429.62
842.15	40519.62
842.399	40496.62
842.648	40428.62
842.897	40353.62
843.145	39981.62
843.394	39857.62
843.642	39611.62
843.891	39520.62
844.139	39335.62
844.388	39094.62
844.636	38945.62
844.884	38978.62
845.133	39019.62
845.381	38931.62
845.629	39021.62
845.877	38989.62
846.125	38775.62
846.373	38803.62
846.621	38578.62
846.869	38678.62
847.117	38397.62
847.365	38210.62
847.613	37998.62
847.861	38026.62
848.108	37977.62
848.356	37911.62
848.604	37975.62
848.851	38030.62
849.099	38070.62
849.346	38128.62
849.594	38324.62
849.841	38396.62
850.089	38394.62
850.336	38652.62
850.583	38551.62
850.831	38303.62
851.078	38084.62
851.325	37967.62
851.572	37965.62
851.819	37496.62
852.066	36987.62
852.313	36604.62
852.56	36483.62
852.807	36363.62
853.054	36257.62
853.301	36178.62
853.548	36369.62
853.794	36538.62
854.041	36618.62
854.288	36875.62
854.534	37143.62
854.781	37182.62
855.028	36867.62
855.274	36971.62
855.52	36958.62
855.767	36761.62
856.013	36800.62
856.26	37004.62
856.506	36290.62
856.752	36268.62
856.998	36404.62
857.244	36556.62
857.49	36520.62
857.736	36695.62
857.982	36676.62
858.228	36495.62
858.474	36340.62
858.72	35995.62
858.966	35698.62
859.212	35325.62
859.458	35078.62
859.703	34848.62
859.949	34457.62
860.195	34349.62
860.44	34159.62
860.686	34231.62
860.931	34067.62
861.177	33823.62
861.422	33839.62
861.667	33516.62
861.913	33605.62
862.158	33750.62
862.403	33834.62
862.648	33890.62
862.893	33948.62
863.138	33829.62
863.384	33742.62
863.629	33749.62
863.873	33643.62
864.118	33554.62
864.363	33351.62
864.608	33346.62
864.853	33117.62
865.098	32897.62
865.342	32718.62
865.587	32701.62
865.832	32661.62
866.076	32633.62
866.321	32500.62
866.565	32428.62
866.81	32327.62
867.054	32324.62
867.298	32212.62
867.543	32197.62
867.787	32319.62
868.031	32100.62
868.275	32179.62
868.519	32051.62
868.764	31970.62
869.008	31961.62
869.252	31863.62
869.496	31890.62
869.739	31847.62
869.983	31788.62
870.227	31898.62
870.471	31853.62
870.715	31944.62
870.958	31988.62
871.202	32163.62
871.446	32102.62
871.689	32155.62
871.933	32094.62
872.176	31972.62
872.42	32022.62
872.663	31998.62
872.906	31971.62
873.15	31969.62
873.393	31813.62
873.636	31791.62
873.879	31337.62
874.122	30926.62
874.366	30677.62
874.609	30393.62
874.852	30331.62
875.095	29999.62
875.337	30074.62
875.58	29947.62
875.823	29917.62
876.066	29839.62
876.309	29660.62
876.551	29530.62
876.794	29331.62
877.037	29320.62
877.279	29256.62
877.522	29301.62
877.764	29423.62
878.007	29307.62
878.249	29343.62
878.491	29212.62
878.734	29261.62
878.976	29170.62
879.218	28761.62
879.46	28885.62
879.702	28553.62
879.945	28377.62
880.187	28131.62
880.429	28111.62
880.671	27895.62
880.912	27852.62
881.154	27751.62
881.396	27647.62
881.638	27689.62
881.88	27740.62
882.121	27679.62
882.363	27532.62
882.605	27660.62
882.846	27464.62
883.088	27537.62
883.329	27394.62
883.571	27620.62
883.812	27860.62
884.053	28338.62
884.295	28728.62
884.536	28909.62
884.777	28750.62
885.018	28425.62
885.259	28330.62
885.5	28340.62
885.742	28420.62
885.982	28192.62
886.223	27890.62
886.464	27843.62
886.705	27397.62
886.946	27372.62
887.187	26879.62
887.428	26669.62
887.668	26276.62
887.909	25978.62
888.15	25668.62
888.39	25541.62
888.631	25335.62
888.871	25162.62
889.111	24993.62
889.352	24875.62
889.592	24644.62
889.833	24459.62
890.073	24338.62
890.313	24284.62
890.553	24003.62
890.793	23913.62
891.033	23984.62
891.273	23754.62
891.513	23670.62
891.753	23612.62
891.993	23587.62
892.233	23606.62
892.473	23755.62
892.713	23740.62
892.952	23735.62
893.192	23684.62
893.432	23532.62
893.671	23550.62
893.911	23443.62
894.15	23441.62
894.39	23158.62
894.629	23044.62
894.869	22955.62
895.108	22785.62
895.347	22740.62
895.587	22541.62
895.826	22495.62
896.065	22400.62
896.304	22459.62
896.543	22448.62
896.782	22297.62
897.021	22233.62
897.26	22160.62
897.499	22257.62
897.738	22213.62
897.977	22053.62
898.216	21882.62
898.454	21672.62
898.693	21476.62
898.932	21585.62
899.17	21485.62
899.409	21339.62
899.647	21415.62
899.886	21328.62
900.124	21396.62
900.363	21282.62
900.601	21518.62
900.839	21521.62
901.078	21586.62
901.316	21564.62
901.554	21653.62
901.792	21620.62
902.03	21757.62
902.268	21638.62
902.506	21544.62
902.744	21394.62
902.982	21434.62
903.22	21017.62
903.458	20866.62
903.695	20601.62
903.933	20271.62
904.171	19865.62
904.409	19751.62
904.646	19510.62
904.884	19232.62
905.121	19156.62
905.359	18924.62
905.596	18800.62
905.833	18604.62
906.071	18633.62
906.308	18604.62
906.545	18468.62
906.783	18469.62
907.02	18533.62
907.257	18412.62
907.494	18462.62
907.731	18359.62
907.968	18258.62
908.205	18202.62
908.442	17979.62
908.679	17982.62
908.915	17857.62
909.152	17681.62
909.389	17543.62
909.626	17420.62
909.862	17309.62
910.099	17286.62
910.335	17270.62
910.572	17085.62
910.808	17086.62
911.045	16960.62
911.281	16987.62
911.518	16953.62
911.754	16750.62
911.99	16759.62
912.226	16630.62
912.463	16470.62
912.699	16392.62
912.935	16213.62
913.171	16178.62
913.407	16076.62
913.643	15990.62
913.879	15732.62
914.114	15604.62
914.35	15506.62
914.586	15294.62
914.822	15181.62
915.057	15194.62
915.293	14964.62
915.529	14974.62
915.764	14964.62
916	14889.62
916.235	14937.62
916.471	14889.62
916.706	14859.62
916.941	14810.62
917.177	14817.62
917.412	14873.62
917.647	14824.62
917.882	14745.62
918.117	14648.62
918.352	14625.62
918.588	14600.62
918.823	14501.62
919.057	14340.62
919.292	14154.62
919.527	14036.62
919.762	13941.62
919.997	13841.62
920.232	13670.62
920.466	13631.62
920.701	13503.62
920.935	13428.62
921.17	13262.62
921.405	13262.62
921.639	13272.62
921.873	13119.62
922.108	13106.62
922.342	13088.62
922.576	12983.62
922.811	13042.62
923.045	12941.62
923.279	12881.62
923.513	12747.62
923.747	12800.62
923.981	12665.62
924.215	12597.62
924.449	12470.62
924.683	12429.62
924.917	12275.62
925.151	12286.62
925.385	12296.62
925.618	12229.62
925.852	12224.62
926.086	12088.62
926.319	12199.62
926.553	12188.62
926.786	12133.62
927.02	12146.62
927.253	12158.62
927.486	12095.62
927.72	12077.62
927.953	12031.62
928.186	11951.62
928.42	11934.62
928.653	11890.62
928.886	11789.62
929.119	11776.62
929.352	11698.62
929.585	11628.62
929.818	11519.62
930.051	11483.62
930.284	11442.62
930.516	11222.62
930.749	11163.62
930.982	11126.62
931.215	11191.62
931.447	11100.62
931.68	10976.62
931.912	10980.62
932.145	10973.62
932.377	10995.62
932.61	11218.62
932.842	10903.62
933.074	10961.62
933.307	10923.62
933.539	11030.62
933.771	11082.62
934.003	10962.62
934.236	11050.62
934.468	11003.62
934.7	10953.62
934.932	10944.62
935.164	10847.62
935.395	10798.62
935.627	10821.62
935.859	10786.62
936.091	10657.62
936.323	10677.62
936.554	10694.62
936.786	10600.62
937.017	10510.62
937.249	10500.62
937.481	10408.62
937.712	10460.62
937.943	10491.62
938.175	10443.62
938.406	10333.62
938.637	10401.62
938.869	10280.62
939.1	10327.62
939.331	10257.62
939.562	10277.62
939.793	10230.62
940.024	10209.62
940.255	10199.62
940.486	10076.62
940.717	10094.62
940.948	10086.62
941.179	9878.62
941.409	9988.62
941.64	9956.62
941.871	9931.62
942.102	9880.62
942.332	9903.62
942.563	9862.62
942.793	9929.62
943.024	9816.62
943.254	9930.62
943.484	9905.62
943.715	9930.62
943.945	9922.62
944.175	9832.62
944.405	9779.62
944.636	9769.62
944.866	9791.62
945.096	9780.62
945.326	9741.62
945.556	9778.62
945.786	9731.62
946.016	9513.62
946.245	9527.62
946.475	9455.62
946.705	9446.62
946.935	9339.62
947.164	9374.62
947.394	9251.62
947.624	9243.62
947.853	9275.62
948.083	9231.62
948.312	9171.62
948.542	9074.62
948.771	8943.62
949	9070.62
949.23	9068.62
949.459	9084.62
949.688	9085.62
949.917	8990.62
950.146	9042.62
950.375	9035.62
950.604	8955.62
950.833	8978.62
951.062	8998.62
951.291	8889.62
951.52	8884.62
951.749	8879.62
951.978	8824.62
952.206	8761.62
952.435	8750.62
952.664	8775.62
952.892	8805.62
953.121	8755.62
953.349	8666.62
953.578	8645.62
953.806	8614.62
954.035	8483.62
954.263	8583.62
954.491	8497.62
954.719	8445.62
954.948	8416.62
955.176	8434.62
955.404	8254.62
955.632	8263.62
955.86	8266.62
956.088	8282.62
956.316	8152.62
956.544	8177.62
956.772	8051.62
956.999	8040.62
957.227	8041.62
957.455	7917.62
957.683	7950.62
957.91	7860.62
958.138	7865.62
958.365	7788.62
958.593	7804.62
958.82	7742.62
959.048	7778.62
959.275	7768.62
959.502	7717.62
959.73	7661.62
959.957	7696.62
960.184	7663.62
960.411	7582.62
960.638	7684.62
960.865	7602.62
961.092	7596.62
961.319	7506.62
961.546	7627.62
961.773	7579.62
962	7546.62
962.227	7552.62
962.454	7532.62
962.68	7455.62
962.907	7467.62
963.134	7385.62
963.36	7329.62
963.587	7340.62
963.813	7249.62
964.04	7241.62
964.266	7180.62
964.493	7078.62
964.719	7100.62
964.945	7141.62
965.171	6962.62
965.398	7011.62
965.624	6969.62
965.85	6891.62
966.076	6850.62
966.302	6922.62
966.528	6797.62
966.754	6778.62
966.98	6764.62
967.206	6724.62
967.431	6660.62
967.657	6744.62
967.883	6712.62
968.109	6649.62
968.334	6630.62
968.56	6607.62
968.785	6620.62
969.011	6558.62
969.236	6585.62
969.462	6513.62
969.687	6494.62
969.912	6522.62
970.138	6544.62
970.363	6400.62
970.588	6449.62
970.813	6417.62
971.038	6367.62
971.263	6406.62
971.488	6352.62
971.713	6328.62
971.938	6328.62
972.163	6177.62
972.388	6241.62
972.613	6157.62
972.838	6192.62
973.062	6120.62
973.287	6126.62
973.512	6029.62
973.736	6020.62
973.961	6044.62
974.185	5982.62
974.41	5987.62
974.634	5826.62
974.858	5908.62
975.083	5826.62
975.307	5826.62
975.531	5785.62
975.755	5708.62
975.98	5670.62
976.204	5559.62
976.428	5541.62
976.652	5568.62
976.876	5500.62
977.1	5559.62
977.324	5470.62
977.547	5489.62
977.771	5485.62
977.995	5469.62
978.219	5383.62
978.442	5499.62
978.666	5431.62
978.89	5364.62
979.113	5346.62
979.337	5372.62
979.56	5368.62
979.783	5455.62
980.007	5244.62
980.23	5233.62
980.453	5246.62
980.677	5216.62
980.9	5247.62
981.123	5051.62
981.346	5158.62
981.569	5122.62
981.792	5100.62
982.015	5077.62
982.238	4997.62
982.461	5008.62
982.684	4947.62
982.907	4901.62
983.129	4862.62
983.352	4917.62
983.575	4879.62
983.797	4851.62
984.02	4764.62
984.242	4750.62
984.465	4784.62
984.687	4788.62
984.91	4774.62
985.132	4743.62
985.354	4741.62
985.577	4660.62
985.799	4686.62
986.021	4539.62
986.243	4603.62
986.465	4555.62
986.687	4616.62
986.909	4617.62
987.131	4504.62
987.353	4537.62
987.575	4579.62
987.797	4441.62
988.019	4415.62
988.241	4440.62
988.462	4380.62
988.684	4429.62
988.906	4473.62
989.127	4466.62
989.349	4377.62
989.57	4353.62
989.792	4409.62
990.013	4398.62
990.234	4361.62
990.456	4353.62
990.677	4332.62
990.898	4262.62
991.119	4244.62
991.341	4239.62
991.562	4173.62
991.783	4133.62
992.004	4121.62
992.225	4060.62
992.446	4098.62
992.667	3970.62
992.887	4044.62
993.108	3948.62
993.329	4049.62
993.55	3952.62
993.77	3949.62
993.991	3928.62
994.212	3912.62
994.432	3855.62
994.653	3862.62
994.873	3891.62
995.093	3740.62
995.314	3747.62
995.534	3813.62
995.754	3800.62
995.975	3813.62
996.195	3689.62
996.415	3758.62
996.635	3747.62
996.855	3730.62
997.075	3706.62
997.295	3722.62
997.515	3671.62
997.735	3771.62
997.955	3693.62
998.174	3670.62
998.394	3661.62
998.614	3668.62
998.834	3625.62
999.053	3663.62
999.273	3611.62
999.492	3640.62
999.712	3548.62
999.931	3499.62
1000.151	3534.62
1000.37	3502.62
1000.589	3520.62
1000.809	3399.62
1001.028	3474.62
1001.247	3428.62
1001.466	3348.62
1001.685	3453.62
1001.904	3353.62
1002.123	3336.62
1002.342	3322.62
1002.561	3266.62
1002.78	3280.62
1002.999	3285.62
1003.218	3289.62
1003.436	3215.62
1003.655	3258.62
1003.874	3140.62
1004.092	3194.62
1004.311	3200.62
1004.53	3165.62
1004.748	3248.62
1004.966	3163.62
1005.185	3200.62
1005.403	3189.62
1005.622	3143.62
1005.84	3187.62
1006.058	3120.62
1006.276	3114.62
1006.494	3507.62
1006.712	3119.62
1006.931	3162.62
1007.149	3113.62
1007.367	3091.62
1007.584	3108.62
1007.802	3179.62
1008.02	3122.62
1008.238	3200.62
1008.456	3225.62
1008.673	3172.62
1008.891	3247.62
1009.109	3274.62
1009.326	3307.62
1009.544	3430.62
1009.761	3412.62
1009.979	3565.62
1010.196	3650.62
1010.413	3820.62
1010.631	3948.62
1010.848	3967.62
1011.065	4056.62
1011.282	3982.62
1011.5	3880.62
1011.717	3990.62
1011.934	3903.62
1012.151	3950.62
1012.368	3911.62
1012.585	3849.62
1012.801	3880.62
1013.018	3876.62
1013.235	3836.62
1013.452	3885.62
1013.669	3902.62
1013.885	3914.62
1014.102	3942.62
1014.318	3925.62
1014.535	3869.62
1014.751	3851.62
1014.968	3875.62
1015.184	3788.62
1015.401	3737.62
1015.617	3704.62
1015.833	3658.62
1016.049	3619.62
1016.266	3562.62
1016.482	3552.62
1016.698	3450.62
1016.914	3482.62
1017.13	3404.62
1017.346	3368.62
1017.562	3406.62
1017.778	3321.62
1017.993	3291.62
1018.209	3293.62
1018.425	3290.62
1018.641	3264.62
1018.856	3258.62
1019.072	3267.62
1019.288	3287.62
1019.503	3247.62
1019.719	3150.62
1019.934	3138.62
1020.149	3178.62
1020.365	3088.62
1020.58	2997.62
1020.795	3010.62
1021.011	2882.62
1021.226	2822.62
1021.441	2824.62
1021.656	2744.62
1021.871	2613.62
1022.086	2591.62
1022.301	2537.62
1022.516	2523.62
1022.731	2474.62
1022.946	2390.62
1023.16	2378.62
1023.375	2324.62
1023.59	2247.62
1023.804	2243.62
1024.019	2309.62
1024.234	2123.62
1024.448	2134.62
1024.663	2003.62
1024.877	2038.62
1025.092	2007.62
1025.306	1987.62
1025.52	1851.62
1025.734	1901.62
1025.949	1817.62
1026.163	1776.62
1026.377	1697.62
1026.591	1730.62
1026.805	1651.62
1027.019	1615.62
1027.233	1557.62
1027.447	1502.62
1027.661	1589.62
1027.875	1506.62
1028.088	1498.62
1028.302	1441.62
1028.516	1385.62
1028.73	1340.62
1028.943	1314.62
1029.157	1220.62
1029.37	1134.62
1029.584	-0.38
1029.797	0.62
1030.011	-4.38
1030.224	1.62
