Data from QEP037381__22__10-26-00-304.txt Node

Date: Fri Apr 28 10:26:00 EDT 2023
User: dcclab
Spectrometer: QEP03738
Trigger mode: 4
Integration Time (sec): 1.000000E1
Scans to average: 1
Electric dark correction enabled: true
Nonlinearity correction enabled: false
Boxcar width: 0
XAxis mode: Wavelengths
Number of Pixels in Spectrum: 1044
>>>>>Begin Spectral Data<<<<<
784.041	12.62
784.3	0.62
784.558	-0.38
784.817	-8.38
785.075	68148.62
785.334	13407.62
785.592	6989.62
785.851	4928.62
786.109	3749.62
786.368	2959.62
786.626	2392.62
786.884	2049.62
787.143	1699.62
787.401	1380.62
787.659	1284.62
787.917	1100.62
788.175	1032.62
788.433	893.62
788.691	781.62
788.949	772.62
789.207	729.62
789.465	630.62
789.723	606.62
789.98	548.62
790.238	583.62
790.496	562.62
790.753	538.62
791.011	593.62
791.268	535.62
791.526	515.62
791.783	541.62
792.041	515.62
792.298	444.62
792.556	512.62
792.813	488.62
793.07	462.62
793.327	453.62
793.584	527.62
793.841	464.62
794.099	482.62
794.356	535.62
794.613	442.62
794.869	489.62
795.126	448.62
795.383	428.62
795.64	440.62
795.897	426.62
796.153	466.62
796.41	454.62
796.667	445.62
796.923	453.62
797.18	447.62
797.436	475.62
797.693	447.62
797.949	498.62
798.206	534.62
798.462	448.62
798.718	514.62
798.974	481.62
799.231	525.62
799.487	535.62
799.743	519.62
799.999	566.62
800.255	565.62
800.511	567.62
800.767	611.62
801.023	636.62
801.279	673.62
801.534	737.62
801.79	804.62
802.046	885.62
802.302	1128.62
802.557	1372.62
802.813	1801.62
803.068	2365.62
803.324	3457.62
803.579	4907.62
803.835	6826.62
804.09	9216.62
804.345	11729.62
804.601	14297.62
804.856	16610.62
805.111	18331.62
805.366	19461.62
805.621	20373.62
805.876	21120.62
806.131	21519.62
806.386	21886.62
806.641	22230.62
806.896	22569.62
807.151	23014.62
807.406	23305.62
807.661	23704.62
807.915	24149.62
808.17	24396.62
808.425	24905.62
808.679	25057.62
808.934	25479.62
809.188	25775.62
809.443	26183.62
809.697	26203.62
809.951	26579.62
810.206	26698.62
810.46	26932.62
810.714	27191.62
810.968	27406.62
811.223	27547.62
811.477	27901.62
811.731	27969.62
811.985	28246.62
812.239	28326.62
812.493	28535.62
812.747	28675.62
813	28683.62
813.254	28953.62
813.508	29120.62
813.762	29346.62
814.015	29376.62
814.269	29557.62
814.522	29828.62
814.776	30164.62
815.03	30551.62
815.283	30879.62
815.536	31397.62
815.79	31917.62
816.043	32367.62
816.296	32585.62
816.55	33133.62
816.803	33536.62
817.056	33874.62
817.309	34444.62
817.562	34649.62
817.815	35070.62
818.068	35448.62
818.321	35883.62
818.574	36341.62
818.827	36855.62
819.079	37403.62
819.332	38067.62
819.585	38461.62
819.838	39026.62
820.09	39264.62
820.343	39596.62
820.595	39757.62
820.848	40090.62
821.1	40195.62
821.353	40233.62
821.605	40246.62
821.857	40114.62
822.11	39981.62
822.362	40018.62
822.614	39940.62
822.866	40100.62
823.118	40008.62
823.37	40168.62
823.622	40246.62
823.874	40569.62
824.126	40735.62
824.378	40640.62
824.63	40824.62
824.882	40967.62
825.134	40897.62
825.385	40958.62
825.637	40820.62
825.888	40651.62
826.14	40794.62
826.392	40473.62
826.643	40334.62
826.895	40176.62
827.146	40096.62
827.397	39926.62
827.649	39946.62
827.9	40115.62
828.151	40043.62
828.402	40344.62
828.653	40318.62
828.905	40355.62
829.156	40528.62
829.407	40407.62
829.658	40523.62
829.909	40530.62
830.159	40480.62
830.41	40406.62
830.661	40056.62
830.912	39920.62
831.162	39757.62
831.413	39727.62
831.664	39733.62
831.914	39703.62
832.165	39605.62
832.415	39644.62
832.666	39652.62
832.916	39698.62
833.167	39635.62
833.417	39685.62
833.667	39463.62
833.917	39341.62
834.168	39315.62
834.418	39237.62
834.668	39030.62
834.918	38826.62
835.168	38650.62
835.418	38474.62
835.668	38535.62
835.918	38343.62
836.167	38286.62
836.417	38200.62
836.667	38206.62
836.917	38089.62
837.166	38066.62
837.416	38298.62
837.666	38131.62
837.915	38118.62
838.165	38081.62
838.414	38020.62
838.663	37872.62
838.913	38003.62
839.162	37601.62
839.411	37757.62
839.661	37748.62
839.91	37541.62
840.159	37648.62
840.408	37518.62
840.657	37619.62
840.906	37486.62
841.155	37545.62
841.404	37533.62
841.653	37622.62
841.902	37727.62
842.15	37855.62
842.399	37722.62
842.648	37672.62
842.897	37616.62
843.145	37243.62
843.394	37037.62
843.642	36835.62
843.891	36612.62
844.139	36546.62
844.388	36285.62
844.636	36180.62
844.884	36162.62
845.133	36075.62
845.381	36053.62
845.629	36138.62
845.877	36032.62
846.125	36160.62
846.373	36044.62
846.621	35789.62
846.869	35731.62
847.117	35524.62
847.365	35310.62
847.613	35246.62
847.861	35191.62
848.108	35194.62
848.356	35061.62
848.604	35108.62
848.851	35098.62
849.099	35176.62
849.346	35212.62
849.594	35352.62
849.841	35525.62
850.089	35548.62
850.336	35626.62
850.583	35588.62
850.831	35363.62
851.078	35179.62
851.325	35096.62
851.572	34990.62
851.819	34713.62
852.066	34074.62
852.313	33665.62
852.56	33572.62
852.807	33464.62
853.054	33247.62
853.301	33211.62
853.548	33253.62
853.794	33522.62
854.041	33644.62
854.288	33755.62
854.534	34090.62
854.781	34090.62
855.028	34029.62
855.274	33985.62
855.52	33804.62
855.767	33772.62
856.013	33693.62
856.26	33885.62
856.506	33432.62
856.752	33376.62
856.998	33191.62
857.244	33481.62
857.49	33633.62
857.736	33508.62
857.982	33470.62
858.228	33308.62
858.474	33251.62
858.72	32926.62
858.966	32574.62
859.212	32405.62
859.458	31987.62
859.703	31687.62
859.949	31458.62
860.195	31286.62
860.44	31113.62
860.686	31173.62
860.931	31033.62
861.177	30945.62
861.422	30768.62
861.667	30654.62
861.913	30595.62
862.158	30639.62
862.403	30605.62
862.648	30871.62
862.893	30906.62
863.138	30700.62
863.384	30695.62
863.629	30424.62
863.873	30554.62
864.118	30324.62
864.363	30197.62
864.608	29996.62
864.853	29911.62
865.098	29855.62
865.342	29648.62
865.587	29621.62
865.832	29519.62
866.076	29442.62
866.321	29401.62
866.565	29365.62
866.81	29269.62
867.054	29149.62
867.298	29031.62
867.543	29079.62
867.787	29034.62
868.031	29016.62
868.275	28785.62
868.519	28888.62
868.764	28876.62
869.008	28758.62
869.252	28785.62
869.496	28764.62
869.739	28655.62
869.983	28752.62
870.227	28736.62
870.471	28855.62
870.715	28839.62
870.958	28955.62
871.202	28941.62
871.446	29104.62
871.689	28865.62
871.933	28859.62
872.176	28902.62
872.42	28723.62
872.663	28855.62
872.906	28722.62
873.15	28819.62
873.393	28661.62
873.636	28562.62
873.879	28300.62
874.122	27850.62
874.366	27455.62
874.609	27132.62
874.852	27131.62
875.095	26962.62
875.337	26835.62
875.58	26737.62
875.823	26791.62
876.066	26651.62
876.309	26547.62
876.551	26262.62
876.794	26209.62
877.037	26358.62
877.279	26150.62
877.522	26123.62
877.764	26216.62
878.007	26100.62
878.249	26169.62
878.491	26045.62
878.734	25958.62
878.976	25857.62
879.218	25709.62
879.46	25562.62
879.702	25428.62
879.945	25291.62
880.187	24998.62
880.429	24928.62
880.671	24670.62
880.912	24634.62
881.154	24524.62
881.396	24345.62
881.638	24419.62
881.88	24492.62
882.121	24364.62
882.363	24312.62
882.605	24365.62
882.846	24337.62
883.088	24309.62
883.329	24246.62
883.571	24432.62
883.812	24665.62
884.053	24983.62
884.295	25611.62
884.536	25712.62
884.777	25610.62
885.018	25431.62
885.259	25277.62
885.5	25147.62
885.742	25262.62
885.982	24933.62
886.223	24823.62
886.464	24678.62
886.705	24344.62
886.946	24017.62
887.187	23657.62
887.428	23477.62
887.668	23105.62
887.909	22811.62
888.15	22595.62
888.39	22454.62
888.631	22335.62
888.871	22037.62
889.111	21955.62
889.352	21805.62
889.592	21587.62
889.833	21370.62
890.073	21292.62
890.313	21212.62
890.553	20960.62
890.793	20915.62
891.033	20890.62
891.273	20708.62
891.513	20617.62
891.753	20726.62
891.993	20558.62
892.233	20713.62
892.473	20733.62
892.713	20645.62
892.952	20529.62
893.192	20656.62
893.432	20623.62
893.671	20547.62
893.911	20421.62
894.15	20252.62
894.39	20131.62
894.629	20046.62
894.869	19967.62
895.108	19849.62
895.347	19638.62
895.587	19668.62
895.826	19543.62
896.065	19466.62
896.304	19452.62
896.543	19517.62
896.782	19374.62
897.021	19344.62
897.26	19237.62
897.499	19274.62
897.738	19161.62
897.977	19103.62
898.216	18872.62
898.454	18798.62
898.693	18649.62
898.932	18702.62
899.17	18530.62
899.409	18574.62
899.647	18464.62
899.886	18453.62
900.124	18524.62
900.363	18534.62
900.601	18484.62
900.839	18436.62
901.078	18602.62
901.316	18633.62
901.554	18750.62
901.792	18757.62
902.03	18719.62
902.268	18591.62
902.506	18576.62
902.744	18570.62
902.982	18351.62
903.22	18134.62
903.458	17928.62
903.695	17705.62
903.933	17488.62
904.171	17116.62
904.409	16823.62
904.646	16756.62
904.884	16563.62
905.121	16402.62
905.359	16290.62
905.596	16115.62
905.833	15924.62
906.071	15910.62
906.308	15845.62
906.545	15815.62
906.783	15611.62
907.02	15774.62
907.257	15691.62
907.494	15691.62
907.731	15635.62
907.968	15640.62
908.205	15497.62
908.442	15416.62
908.679	15258.62
908.915	15229.62
909.152	15090.62
909.389	14807.62
909.626	14874.62
909.862	14718.62
910.099	14601.62
910.335	14627.62
910.572	14454.62
910.808	14472.62
911.045	14416.62
911.281	14309.62
911.518	14336.62
911.754	14232.62
911.99	14140.62
912.226	14009.62
912.463	13927.62
912.699	13800.62
912.935	13776.62
913.171	13661.62
913.407	13424.62
913.643	13424.62
913.879	13249.62
914.114	13194.62
914.35	13065.62
914.586	12966.62
914.822	12866.62
915.057	12814.62
915.293	12607.62
915.529	12624.62
915.764	12715.62
916	12618.62
916.235	12560.62
916.471	12559.62
916.706	12395.62
916.941	12401.62
917.177	12455.62
917.412	12516.62
917.647	12380.62
917.882	12353.62
918.117	12369.62
918.352	12300.62
918.588	12234.62
918.823	12094.62
919.057	11999.62
919.292	11860.62
919.527	11771.62
919.762	11618.62
919.997	11509.62
920.232	11378.62
920.466	11372.62
920.701	11108.62
920.935	11190.62
921.17	11116.62
921.405	10970.62
921.639	11073.62
921.873	10923.62
922.108	10985.62
922.342	10963.62
922.576	10833.62
922.811	10739.62
923.045	10777.62
923.279	10749.62
923.513	10617.62
923.747	10665.62
923.981	10540.62
924.215	10414.62
924.449	10397.62
924.683	10349.62
924.917	10231.62
925.151	10183.62
925.385	10315.62
925.618	10154.62
925.852	10150.62
926.086	10129.62
926.319	10154.62
926.553	10135.62
926.786	10088.62
927.02	10055.62
927.253	10074.62
927.486	10024.62
927.72	9929.62
927.953	10011.62
928.186	9930.62
928.42	9894.62
928.653	9830.62
928.886	9707.62
929.119	9721.62
929.352	9627.62
929.585	9569.62
929.818	9549.62
930.051	9472.62
930.284	9453.62
930.516	9283.62
930.749	9179.62
930.982	9251.62
931.215	9224.62
931.447	9008.62
931.68	9127.62
931.912	9036.62
932.145	9050.62
932.377	9092.62
932.61	9135.62
932.842	9065.62
933.074	9084.62
933.307	8995.62
933.539	9087.62
933.771	9055.62
934.003	8947.62
934.236	9128.62
934.468	9093.62
934.7	8902.62
934.932	8995.62
935.164	8889.62
935.395	8793.62
935.627	8870.62
935.859	8792.62
936.091	8740.62
936.323	8682.62
936.554	8747.62
936.786	8640.62
937.017	8612.62
937.249	8630.62
937.481	8518.62
937.712	8571.62
937.943	8516.62
938.175	8518.62
938.406	8467.62
938.637	8480.62
938.869	8462.62
939.1	8420.62
939.331	8359.62
939.562	8444.62
939.793	8347.62
940.024	8307.62
940.255	8355.62
940.486	8215.62
940.717	8234.62
940.948	8214.62
941.179	8068.62
941.409	8087.62
941.64	8112.62
941.871	8038.62
942.102	8078.62
942.332	8070.62
942.563	8106.62
942.793	8073.62
943.024	8034.62
943.254	8087.62
943.484	8110.62
943.715	8111.62
943.945	8053.62
944.175	8000.62
944.405	7960.62
944.636	7928.62
944.866	7939.62
945.096	7930.62
945.326	7874.62
945.556	7884.62
945.786	7917.62
946.016	7734.62
946.245	7705.62
946.475	7652.62
946.705	7610.62
946.935	7588.62
947.164	7573.62
947.394	7525.62
947.624	7484.62
947.853	7541.62
948.083	7392.62
948.312	7422.62
948.542	7314.62
948.771	7241.62
949	7285.62
949.23	7289.62
949.459	7305.62
949.688	7299.62
949.917	7296.62
950.146	7255.62
950.375	7268.62
950.604	7224.62
950.833	7256.62
951.062	7259.62
951.291	7129.62
951.52	7161.62
951.749	7131.62
951.978	7020.62
952.206	7033.62
952.435	7090.62
952.664	7091.62
952.892	7032.62
953.121	6999.62
953.349	7012.62
953.578	7011.62
953.806	6926.62
954.035	6823.62
954.263	6863.62
954.491	6793.62
954.719	6803.62
954.948	6730.62
955.176	6662.62
955.404	6605.62
955.632	6666.62
955.86	6614.62
956.088	6593.62
956.316	6597.62
956.544	6561.62
956.772	6470.62
956.999	6445.62
957.227	6517.62
957.455	6393.62
957.683	6373.62
957.91	6319.62
958.138	6277.62
958.365	6246.62
958.593	6302.62
958.82	6200.62
959.048	6244.62
959.275	6164.62
959.502	6182.62
959.73	6163.62
959.957	6123.62
960.184	6108.62
960.411	6013.62
960.638	6138.62
960.865	6027.62
961.092	6104.62
961.319	5982.62
961.546	6016.62
961.773	6048.62
962	6066.62
962.227	6033.62
962.454	6004.62
962.68	5963.62
962.907	5897.62
963.134	5826.62
963.36	5835.62
963.587	5874.62
963.813	5751.62
964.04	5764.62
964.266	5675.62
964.493	5733.62
964.719	5688.62
964.945	5666.62
965.171	5529.62
965.398	5548.62
965.624	5591.62
965.85	5432.62
966.076	5442.62
966.302	5463.62
966.528	5400.62
966.754	5433.62
966.98	5436.62
967.206	5396.62
967.431	5298.62
967.657	5390.62
967.883	5327.62
968.109	5342.62
968.334	5226.62
968.56	5237.62
968.785	5244.62
969.011	5204.62
969.236	5254.62
969.462	5146.62
969.687	5133.62
969.912	5148.62
970.138	5243.62
970.363	5153.62
970.588	5079.62
970.813	5081.62
971.038	5044.62
971.263	5027.62
971.488	5012.62
971.713	5020.62
971.938	5014.62
972.163	4912.62
972.388	4890.62
972.613	4860.62
972.838	4866.62
973.062	4841.62
973.287	4806.62
973.512	4762.62
973.736	4791.62
973.961	4704.62
974.185	4692.62
974.41	4752.62
974.634	4635.62
974.858	4595.62
975.083	4607.62
975.307	4642.62
975.531	4510.62
975.755	4462.62
975.98	4491.62
976.204	4399.62
976.428	4400.62
976.652	4394.62
976.876	4380.62
977.1	4389.62
977.324	4314.62
977.547	4345.62
977.771	4350.62
977.995	4305.62
978.219	4207.62
978.442	4313.62
978.666	4239.62
978.89	4248.62
979.113	4239.62
979.337	4236.62
979.56	4216.62
979.783	4244.62
980.007	4155.62
980.23	4166.62
980.453	4094.62
980.677	4169.62
980.9	4063.62
981.123	3969.62
981.346	4084.62
981.569	4005.62
981.792	4044.62
982.015	4017.62
982.238	3925.62
982.461	3945.62
982.684	3878.62
982.907	3826.62
983.129	3813.62
983.352	3837.62
983.575	3841.62
983.797	3780.62
984.02	3825.62
984.242	3777.62
984.465	3735.62
984.687	3777.62
984.91	3755.62
985.132	3727.62
985.354	3753.62
985.577	3684.62
985.799	3675.62
986.021	3596.62
986.243	3626.62
986.465	3608.62
986.687	3610.62
986.909	3690.62
987.131	3607.62
987.353	3531.62
987.575	3577.62
987.797	3543.62
988.019	3497.62
988.241	3549.62
988.462	3469.62
988.684	3524.62
988.906	3493.62
989.127	3548.62
989.349	3411.62
989.57	3422.62
989.792	3486.62
990.013	3455.62
990.234	3484.62
990.456	3480.62
990.677	3441.62
990.898	3357.62
991.119	3361.62
991.341	3389.62
991.562	3287.62
991.783	3317.62
992.004	3226.62
992.225	3226.62
992.446	3291.62
992.667	3141.62
992.887	3206.62
993.108	3127.62
993.329	3244.62
993.55	3174.62
993.77	3093.62
993.991	3058.62
994.212	3112.62
994.432	3113.62
994.653	3063.62
994.873	3020.62
995.093	2977.62
995.314	2980.62
995.534	3045.62
995.754	3052.62
995.975	3069.62
996.195	2940.62
996.415	3035.62
996.635	2989.62
996.855	2970.62
997.075	2955.62
997.295	2926.62
997.515	2913.62
997.735	2947.62
997.955	2936.62
998.174	2924.62
998.394	2921.62
998.614	2918.62
998.834	2866.62
999.053	2946.62
999.273	2861.62
999.492	2902.62
999.712	2853.62
999.931	2872.62
1000.151	2817.62
1000.37	2807.62
1000.589	2816.62
1000.809	2710.62
1001.028	2853.62
1001.247	2746.62
1001.466	2646.62
1001.685	2754.62
1001.904	2669.62
1002.123	2701.62
1002.342	2656.62
1002.561	2598.62
1002.78	2601.62
1002.999	2652.62
1003.218	2588.62
1003.436	2584.62
1003.655	2615.62
1003.874	2533.62
1004.092	2541.62
1004.311	2626.62
1004.53	2540.62
1004.748	2635.62
1004.966	2510.62
1005.185	2618.62
1005.403	2566.62
1005.622	2560.62
1005.84	2602.62
1006.058	2482.62
1006.276	2500.62
1006.494	2848.62
1006.712	2479.62
1006.931	2574.62
1007.149	2493.62
1007.367	2497.62
1007.584	2536.62
1007.802	2595.62
1008.02	2508.62
1008.238	2642.62
1008.456	2638.62
1008.673	2529.62
1008.891	2659.62
1009.109	2626.62
1009.326	2675.62
1009.544	2833.62
1009.761	2797.62
1009.979	2902.62
1010.196	2970.62
1010.413	3153.62
1010.631	3286.62
1010.848	3309.62
1011.065	3327.62
1011.282	3277.62
1011.5	3161.62
1011.717	3257.62
1011.934	3226.62
1012.151	3258.62
1012.368	3145.62
1012.585	3146.62
1012.801	3174.62
1013.018	3164.62
1013.235	3162.62
1013.452	3160.62
1013.669	3174.62
1013.885	3156.62
1014.102	3254.62
1014.318	3218.62
1014.535	3145.62
1014.751	3207.62
1014.968	3127.62
1015.184	3107.62
1015.401	3016.62
1015.617	3050.62
1015.833	2963.62
1016.049	2962.62
1016.266	2929.62
1016.482	2926.62
1016.698	2793.62
1016.914	2828.62
1017.13	2766.62
1017.346	2753.62
1017.562	2782.62
1017.778	2729.62
1017.993	2674.62
1018.209	2739.62
1018.425	2683.62
1018.641	2674.62
1018.856	2613.62
1019.072	2674.62
1019.288	2684.62
1019.503	2650.62
1019.719	2560.62
1019.934	2580.62
1020.149	2640.62
1020.365	2525.62
1020.58	2451.62
1020.795	2473.62
1021.011	2350.62
1021.226	2335.62
1021.441	2334.62
1021.656	2204.62
1021.871	2148.62
1022.086	2137.62
1022.301	2081.62
1022.516	2042.62
1022.731	2050.62
1022.946	1990.62
1023.16	1937.62
1023.375	1906.62
1023.59	1859.62
1023.804	1787.62
1024.019	1888.62
1024.234	1722.62
1024.448	1750.62
1024.663	1654.62
1024.877	1649.62
1025.092	1651.62
1025.306	1639.62
1025.52	1516.62
1025.734	1595.62
1025.949	1516.62
1026.163	1457.62
1026.377	1401.62
1026.591	1425.62
1026.805	1344.62
1027.019	1339.62
1027.233	1298.62
1027.447	1224.62
1027.661	1341.62
1027.875	1228.62
1028.088	1254.62
1028.302	1174.62
1028.516	1109.62
1028.73	1105.62
1028.943	1085.62
1029.157	1032.62
1029.37	939.62
1029.584	-2.38
1029.797	-1.38
1030.011	-0.38
1030.224	-0.38
