Data from QEP037381__10__10-24-00-303.txt Node

Date: Fri Apr 28 10:24:00 EDT 2023
User: dcclab
Spectrometer: QEP03738
Trigger mode: 4
Integration Time (sec): 1.000000E1
Scans to average: 1
Electric dark correction enabled: true
Nonlinearity correction enabled: false
Boxcar width: 0
XAxis mode: Wavelengths
Number of Pixels in Spectrum: 1044
>>>>>Begin Spectral Data<<<<<
784.041	12.12
784.3	-0.88
784.558	-6.88
784.817	-1.88
785.075	69982.12
785.334	13640.12
785.592	7000.12
785.851	4929.12
786.109	3751.12
786.368	2934.12
786.626	2401.12
786.884	2018.12
787.143	1691.12
787.401	1385.12
787.659	1295.12
787.917	1088.12
788.175	1019.12
788.433	873.12
788.691	796.12
788.949	747.12
789.207	694.12
789.465	616.12
789.723	614.12
789.98	538.12
790.238	600.12
790.496	567.12
790.753	526.12
791.011	591.12
791.268	517.12
791.526	505.12
791.783	526.12
792.041	514.12
792.298	423.12
792.556	494.12
792.813	459.12
793.07	440.12
793.327	444.12
793.584	511.12
793.841	428.12
794.099	466.12
794.356	502.12
794.613	413.12
794.869	447.12
795.126	420.12
795.383	408.12
795.64	420.12
795.897	376.12
796.153	430.12
796.41	425.12
796.667	406.12
796.923	414.12
797.18	424.12
797.436	439.12
797.693	388.12
797.949	460.12
798.206	467.12
798.462	401.12
798.718	463.12
798.974	447.12
799.231	490.12
799.487	476.12
799.743	472.12
799.999	524.12
800.255	514.12
800.511	499.12
800.767	534.12
801.023	537.12
801.279	595.12
801.534	613.12
801.79	691.12
802.046	717.12
802.302	897.12
802.557	1036.12
802.813	1350.12
803.068	1770.12
803.324	2491.12
803.579	3519.12
803.835	4803.12
804.09	6519.12
804.345	8161.12
804.601	9960.12
804.856	11459.12
805.111	12726.12
805.366	13487.12
805.621	14098.12
805.876	14506.12
806.131	14795.12
806.386	15036.12
806.641	15275.12
806.896	15529.12
807.151	15783.12
807.406	15877.12
807.661	16159.12
807.915	16520.12
808.17	16752.12
808.425	16869.12
808.679	16973.12
808.934	17223.12
809.188	17312.12
809.443	17461.12
809.697	17751.12
809.951	17826.12
810.206	18014.12
810.46	18187.12
810.714	18307.12
810.968	18439.12
811.223	18612.12
811.477	18704.12
811.731	18903.12
811.985	18826.12
812.239	18957.12
812.493	18984.12
812.747	19033.12
813	19177.12
813.254	19214.12
813.508	19431.12
813.762	19456.12
814.015	19591.12
814.269	19612.12
814.522	19717.12
814.776	19922.12
815.03	20063.12
815.283	20418.12
815.536	20705.12
815.79	20941.12
816.043	21155.12
816.296	21403.12
816.55	21730.12
816.803	21855.12
817.056	22141.12
817.309	22444.12
817.562	22708.12
817.815	22859.12
818.068	23069.12
818.321	23327.12
818.574	23634.12
818.827	23840.12
819.079	24179.12
819.332	24675.12
819.585	25054.12
819.838	25290.12
820.09	25364.12
820.343	25418.12
820.595	25465.12
820.848	25787.12
821.1	25863.12
821.353	25857.12
821.605	25780.12
821.857	25693.12
822.11	25622.12
822.362	25577.12
822.614	25563.12
822.866	25497.12
823.118	25622.12
823.37	25740.12
823.622	25920.12
823.874	25982.12
824.126	25923.12
824.378	25968.12
824.63	26056.12
824.882	26060.12
825.134	26097.12
825.385	25985.12
825.637	25798.12
825.888	25777.12
826.14	25740.12
826.392	25679.12
826.643	25409.12
826.895	25366.12
827.146	25373.12
827.397	25212.12
827.649	25307.12
827.9	25179.12
828.151	25065.12
828.402	25321.12
828.653	25351.12
828.905	25412.12
829.156	25481.12
829.407	25391.12
829.658	25529.12
829.909	25700.12
830.159	25685.12
830.41	25495.12
830.661	25161.12
830.912	25044.12
831.162	25002.12
831.413	24891.12
831.664	25073.12
831.914	24960.12
832.165	24884.12
832.415	24873.12
832.666	24926.12
832.916	24904.12
833.167	24834.12
833.417	24837.12
833.667	24727.12
833.917	24597.12
834.168	24508.12
834.418	24474.12
834.668	24408.12
834.918	24260.12
835.168	24155.12
835.418	23986.12
835.668	23922.12
835.918	23804.12
836.167	23752.12
836.417	23763.12
836.667	23779.12
836.917	23752.12
837.166	23751.12
837.416	23846.12
837.666	23776.12
837.915	23709.12
838.165	23597.12
838.414	23491.12
838.663	23546.12
838.913	23472.12
839.162	23447.12
839.411	23449.12
839.661	23351.12
839.91	23356.12
840.159	23379.12
840.408	23367.12
840.657	23350.12
840.906	23322.12
841.155	23358.12
841.404	23273.12
841.653	23279.12
841.902	23254.12
842.15	23536.12
842.399	23307.12
842.648	23348.12
842.897	23265.12
843.145	23039.12
843.394	22915.12
843.642	22823.12
843.891	22684.12
844.139	22475.12
844.388	22265.12
844.636	22154.12
844.884	22212.12
845.133	22251.12
845.381	22217.12
845.629	22175.12
845.877	22121.12
846.125	21995.12
846.373	22062.12
846.621	22043.12
846.869	21885.12
847.117	21697.12
847.365	21720.12
847.613	21603.12
847.861	21588.12
848.108	21507.12
848.356	21658.12
848.604	21516.12
848.851	21511.12
849.099	21525.12
849.346	21501.12
849.594	21614.12
849.841	21670.12
850.089	21634.12
850.336	21738.12
850.583	21643.12
850.831	21549.12
851.078	21407.12
851.325	21419.12
851.572	21485.12
851.819	21169.12
852.066	20779.12
852.313	20564.12
852.56	20367.12
852.807	20314.12
853.054	20254.12
853.301	20261.12
853.548	20276.12
853.794	20343.12
854.041	20446.12
854.288	20517.12
854.534	20689.12
854.781	20718.12
855.028	20639.12
855.274	20742.12
855.52	20726.12
855.767	20698.12
856.013	20725.12
856.26	20994.12
856.506	20286.12
856.752	20291.12
856.998	20245.12
857.244	20319.12
857.49	20365.12
857.736	20526.12
857.982	20467.12
858.228	20279.12
858.474	20119.12
858.72	19806.12
858.966	19693.12
859.212	19565.12
859.458	19317.12
859.703	19186.12
859.949	18957.12
860.195	18793.12
860.44	18759.12
860.686	18822.12
860.931	18921.12
861.177	18591.12
861.422	18405.12
861.667	18393.12
861.913	18241.12
862.158	18297.12
862.403	18296.12
862.648	18410.12
862.893	18298.12
863.138	18329.12
863.384	18229.12
863.629	18203.12
863.873	18150.12
864.118	18158.12
864.363	17998.12
864.608	17935.12
864.853	17837.12
865.098	17722.12
865.342	17638.12
865.587	17510.12
865.832	17534.12
866.076	17505.12
866.321	17383.12
866.565	17429.12
866.81	17271.12
867.054	17231.12
867.298	17224.12
867.543	17207.12
867.787	17178.12
868.031	17105.12
868.275	17158.12
868.519	17130.12
868.764	17066.12
869.008	17065.12
869.252	17141.12
869.496	17025.12
869.739	17152.12
869.983	17122.12
870.227	17142.12
870.471	17137.12
870.715	17099.12
870.958	17234.12
871.202	17325.12
871.446	17227.12
871.689	17192.12
871.933	17205.12
872.176	17189.12
872.42	17205.12
872.663	17219.12
872.906	17151.12
873.15	17263.12
873.393	17311.12
873.636	17238.12
873.879	17001.12
874.122	16830.12
874.366	16473.12
874.609	16356.12
874.852	16097.12
875.095	16050.12
875.337	15875.12
875.58	15836.12
875.823	15834.12
876.066	15744.12
876.309	15745.12
876.551	15536.12
876.794	15412.12
877.037	15542.12
877.279	15383.12
877.522	15317.12
877.764	15398.12
878.007	15270.12
878.249	15325.12
878.491	15231.12
878.734	15267.12
878.976	15198.12
879.218	14986.12
879.46	14971.12
879.702	14872.12
879.945	14687.12
880.187	14529.12
880.429	14450.12
880.671	14388.12
880.912	14408.12
881.154	14247.12
881.396	14243.12
881.638	14191.12
881.88	14200.12
882.121	14177.12
882.363	14124.12
882.605	14128.12
882.846	14179.12
883.088	14204.12
883.329	14198.12
883.571	14427.12
883.812	14747.12
884.053	15257.12
884.295	15676.12
884.536	15854.12
884.777	15692.12
885.018	15433.12
885.259	15341.12
885.5	15114.12
885.742	15254.12
885.982	15017.12
886.223	14787.12
886.464	14726.12
886.705	14442.12
886.946	14167.12
887.187	13959.12
887.428	13695.12
887.668	13472.12
887.909	13240.12
888.15	13042.12
888.39	12916.12
888.631	12865.12
888.871	12737.12
889.111	12606.12
889.352	12520.12
889.592	12397.12
889.833	12211.12
890.073	12136.12
890.313	12150.12
890.553	11973.12
890.793	11979.12
891.033	11941.12
891.273	11865.12
891.513	11779.12
891.753	11809.12
891.993	11743.12
892.233	11772.12
892.473	11765.12
892.713	11739.12
892.952	11728.12
893.192	11830.12
893.432	11741.12
893.671	11739.12
893.911	11650.12
894.15	11611.12
894.39	11451.12
894.629	11412.12
894.869	11281.12
895.108	11372.12
895.347	11159.12
895.587	11186.12
895.826	11184.12
896.065	11150.12
896.304	11114.12
896.543	11049.12
896.782	11060.12
897.021	10956.12
897.26	10976.12
897.499	10957.12
897.738	10970.12
897.977	10849.12
898.216	10841.12
898.454	10693.12
898.693	10566.12
898.932	10574.12
899.17	10576.12
899.409	10515.12
899.647	10531.12
899.886	10477.12
900.124	10540.12
900.363	10491.12
900.601	10627.12
900.839	10606.12
901.078	10665.12
901.316	10709.12
901.554	10806.12
901.792	10838.12
902.03	10821.12
902.268	10760.12
902.506	10837.12
902.744	10682.12
902.982	10654.12
903.22	10405.12
903.458	10258.12
903.695	10148.12
903.933	9998.12
904.171	9714.12
904.409	9589.12
904.646	9496.12
904.884	9380.12
905.121	9263.12
905.359	9192.12
905.596	9124.12
905.833	9021.12
906.071	8994.12
906.308	9059.12
906.545	8895.12
906.783	8863.12
907.02	8909.12
907.257	8799.12
907.494	8803.12
907.731	8802.12
907.968	8894.12
908.205	8718.12
908.442	8654.12
908.679	8613.12
908.915	8543.12
909.152	8446.12
909.389	8367.12
909.626	8354.12
909.862	8246.12
910.099	8282.12
910.335	8215.12
910.572	8091.12
910.808	8152.12
911.045	8090.12
911.281	8043.12
911.518	8072.12
911.754	7983.12
911.99	8017.12
912.226	7899.12
912.463	7832.12
912.699	7756.12
912.935	7691.12
913.171	7686.12
913.407	7612.12
913.643	7609.12
913.879	7511.12
914.114	7475.12
914.35	7351.12
914.586	7259.12
914.822	7173.12
915.057	7254.12
915.293	7031.12
915.529	7019.12
915.764	7071.12
916	7111.12
916.235	7005.12
916.471	7030.12
916.706	7001.12
916.941	7026.12
917.177	6976.12
917.412	6958.12
917.647	7000.12
917.882	6849.12
918.117	6953.12
918.352	6879.12
918.588	6926.12
918.823	6803.12
919.057	6705.12
919.292	6564.12
919.527	6635.12
919.762	6524.12
919.997	6538.12
920.232	6423.12
920.466	6395.12
920.701	6224.12
920.935	6323.12
921.17	6205.12
921.405	6202.12
921.639	6214.12
921.873	6132.12
922.108	6162.12
922.342	6121.12
922.576	6062.12
922.811	6033.12
923.045	6073.12
923.279	6086.12
923.513	5926.12
923.747	5966.12
923.981	5979.12
924.215	5822.12
924.449	5839.12
924.683	5769.12
924.917	5754.12
925.151	5741.12
925.385	5802.12
925.618	5761.12
925.852	5757.12
926.086	5598.12
926.319	5675.12
926.553	5665.12
926.786	5648.12
927.02	5634.12
927.253	5639.12
927.486	5638.12
927.72	5561.12
927.953	5669.12
928.186	5557.12
928.42	5562.12
928.653	5459.12
928.886	5472.12
929.119	5526.12
929.352	5464.12
929.585	5428.12
929.818	5355.12
930.051	5342.12
930.284	5320.12
930.516	5208.12
930.749	5215.12
930.982	5207.12
931.215	5164.12
931.447	5086.12
931.68	5102.12
931.912	5072.12
932.145	5074.12
932.377	5068.12
932.61	5217.12
932.842	5011.12
933.074	5128.12
933.307	5088.12
933.539	5180.12
933.771	5141.12
934.003	5033.12
934.236	5119.12
934.468	5136.12
934.7	5011.12
934.932	5049.12
935.164	4992.12
935.395	4925.12
935.627	4956.12
935.859	4948.12
936.091	4850.12
936.323	4914.12
936.554	4961.12
936.786	4847.12
937.017	4794.12
937.249	4862.12
937.481	4730.12
937.712	4781.12
937.943	4798.12
938.175	4744.12
938.406	4734.12
938.637	4818.12
938.869	4732.12
939.1	4803.12
939.331	4660.12
939.562	4750.12
939.793	4677.12
940.024	4748.12
940.255	4723.12
940.486	4611.12
940.717	4630.12
940.948	4581.12
941.179	4572.12
941.409	4590.12
941.64	4520.12
941.871	4558.12
942.102	4549.12
942.332	4575.12
942.563	4577.12
942.793	4562.12
943.024	4501.12
943.254	4516.12
943.484	4568.12
943.715	4535.12
943.945	4500.12
944.175	4455.12
944.405	4448.12
944.636	4479.12
944.866	4473.12
945.096	4469.12
945.326	4397.12
945.556	4422.12
945.786	4436.12
946.016	4406.12
946.245	4306.12
946.475	4336.12
946.705	4263.12
946.935	4284.12
947.164	4248.12
947.394	4203.12
947.624	4235.12
947.853	4262.12
948.083	4201.12
948.312	4170.12
948.542	4089.12
948.771	4074.12
949	4084.12
949.23	4111.12
949.459	4113.12
949.688	4121.12
949.917	4051.12
950.146	4108.12
950.375	4149.12
950.604	4060.12
950.833	4145.12
951.062	4093.12
951.291	4012.12
951.52	4024.12
951.749	4034.12
951.978	3971.12
952.206	4017.12
952.435	3985.12
952.664	3983.12
952.892	3951.12
953.121	3967.12
953.349	3978.12
953.578	3962.12
953.806	3915.12
954.035	3826.12
954.263	3925.12
954.491	3780.12
954.719	3832.12
954.948	3828.12
955.176	3758.12
955.404	3652.12
955.632	3748.12
955.86	3734.12
956.088	3732.12
956.316	3758.12
956.544	3756.12
956.772	3698.12
956.999	3666.12
957.227	3725.12
957.455	3568.12
957.683	3613.12
957.91	3566.12
958.138	3519.12
958.365	3527.12
958.593	3552.12
958.82	3463.12
959.048	3536.12
959.275	3513.12
959.502	3487.12
959.73	3451.12
959.957	3499.12
960.184	3471.12
960.411	3466.12
960.638	3521.12
960.865	3464.12
961.092	3480.12
961.319	3403.12
961.546	3421.12
961.773	3466.12
962	3420.12
962.227	3493.12
962.454	3444.12
962.68	3405.12
962.907	3379.12
963.134	3320.12
963.36	3326.12
963.587	3345.12
963.813	3262.12
964.04	3312.12
964.266	3204.12
964.493	3318.12
964.719	3289.12
964.945	3242.12
965.171	3164.12
965.398	3186.12
965.624	3212.12
965.85	3147.12
966.076	3098.12
966.302	3167.12
966.528	3083.12
966.754	3142.12
966.98	3136.12
967.206	3126.12
967.431	3071.12
967.657	3111.12
967.883	3068.12
968.109	3075.12
968.334	3033.12
968.56	3013.12
968.785	3036.12
969.011	2975.12
969.236	3042.12
969.462	2971.12
969.687	2992.12
969.912	3007.12
970.138	3054.12
970.363	2878.12
970.588	2945.12
970.813	2928.12
971.038	2916.12
971.263	2960.12
971.488	2931.12
971.713	2919.12
971.938	2945.12
972.163	2821.12
972.388	2833.12
972.613	2825.12
972.838	2846.12
973.062	2802.12
973.287	2819.12
973.512	2745.12
973.736	2772.12
973.961	2763.12
974.185	2732.12
974.41	2751.12
974.634	2638.12
974.858	2667.12
975.083	2687.12
975.307	2690.12
975.531	2633.12
975.755	2592.12
975.98	2582.12
976.204	2526.12
976.428	2540.12
976.652	2528.12
976.876	2521.12
977.1	2515.12
977.324	2484.12
977.547	2561.12
977.771	2551.12
977.995	2514.12
978.219	2432.12
978.442	2577.12
978.666	2491.12
978.89	2512.12
979.113	2510.12
979.337	2453.12
979.56	2439.12
979.783	2519.12
980.007	2407.12
980.23	2444.12
980.453	2405.12
980.677	2435.12
980.9	2385.12
981.123	2290.12
981.346	2429.12
981.569	2352.12
981.792	2411.12
982.015	2348.12
982.238	2344.12
982.461	2326.12
982.684	2307.12
982.907	2276.12
983.129	2283.12
983.352	2316.12
983.575	2285.12
983.797	2295.12
984.02	2274.12
984.242	2219.12
984.465	2238.12
984.687	2241.12
984.91	2259.12
985.132	2240.12
985.354	2230.12
985.577	2210.12
985.799	2185.12
986.021	2155.12
986.243	2144.12
986.465	2171.12
986.687	2228.12
986.909	2240.12
987.131	2165.12
987.353	2131.12
987.575	2155.12
987.797	2123.12
988.019	2057.12
988.241	2150.12
988.462	2094.12
988.684	2164.12
988.906	2181.12
989.127	2151.12
989.349	2063.12
989.57	2077.12
989.792	2156.12
990.013	2100.12
990.234	2138.12
990.456	2115.12
990.677	2135.12
990.898	2061.12
991.119	2068.12
991.341	2101.12
991.562	2004.12
991.783	2076.12
992.004	2000.12
992.225	1967.12
992.446	2010.12
992.667	1945.12
992.887	2004.12
993.108	1911.12
993.329	2030.12
993.55	1946.12
993.77	1928.12
993.991	1908.12
994.212	1953.12
994.432	1897.12
994.653	1933.12
994.873	1913.12
995.093	1797.12
995.314	1855.12
995.534	1922.12
995.754	1940.12
995.975	1944.12
996.195	1843.12
996.415	1894.12
996.635	1895.12
996.855	1930.12
997.075	1875.12
997.295	1859.12
997.515	1858.12
997.735	1923.12
997.955	1857.12
998.174	1840.12
998.394	1831.12
998.614	1867.12
998.834	1805.12
999.053	1908.12
999.273	1854.12
999.492	1869.12
999.712	1812.12
999.931	1795.12
1000.151	1821.12
1000.37	1811.12
1000.589	1847.12
1000.809	1743.12
1001.028	1892.12
1001.247	1796.12
1001.466	1698.12
1001.685	1836.12
1001.904	1761.12
1002.123	1763.12
1002.342	1777.12
1002.561	1681.12
1002.78	1720.12
1002.999	1793.12
1003.218	1700.12
1003.436	1675.12
1003.655	1754.12
1003.874	1684.12
1004.092	1700.12
1004.311	1740.12
1004.53	1718.12
1004.748	1779.12
1004.966	1674.12
1005.185	1740.12
1005.403	1757.12
1005.622	1731.12
1005.84	1800.12
1006.058	1694.12
1006.276	1726.12
1006.494	2083.12
1006.712	1726.12
1006.931	1773.12
1007.149	1677.12
1007.367	1711.12
1007.584	1712.12
1007.802	1791.12
1008.02	1751.12
1008.238	1843.12
1008.456	1880.12
1008.673	1735.12
1008.891	1856.12
1009.109	1874.12
1009.326	1945.12
1009.544	2054.12
1009.761	1955.12
1009.979	2125.12
1010.196	2156.12
1010.413	2349.12
1010.631	2378.12
1010.848	2436.12
1011.065	2471.12
1011.282	2435.12
1011.5	2360.12
1011.717	2453.12
1011.934	2393.12
1012.151	2412.12
1012.368	2401.12
1012.585	2336.12
1012.801	2374.12
1013.018	2343.12
1013.235	2338.12
1013.452	2357.12
1013.669	2391.12
1013.885	2394.12
1014.102	2464.12
1014.318	2396.12
1014.535	2350.12
1014.751	2350.12
1014.968	2348.12
1015.184	2367.12
1015.401	2288.12
1015.617	2275.12
1015.833	2209.12
1016.049	2207.12
1016.266	2161.12
1016.482	2157.12
1016.698	2058.12
1016.914	2120.12
1017.13	2061.12
1017.346	2051.12
1017.562	2119.12
1017.778	2019.12
1017.993	1963.12
1018.209	2023.12
1018.425	2025.12
1018.641	1981.12
1018.856	1894.12
1019.072	1965.12
1019.288	2023.12
1019.503	1945.12
1019.719	1855.12
1019.934	1909.12
1020.149	1940.12
1020.365	1833.12
1020.58	1798.12
1020.795	1792.12
1021.011	1723.12
1021.226	1689.12
1021.441	1742.12
1021.656	1597.12
1021.871	1538.12
1022.086	1522.12
1022.301	1513.12
1022.516	1483.12
1022.731	1513.12
1022.946	1429.12
1023.16	1404.12
1023.375	1367.12
1023.59	1355.12
1023.804	1296.12
1024.019	1369.12
1024.234	1253.12
1024.448	1275.12
1024.663	1194.12
1024.877	1181.12
1025.092	1188.12
1025.306	1191.12
1025.52	1081.12
1025.734	1181.12
1025.949	1076.12
1026.163	1039.12
1026.377	989.12
1026.591	1036.12
1026.805	967.12
1027.019	967.12
1027.233	928.12
1027.447	860.12
1027.661	941.12
1027.875	896.12
1028.088	893.12
1028.302	816.12
1028.516	803.12
1028.73	838.12
1028.943	763.12
1029.157	714.12
1029.37	678.12
1029.584	-1.88
1029.797	0.12
1030.011	-0.88
1030.224	0.12
