Data from QEP037381__8__10-23-40-303.txt Node

Date: Fri Apr 28 10:23:40 EDT 2023
User: dcclab
Spectrometer: QEP03738
Trigger mode: 4
Integration Time (sec): 1.000000E1
Scans to average: 1
Electric dark correction enabled: true
Nonlinearity correction enabled: false
Boxcar width: 0
XAxis mode: Wavelengths
Number of Pixels in Spectrum: 1044
>>>>>Begin Spectral Data<<<<<
784.041	13.62
784.3	0.62
784.558	-2.38
784.817	-3.38
785.075	65173.62
785.334	13485.62
785.592	7051.62
785.851	5032.62
786.109	3816.62
786.368	3052.62
786.626	2478.62
786.884	2043.62
787.143	1714.62
787.401	1415.62
787.659	1291.62
787.917	1126.62
788.175	1015.62
788.433	898.62
788.691	796.62
788.949	750.62
789.207	730.62
789.465	631.62
789.723	626.62
789.98	562.62
790.238	603.62
790.496	575.62
790.753	538.62
791.011	600.62
791.268	530.62
791.526	526.62
791.783	537.62
792.041	514.62
792.298	458.62
792.556	513.62
792.813	485.62
793.07	455.62
793.327	454.62
793.584	539.62
793.841	455.62
794.099	485.62
794.356	546.62
794.613	428.62
794.869	479.62
795.126	440.62
795.383	418.62
795.64	442.62
795.897	400.62
796.153	459.62
796.41	439.62
796.667	432.62
796.923	439.62
797.18	449.62
797.436	483.62
797.693	437.62
797.949	493.62
798.206	513.62
798.462	436.62
798.718	493.62
798.974	468.62
799.231	516.62
799.487	498.62
799.743	510.62
799.999	539.62
800.255	553.62
800.511	544.62
800.767	606.62
801.023	623.62
801.279	633.62
801.534	699.62
801.79	782.62
802.046	862.62
802.302	1057.62
802.557	1288.62
802.813	1677.62
803.068	2182.62
803.324	3191.62
803.579	4455.62
803.835	6192.62
804.09	8411.62
804.345	10577.62
804.601	12835.62
804.856	14804.62
805.111	16409.62
805.366	17413.62
805.621	18269.62
805.876	18842.62
806.131	19136.62
806.386	19400.62
806.641	19877.62
806.896	20002.62
807.151	20474.62
807.406	20639.62
807.661	21086.62
807.915	21442.62
808.17	21826.62
808.425	22007.62
808.679	22277.62
808.934	22544.62
809.188	22652.62
809.443	23018.62
809.697	23381.62
809.951	23467.62
810.206	23647.62
810.46	23837.62
810.714	24010.62
810.968	24208.62
811.223	24307.62
811.477	24518.62
811.731	24780.62
811.985	24897.62
812.239	24960.62
812.493	25274.62
812.747	25326.62
813	25303.62
813.254	25362.62
813.508	25527.62
813.762	25752.62
814.015	25839.62
814.269	26066.62
814.522	26172.62
814.776	26542.62
815.03	26719.62
815.283	27216.62
815.536	27499.62
815.79	27873.62
816.043	28300.62
816.296	28622.62
816.55	28957.62
816.803	29363.62
817.056	29872.62
817.309	29993.62
817.562	30292.62
817.815	30666.62
818.068	30869.62
818.321	31351.62
818.574	31819.62
818.827	32270.62
819.079	32641.62
819.332	33141.62
819.585	33622.62
819.838	33956.62
820.09	34281.62
820.343	34556.62
820.595	34650.62
820.848	34911.62
821.1	34952.62
821.353	35049.62
821.605	34898.62
821.857	35028.62
822.11	34777.62
822.362	34743.62
822.614	34639.62
822.866	34790.62
823.118	34739.62
823.37	34985.62
823.622	35129.62
823.874	35177.62
824.126	35288.62
824.378	35292.62
824.63	35482.62
824.882	35641.62
825.134	35456.62
825.385	35511.62
825.637	35422.62
825.888	35311.62
826.14	35249.62
826.392	35153.62
826.643	34892.62
826.895	34996.62
827.146	34714.62
827.397	34681.62
827.649	34695.62
827.9	34629.62
828.151	34685.62
828.402	34865.62
828.653	34933.62
828.905	35116.62
829.156	35151.62
829.407	35267.62
829.658	35151.62
829.909	35354.62
830.159	35190.62
830.41	35047.62
830.661	34884.62
830.912	34509.62
831.162	34508.62
831.413	34479.62
831.664	34410.62
831.914	34317.62
832.165	34464.62
832.415	34347.62
832.666	34497.62
832.916	34321.62
833.167	34332.62
833.417	34221.62
833.667	34236.62
833.917	34075.62
834.168	34072.62
834.418	33970.62
834.668	33849.62
834.918	33664.62
835.168	33524.62
835.418	33334.62
835.668	33322.62
835.918	33379.62
836.167	33194.62
836.417	33060.62
836.667	33094.62
836.917	33052.62
837.166	32941.62
837.416	33049.62
837.666	33048.62
837.915	33085.62
838.165	32967.62
838.414	32858.62
838.663	32754.62
838.913	32753.62
839.162	32776.62
839.411	32697.62
839.661	32433.62
839.91	32453.62
840.159	32477.62
840.408	32298.62
840.657	32459.62
840.906	32535.62
841.155	32472.62
841.404	32428.62
841.653	32543.62
841.902	32552.62
842.15	32648.62
842.399	32730.62
842.648	32532.62
842.897	32530.62
843.145	32247.62
843.394	31919.62
843.642	31822.62
843.891	31604.62
844.139	31491.62
844.388	31382.62
844.636	31194.62
844.884	31077.62
845.133	31100.62
845.381	31086.62
845.629	31202.62
845.877	31155.62
846.125	31033.62
846.373	31154.62
846.621	30960.62
846.869	30821.62
847.117	30673.62
847.365	30544.62
847.613	30411.62
847.861	30229.62
848.108	30386.62
848.356	30225.62
848.604	30275.62
848.851	30272.62
849.099	30430.62
849.346	30307.62
849.594	30535.62
849.841	30619.62
850.089	30635.62
850.336	30763.62
850.583	30723.62
850.831	30480.62
851.078	30330.62
851.325	30287.62
851.572	30209.62
851.819	29897.62
852.066	29330.62
852.313	29079.62
852.56	28824.62
852.807	28760.62
853.054	28805.62
853.301	28653.62
853.548	28687.62
853.794	28821.62
854.041	29066.62
854.288	29096.62
854.534	29363.62
854.781	29348.62
855.028	29220.62
855.274	29262.62
855.52	29086.62
855.767	29059.62
856.013	29211.62
856.26	29409.62
856.506	28677.62
856.752	28651.62
856.998	28808.62
857.244	28907.62
857.49	28929.62
857.736	28901.62
857.982	28959.62
858.228	28875.62
858.474	28655.62
858.72	28268.62
858.966	28053.62
859.212	27934.62
859.458	27583.62
859.703	27379.62
859.949	27053.62
860.195	26843.62
860.44	26911.62
860.686	26784.62
860.931	26822.62
861.177	26614.62
861.422	26434.62
861.667	26301.62
861.913	26335.62
862.158	26282.62
862.403	26372.62
862.648	26449.62
862.893	26484.62
863.138	26421.62
863.384	26300.62
863.629	26212.62
863.873	26171.62
864.118	26111.62
864.363	25951.62
864.608	25807.62
864.853	25825.62
865.098	25681.62
865.342	25445.62
865.587	25297.62
865.832	25459.62
866.076	25366.62
866.321	25302.62
866.565	25242.62
866.81	25029.62
867.054	25095.62
867.298	25025.62
867.543	24984.62
867.787	24967.62
868.031	24824.62
868.275	24864.62
868.519	24867.62
868.764	24982.62
869.008	24730.62
869.252	24831.62
869.496	24705.62
869.739	24717.62
869.983	24660.62
870.227	24746.62
870.471	24714.62
870.715	24884.62
870.958	24933.62
871.202	24805.62
871.446	24801.62
871.689	24950.62
871.933	24856.62
872.176	24923.62
872.42	24735.62
872.663	24776.62
872.906	24784.62
873.15	24804.62
873.393	24771.62
873.636	24709.62
873.879	24384.62
874.122	24058.62
874.366	23633.62
874.609	23425.62
874.852	23370.62
875.095	23206.62
875.337	23182.62
875.58	22987.62
875.823	22915.62
876.066	23023.62
876.309	22827.62
876.551	22799.62
876.794	22603.62
877.037	22549.62
877.279	22437.62
877.522	22475.62
877.764	22544.62
878.007	22479.62
878.249	22478.62
878.491	22305.62
878.734	22400.62
878.976	22274.62
879.218	22114.62
879.46	21857.62
879.702	21839.62
879.945	21639.62
880.187	21497.62
880.429	21323.62
880.671	21194.62
880.912	21184.62
881.154	21050.62
881.396	21006.62
881.638	21034.62
881.88	21041.62
882.121	20978.62
882.363	20997.62
882.605	20880.62
882.846	20964.62
883.088	20963.62
883.329	21006.62
883.571	20950.62
883.812	21346.62
884.053	21768.62
884.295	22123.62
884.536	22309.62
884.777	22200.62
885.018	21956.62
885.259	21961.62
885.5	21737.62
885.742	21910.62
885.982	21530.62
886.223	21396.62
886.464	21258.62
886.705	20921.62
886.946	20740.62
887.187	20418.62
887.428	20217.62
887.668	19876.62
887.909	19553.62
888.15	19372.62
888.39	19196.62
888.631	19087.62
888.871	18879.62
889.111	18763.62
889.352	18712.62
889.592	18549.62
889.833	18350.62
890.073	18223.62
890.313	18229.62
890.553	17949.62
890.793	18055.62
891.033	17815.62
891.273	17771.62
891.513	17746.62
891.753	17640.62
891.993	17665.62
892.233	17735.62
892.473	17855.62
892.713	17714.62
892.952	17608.62
893.192	17727.62
893.432	17607.62
893.671	17647.62
893.911	17508.62
894.15	17388.62
894.39	17187.62
894.629	17169.62
894.869	17174.62
895.108	16920.62
895.347	16866.62
895.587	16897.62
895.826	16749.62
896.065	16797.62
896.304	16717.62
896.543	16801.62
896.782	16547.62
897.021	16567.62
897.26	16565.62
897.499	16555.62
897.738	16547.62
897.977	16323.62
898.216	16419.62
898.454	16183.62
898.693	16097.62
898.932	16030.62
899.17	15878.62
899.409	15975.62
899.647	15868.62
899.886	15888.62
900.124	15882.62
900.363	15857.62
900.601	15848.62
900.839	15952.62
901.078	16111.62
901.316	16130.62
901.554	16186.62
901.792	16227.62
902.03	16273.62
902.268	16162.62
902.506	16195.62
902.744	15933.62
902.982	15944.62
903.22	15682.62
903.458	15447.62
903.695	15165.62
903.933	15085.62
904.171	14765.62
904.409	14543.62
904.646	14428.62
904.884	14095.62
905.121	14160.62
905.359	13876.62
905.596	13831.62
905.833	13714.62
906.071	13675.62
906.308	13786.62
906.545	13608.62
906.783	13498.62
907.02	13509.62
907.257	13453.62
907.494	13417.62
907.731	13388.62
907.968	13368.62
908.205	13266.62
908.442	13218.62
908.679	13165.62
908.915	13027.62
909.152	12931.62
909.389	12759.62
909.626	12659.62
909.862	12659.62
910.099	12551.62
910.335	12573.62
910.572	12423.62
910.808	12414.62
911.045	12397.62
911.281	12348.62
911.518	12321.62
911.754	12212.62
911.99	12148.62
912.226	12070.62
912.463	11914.62
912.699	11889.62
912.935	11706.62
913.171	11603.62
913.407	11591.62
913.643	11551.62
913.879	11413.62
914.114	11350.62
914.35	11246.62
914.586	11157.62
914.822	10986.62
915.057	11086.62
915.293	10849.62
915.529	10821.62
915.764	10954.62
916	10792.62
916.235	10816.62
916.471	10809.62
916.706	10663.62
916.941	10689.62
917.177	10708.62
917.412	10758.62
917.647	10747.62
917.882	10656.62
918.117	10678.62
918.352	10558.62
918.588	10517.62
918.823	10417.62
919.057	10370.62
919.292	10129.62
919.527	10227.62
919.762	10075.62
919.997	9939.62
920.232	9852.62
920.466	9792.62
920.701	9602.62
920.935	9641.62
921.17	9546.62
921.405	9478.62
921.639	9553.62
921.873	9462.62
922.108	9466.62
922.342	9346.62
922.576	9337.62
922.811	9273.62
923.045	9337.62
923.279	9301.62
923.513	9140.62
923.747	9151.62
923.981	9151.62
924.215	9027.62
924.449	8948.62
924.683	8923.62
924.917	8832.62
925.151	8824.62
925.385	8889.62
925.618	8813.62
925.852	8772.62
926.086	8617.62
926.319	8707.62
926.553	8762.62
926.786	8743.62
927.02	8682.62
927.253	8703.62
927.486	8697.62
927.72	8602.62
927.953	8667.62
928.186	8549.62
928.42	8553.62
928.653	8415.62
928.886	8441.62
929.119	8440.62
929.352	8413.62
929.585	8322.62
929.818	8230.62
930.051	8110.62
930.284	8139.62
930.516	8001.62
930.749	8016.62
930.982	7979.62
931.215	7953.62
931.447	7856.62
931.68	7893.62
931.912	7894.62
932.145	7833.62
932.377	7858.62
932.61	7950.62
932.842	7825.62
933.074	7816.62
933.307	7772.62
933.539	7896.62
933.771	7843.62
934.003	7790.62
934.236	7830.62
934.468	7879.62
934.7	7761.62
934.932	7757.62
935.164	7687.62
935.395	7628.62
935.627	7675.62
935.859	7620.62
936.091	7536.62
936.323	7600.62
936.554	7576.62
936.786	7495.62
937.017	7409.62
937.249	7483.62
937.481	7340.62
937.712	7457.62
937.943	7410.62
938.175	7330.62
938.406	7350.62
938.637	7372.62
938.869	7230.62
939.1	7330.62
939.331	7303.62
939.562	7325.62
939.793	7218.62
940.024	7304.62
940.255	7268.62
940.486	7122.62
940.717	7123.62
940.948	7040.62
941.179	7062.62
941.409	7057.62
941.64	7040.62
941.871	7052.62
942.102	6963.62
942.332	6994.62
942.563	7024.62
942.793	7004.62
943.024	6939.62
943.254	6986.62
943.484	6966.62
943.715	7035.62
943.945	7004.62
944.175	6928.62
944.405	6845.62
944.636	6919.62
944.866	6896.62
945.096	6930.62
945.326	6794.62
945.556	6854.62
945.786	6797.62
946.016	6760.62
946.245	6717.62
946.475	6650.62
946.705	6663.62
946.935	6544.62
947.164	6604.62
947.394	6533.62
947.624	6526.62
947.853	6501.62
948.083	6467.62
948.312	6422.62
948.542	6378.62
948.771	6326.62
949	6334.62
949.23	6323.62
949.459	6285.62
949.688	6391.62
949.917	6296.62
950.146	6307.62
950.375	6348.62
950.604	6197.62
950.833	6297.62
951.062	6322.62
951.291	6233.62
951.52	6220.62
951.749	6199.62
951.978	6135.62
952.206	6139.62
952.435	6150.62
952.664	6140.62
952.892	6097.62
953.121	6109.62
953.349	6021.62
953.578	6065.62
953.806	6017.62
954.035	5938.62
954.263	5932.62
954.491	5840.62
954.719	5914.62
954.948	5761.62
955.176	5811.62
955.404	5739.62
955.632	5791.62
955.86	5752.62
956.088	5723.62
956.316	5698.62
956.544	5702.62
956.772	5614.62
956.999	5529.62
957.227	5588.62
957.455	5495.62
957.683	5528.62
957.91	5497.62
958.138	5481.62
958.365	5416.62
958.593	5414.62
958.82	5351.62
959.048	5430.62
959.275	5417.62
959.502	5366.62
959.73	5315.62
959.957	5326.62
960.184	5334.62
960.411	5268.62
960.638	5390.62
960.865	5215.62
961.092	5315.62
961.319	5235.62
961.546	5296.62
961.773	5287.62
962	5253.62
962.227	5259.62
962.454	5219.62
962.68	5149.62
962.907	5172.62
963.134	5100.62
963.36	5106.62
963.587	5135.62
963.813	5017.62
964.04	5002.62
964.266	4896.62
964.493	5006.62
964.719	4938.62
964.945	4970.62
965.171	4846.62
965.398	4849.62
965.624	4908.62
965.85	4768.62
966.076	4814.62
966.302	4801.62
966.528	4773.62
966.754	4767.62
966.98	4736.62
967.206	4718.62
967.431	4649.62
967.657	4736.62
967.883	4666.62
968.109	4661.62
968.334	4595.62
968.56	4569.62
968.785	4624.62
969.011	4537.62
969.236	4598.62
969.462	4481.62
969.687	4529.62
969.912	4563.62
970.138	4564.62
970.363	4480.62
970.588	4476.62
970.813	4443.62
971.038	4435.62
971.263	4412.62
971.488	4429.62
971.713	4412.62
971.938	4402.62
972.163	4259.62
972.388	4316.62
972.613	4252.62
972.838	4301.62
973.062	4238.62
973.287	4188.62
973.512	4130.62
973.736	4206.62
973.961	4150.62
974.185	4117.62
974.41	4089.62
974.634	4028.62
974.858	4039.62
975.083	4048.62
975.307	3994.62
975.531	3971.62
975.755	3928.62
975.98	3948.62
976.204	3895.62
976.428	3841.62
976.652	3824.62
976.876	3774.62
977.1	3830.62
977.324	3810.62
977.547	3830.62
977.771	3833.62
977.995	3757.62
978.219	3748.62
978.442	3786.62
978.666	3739.62
978.89	3749.62
979.113	3737.62
979.337	3716.62
979.56	3703.62
979.783	3783.62
980.007	3648.62
980.23	3667.62
980.453	3648.62
980.677	3635.62
980.9	3631.62
981.123	3469.62
981.346	3610.62
981.569	3575.62
981.792	3529.62
982.015	3541.62
982.238	3453.62
982.461	3524.62
982.684	3419.62
982.907	3398.62
983.129	3386.62
983.352	3420.62
983.575	3368.62
983.797	3326.62
984.02	3338.62
984.242	3274.62
984.465	3314.62
984.687	3335.62
984.91	3315.62
985.132	3293.62
985.354	3262.62
985.577	3257.62
985.799	3237.62
986.021	3158.62
986.243	3165.62
986.465	3190.62
986.687	3258.62
986.909	3251.62
987.131	3195.62
987.353	3162.62
987.575	3170.62
987.797	3120.62
988.019	3050.62
988.241	3132.62
988.462	3066.62
988.684	3128.62
988.906	3138.62
989.127	3201.62
989.349	3022.62
989.57	3047.62
989.792	3084.62
990.013	3096.62
990.234	3076.62
990.456	3075.62
990.677	3074.62
990.898	3000.62
991.119	3020.62
991.341	2998.62
991.562	2942.62
991.783	2971.62
992.004	2846.62
992.225	2822.62
992.446	2910.62
992.667	2821.62
992.887	2899.62
993.108	2781.62
993.329	2892.62
993.55	2843.62
993.77	2727.62
993.991	2720.62
994.212	2781.62
994.432	2697.62
994.653	2747.62
994.873	2740.62
995.093	2590.62
995.314	2688.62
995.534	2751.62
995.754	2724.62
995.975	2712.62
996.195	2620.62
996.415	2664.62
996.635	2680.62
996.855	2687.62
997.075	2655.62
997.295	2636.62
997.515	2596.62
997.735	2657.62
997.955	2618.62
998.174	2614.62
998.394	2569.62
998.614	2621.62
998.834	2563.62
999.053	2614.62
999.273	2595.62
999.492	2645.62
999.712	2552.62
999.931	2515.62
1000.151	2573.62
1000.37	2490.62
1000.589	2516.62
1000.809	2465.62
1001.028	2568.62
1001.247	2473.62
1001.466	2398.62
1001.685	2516.62
1001.904	2455.62
1002.123	2397.62
1002.342	2455.62
1002.561	2350.62
1002.78	2391.62
1002.999	2411.62
1003.218	2342.62
1003.436	2336.62
1003.655	2403.62
1003.874	2308.62
1004.092	2312.62
1004.311	2336.62
1004.53	2315.62
1004.748	2364.62
1004.966	2297.62
1005.185	2339.62
1005.403	2341.62
1005.622	2306.62
1005.84	2354.62
1006.058	2280.62
1006.276	2292.62
1006.494	2683.62
1006.712	2285.62
1006.931	2348.62
1007.149	2241.62
1007.367	2268.62
1007.584	2322.62
1007.802	2342.62
1008.02	2302.62
1008.238	2385.62
1008.456	2406.62
1008.673	2282.62
1008.891	2423.62
1009.109	2375.62
1009.326	2444.62
1009.544	2591.62
1009.761	2509.62
1009.979	2662.62
1010.196	2681.62
1010.413	2835.62
1010.631	2931.62
1010.848	3011.62
1011.065	3012.62
1011.282	2952.62
1011.5	2891.62
1011.717	2997.62
1011.934	2934.62
1012.151	2973.62
1012.368	2897.62
1012.585	2860.62
1012.801	2878.62
1013.018	2862.62
1013.235	2839.62
1013.452	2853.62
1013.669	2892.62
1013.885	2905.62
1014.102	2940.62
1014.318	2895.62
1014.535	2894.62
1014.751	2840.62
1014.968	2890.62
1015.184	2831.62
1015.401	2727.62
1015.617	2743.62
1015.833	2706.62
1016.049	2679.62
1016.266	2646.62
1016.482	2657.62
1016.698	2572.62
1016.914	2626.62
1017.13	2517.62
1017.346	2496.62
1017.562	2547.62
1017.778	2445.62
1017.993	2452.62
1018.209	2515.62
1018.425	2443.62
1018.641	2442.62
1018.856	2424.62
1019.072	2404.62
1019.288	2482.62
1019.503	2425.62
1019.719	2289.62
1019.934	2303.62
1020.149	2393.62
1020.365	2313.62
1020.58	2227.62
1020.795	2221.62
1021.011	2178.62
1021.226	2107.62
1021.441	2131.62
1021.656	2020.62
1021.871	1952.62
1022.086	1930.62
1022.301	1903.62
1022.516	1846.62
1022.731	1888.62
1022.946	1818.62
1023.16	1794.62
1023.375	1720.62
1023.59	1703.62
1023.804	1659.62
1024.019	1718.62
1024.234	1597.62
1024.448	1602.62
1024.663	1546.62
1024.877	1535.62
1025.092	1526.62
1025.306	1522.62
1025.52	1409.62
1025.734	1474.62
1025.949	1379.62
1026.163	1320.62
1026.377	1278.62
1026.591	1314.62
1026.805	1226.62
1027.019	1203.62
1027.233	1154.62
1027.447	1112.62
1027.661	1234.62
1027.875	1164.62
1028.088	1136.62
1028.302	1046.62
1028.516	1025.62
1028.73	1016.62
1028.943	1006.62
1029.157	939.62
1029.37	867.62
1029.584	-3.38
1029.797	-2.38
1030.011	-0.38
1030.224	-2.38
