Data from QEP037381__0__10-22-20-302.txt Node

Date: Fri Apr 28 10:22:20 EDT 2023
User: dcclab
Spectrometer: QEP03738
Trigger mode: 4
Integration Time (sec): 1.000000E1
Scans to average: 1
Electric dark correction enabled: true
Nonlinearity correction enabled: false
Boxcar width: 0
XAxis mode: Wavelengths
Number of Pixels in Spectrum: 1044
>>>>>Begin Spectral Data<<<<<
784.041	13.62
784.3	3.62
784.558	-3.38
784.817	-4.38
785.075	70640.62
785.334	13957.62
785.592	7277.62
785.851	5178.62
786.109	3928.62
786.368	3050.62
786.626	2486.62
786.884	2086.62
787.143	1745.62
787.401	1483.62
787.659	1310.62
787.917	1143.62
788.175	1049.62
788.433	910.62
788.691	824.62
788.949	780.62
789.207	728.62
789.465	632.62
789.723	607.62
789.98	557.62
790.238	597.62
790.496	559.62
790.753	534.62
791.011	591.62
791.268	504.62
791.526	498.62
791.783	521.62
792.041	497.62
792.298	421.62
792.556	486.62
792.813	464.62
793.07	457.62
793.327	417.62
793.584	503.62
793.841	431.62
794.099	450.62
794.356	513.62
794.613	398.62
794.869	452.62
795.126	420.62
795.383	394.62
795.64	430.62
795.897	370.62
796.153	437.62
796.41	420.62
796.667	392.62
796.923	415.62
797.18	404.62
797.436	437.62
797.693	413.62
797.949	447.62
798.206	498.62
798.462	411.62
798.718	465.62
798.974	433.62
799.231	486.62
799.487	467.62
799.743	478.62
799.999	500.62
800.255	508.62
800.511	484.62
800.767	539.62
801.023	522.62
801.279	550.62
801.534	611.62
801.79	664.62
802.046	703.62
802.302	862.62
802.557	1022.62
802.813	1310.62
803.068	1710.62
803.324	2425.62
803.579	3360.62
803.835	4638.62
804.09	6288.62
804.345	7828.62
804.601	9517.62
804.856	10921.62
805.111	12112.62
805.366	12839.62
805.621	13342.62
805.876	13789.62
806.131	13975.62
806.386	14224.62
806.641	14466.62
806.896	14562.62
807.151	14893.62
807.406	14961.62
807.661	15274.62
807.915	15575.62
808.17	15637.62
808.425	15882.62
808.679	16024.62
808.934	16135.62
809.188	16332.62
809.443	16429.62
809.697	16651.62
809.951	16811.62
810.206	16987.62
810.46	17046.62
810.714	17164.62
810.968	17309.62
811.223	17478.62
811.477	17624.62
811.731	17643.62
811.985	17701.62
812.239	17781.62
812.493	17729.62
812.747	17796.62
813	17828.62
813.254	17988.62
813.508	18143.62
813.762	18167.62
814.015	18209.62
814.269	18262.62
814.522	18429.62
814.776	18555.62
815.03	18706.62
815.283	18954.62
815.536	19153.62
815.79	19419.62
816.043	19764.62
816.296	20050.62
816.55	20164.62
816.803	20365.62
817.056	20683.62
817.309	20700.62
817.562	20955.62
817.815	21229.62
818.068	21359.62
818.321	21492.62
818.574	21767.62
818.827	22135.62
819.079	22386.62
819.332	22894.62
819.585	23034.62
819.838	23388.62
820.09	23301.62
820.343	23494.62
820.595	23690.62
820.848	23807.62
821.1	23931.62
821.353	23944.62
821.605	23742.62
821.857	23909.62
822.11	23697.62
822.362	23595.62
822.614	23561.62
822.866	23653.62
823.118	23599.62
823.37	23716.62
823.622	23779.62
823.874	23858.62
824.126	24026.62
824.378	23895.62
824.63	23976.62
824.882	23997.62
825.134	23972.62
825.385	23898.62
825.637	23848.62
825.888	23708.62
826.14	23801.62
826.392	23582.62
826.643	23414.62
826.895	23377.62
827.146	23234.62
827.397	23173.62
827.649	23244.62
827.9	23036.62
828.151	23102.62
828.402	23136.62
828.653	23369.62
828.905	23349.62
829.156	23427.62
829.407	23366.62
829.658	23482.62
829.909	23577.62
830.159	23512.62
830.41	23545.62
830.661	23255.62
830.912	23037.62
831.162	22907.62
831.413	22937.62
831.664	23050.62
831.914	22849.62
832.165	22814.62
832.415	22884.62
832.666	22909.62
832.916	22824.62
833.167	22872.62
833.417	22696.62
833.667	22706.62
833.917	22535.62
834.168	22544.62
834.418	22431.62
834.668	22317.62
834.918	22148.62
835.168	22172.62
835.418	22004.62
835.668	22058.62
835.918	21946.62
836.167	21764.62
836.417	21785.62
836.667	21774.62
836.917	21736.62
837.166	21729.62
837.416	21725.62
837.666	21681.62
837.915	21583.62
838.165	21638.62
838.414	21610.62
838.663	21540.62
838.913	21529.62
839.162	21562.62
839.411	21467.62
839.661	21256.62
839.91	21347.62
840.159	21434.62
840.408	21405.62
840.657	21397.62
840.906	21385.62
841.155	21345.62
841.404	21250.62
841.653	21299.62
841.902	21290.62
842.15	21337.62
842.399	21485.62
842.648	21291.62
842.897	21221.62
843.145	21071.62
843.394	20948.62
843.642	20913.62
843.891	20737.62
844.139	20579.62
844.388	20381.62
844.636	20231.62
844.884	20235.62
845.133	20221.62
845.381	20281.62
845.629	20314.62
845.877	20229.62
846.125	20207.62
846.373	20111.62
846.621	19989.62
846.869	20037.62
847.117	19853.62
847.365	19738.62
847.613	19790.62
847.861	19688.62
848.108	19716.62
848.356	19609.62
848.604	19607.62
848.851	19639.62
849.099	19601.62
849.346	19732.62
849.594	19743.62
849.841	19772.62
850.089	19846.62
850.336	19695.62
850.583	19686.62
850.831	19544.62
851.078	19558.62
851.325	19401.62
851.572	19529.62
851.819	19399.62
852.066	18962.62
852.313	18728.62
852.56	18499.62
852.807	18511.62
853.054	18483.62
853.301	18536.62
853.548	18536.62
853.794	18698.62
854.041	18608.62
854.288	18728.62
854.534	18950.62
854.781	18823.62
855.028	18847.62
855.274	18917.62
855.52	18878.62
855.767	18870.62
856.013	19077.62
856.26	19128.62
856.506	18671.62
856.752	18464.62
856.998	18490.62
857.244	18583.62
857.49	18679.62
857.736	18654.62
857.982	18624.62
858.228	18518.62
858.474	18275.62
858.72	18133.62
858.966	17945.62
859.212	17780.62
859.458	17675.62
859.703	17370.62
859.949	17180.62
860.195	17198.62
860.44	17121.62
860.686	17140.62
860.931	17211.62
861.177	16960.62
861.422	16862.62
861.667	16663.62
861.913	16543.62
862.158	16694.62
862.403	16778.62
862.648	16711.62
862.893	16823.62
863.138	16695.62
863.384	16653.62
863.629	16561.62
863.873	16585.62
864.118	16503.62
864.363	16432.62
864.608	16299.62
864.853	16289.62
865.098	16167.62
865.342	15968.62
865.587	15897.62
865.832	15946.62
866.076	15806.62
866.321	15854.62
866.565	15899.62
866.81	15641.62
867.054	15675.62
867.298	15753.62
867.543	15503.62
867.787	15692.62
868.031	15606.62
868.275	15513.62
868.519	15632.62
868.764	15566.62
869.008	15487.62
869.252	15600.62
869.496	15507.62
869.739	15528.62
869.983	15554.62
870.227	15613.62
870.471	15544.62
870.715	15671.62
870.958	15680.62
871.202	15665.62
871.446	15705.62
871.689	15584.62
871.933	15630.62
872.176	15698.62
872.42	15545.62
872.663	15672.62
872.906	15697.62
873.15	15821.62
873.393	15793.62
873.636	15808.62
873.879	15511.62
874.122	15281.62
874.366	15006.62
874.609	14808.62
874.852	14692.62
875.095	14572.62
875.337	14468.62
875.58	14434.62
875.823	14287.62
876.066	14216.62
876.309	14321.62
876.551	14100.62
876.794	14135.62
877.037	14094.62
877.279	13979.62
877.522	13935.62
877.764	13981.62
878.007	13909.62
878.249	13850.62
878.491	13851.62
878.734	13896.62
878.976	13737.62
879.218	13562.62
879.46	13571.62
879.702	13432.62
879.945	13316.62
880.187	13165.62
880.429	13131.62
880.671	13080.62
880.912	13055.62
881.154	12981.62
881.396	12861.62
881.638	12876.62
881.88	12866.62
882.121	12776.62
882.363	12876.62
882.605	12856.62
882.846	12871.62
883.088	12892.62
883.329	13014.62
883.571	13095.62
883.812	13428.62
884.053	13921.62
884.295	14349.62
884.536	14412.62
884.777	14322.62
885.018	14033.62
885.259	13974.62
885.5	13759.62
885.742	13965.62
885.982	13661.62
886.223	13500.62
886.464	13386.62
886.705	13195.62
886.946	12997.62
887.187	12631.62
887.428	12493.62
887.668	12106.62
887.909	12009.62
888.15	11757.62
888.39	11736.62
888.631	11661.62
888.871	11523.62
889.111	11437.62
889.352	11341.62
889.592	11161.62
889.833	11100.62
890.073	11027.62
890.313	11062.62
890.553	10859.62
890.793	10857.62
891.033	10758.62
891.273	10667.62
891.513	10771.62
891.753	10753.62
891.993	10683.62
892.233	10657.62
892.473	10735.62
892.713	10659.62
892.952	10640.62
893.192	10664.62
893.432	10653.62
893.671	10621.62
893.911	10486.62
894.15	10554.62
894.39	10296.62
894.629	10331.62
894.869	10345.62
895.108	10204.62
895.347	10151.62
895.587	10149.62
895.826	10061.62
896.065	10050.62
896.304	10050.62
896.543	10081.62
896.782	9886.62
897.021	9971.62
897.26	9952.62
897.499	9971.62
897.738	9965.62
897.977	9799.62
898.216	9781.62
898.454	9664.62
898.693	9615.62
898.932	9622.62
899.17	9540.62
899.409	9482.62
899.647	9524.62
899.886	9488.62
900.124	9539.62
900.363	9531.62
900.601	9650.62
900.839	9628.62
901.078	9661.62
901.316	9692.62
901.554	9743.62
901.792	9777.62
902.03	9831.62
902.268	9797.62
902.506	9811.62
902.744	9705.62
902.982	9640.62
903.22	9449.62
903.458	9298.62
903.695	9133.62
903.933	8991.62
904.171	8775.62
904.409	8722.62
904.646	8535.62
904.884	8437.62
905.121	8449.62
905.359	8338.62
905.596	8245.62
905.833	8202.62
906.071	8103.62
906.308	8129.62
906.545	8111.62
906.783	8097.62
907.02	8019.62
907.257	7964.62
907.494	7993.62
907.731	8004.62
907.968	8006.62
908.205	7859.62
908.442	7795.62
908.679	7820.62
908.915	7745.62
909.152	7727.62
909.389	7563.62
909.626	7584.62
909.862	7500.62
910.099	7460.62
910.335	7518.62
910.572	7354.62
910.808	7390.62
911.045	7337.62
911.281	7282.62
911.518	7309.62
911.754	7257.62
911.99	7187.62
912.226	7179.62
912.463	7112.62
912.699	6992.62
912.935	7001.62
913.171	6906.62
913.407	6860.62
913.643	6901.62
913.879	6795.62
914.114	6672.62
914.35	6636.62
914.586	6612.62
914.822	6496.62
915.057	6545.62
915.293	6431.62
915.529	6380.62
915.764	6462.62
916	6426.62
916.235	6374.62
916.471	6370.62
916.706	6258.62
916.941	6267.62
917.177	6246.62
917.412	6349.62
917.647	6289.62
917.882	6270.62
918.117	6291.62
918.352	6222.62
918.588	6220.62
918.823	6169.62
919.057	6131.62
919.292	5937.62
919.527	6070.62
919.762	5941.62
919.997	5890.62
920.232	5829.62
920.466	5832.62
920.701	5687.62
920.935	5652.62
921.17	5585.62
921.405	5565.62
921.639	5624.62
921.873	5529.62
922.108	5568.62
922.342	5579.62
922.576	5474.62
922.811	5440.62
923.045	5489.62
923.279	5456.62
923.513	5355.62
923.747	5466.62
923.981	5349.62
924.215	5278.62
924.449	5276.62
924.683	5243.62
924.917	5191.62
925.151	5173.62
925.385	5234.62
925.618	5152.62
925.852	5164.62
926.086	5063.62
926.319	5124.62
926.553	5107.62
926.786	5122.62
927.02	5084.62
927.253	5157.62
927.486	5131.62
927.72	5008.62
927.953	5125.62
928.186	5029.62
928.42	5025.62
928.653	4937.62
928.886	4938.62
929.119	4992.62
929.352	4953.62
929.585	4869.62
929.818	4760.62
930.051	4861.62
930.284	4775.62
930.516	4723.62
930.749	4685.62
930.982	4731.62
931.215	4699.62
931.447	4573.62
931.68	4645.62
931.912	4584.62
932.145	4582.62
932.377	4634.62
932.61	4740.62
932.842	4550.62
933.074	4609.62
933.307	4599.62
933.539	4610.62
933.771	4640.62
934.003	4531.62
934.236	4613.62
934.468	4658.62
934.7	4520.62
934.932	4572.62
935.164	4523.62
935.395	4458.62
935.627	4524.62
935.859	4486.62
936.091	4430.62
936.323	4495.62
936.554	4481.62
936.786	4409.62
937.017	4363.62
937.249	4352.62
937.481	4273.62
937.712	4334.62
937.943	4387.62
938.175	4313.62
938.406	4277.62
938.637	4353.62
938.869	4252.62
939.1	4312.62
939.331	4241.62
939.562	4268.62
939.793	4281.62
940.024	4250.62
940.255	4254.62
940.486	4194.62
940.717	4192.62
940.948	4152.62
941.179	4096.62
941.409	4148.62
941.64	4107.62
941.871	4130.62
942.102	4087.62
942.332	4103.62
942.563	4121.62
942.793	4145.62
943.024	4050.62
943.254	4086.62
943.484	4171.62
943.715	4125.62
943.945	4100.62
944.175	4021.62
944.405	4024.62
944.636	4052.62
944.866	4031.62
945.096	4046.62
945.326	3965.62
945.556	4050.62
945.786	4032.62
946.016	3960.62
946.245	3880.62
946.475	3868.62
946.705	3851.62
946.935	3847.62
947.164	3864.62
947.394	3798.62
947.624	3858.62
947.853	3798.62
948.083	3836.62
948.312	3739.62
948.542	3721.62
948.771	3700.62
949	3677.62
949.23	3687.62
949.459	3735.62
949.688	3727.62
949.917	3716.62
950.146	3751.62
950.375	3771.62
950.604	3649.62
950.833	3739.62
951.062	3720.62
951.291	3697.62
951.52	3626.62
951.749	3667.62
951.978	3597.62
952.206	3594.62
952.435	3600.62
952.664	3657.62
952.892	3597.62
953.121	3580.62
953.349	3581.62
953.578	3589.62
953.806	3500.62
954.035	3411.62
954.263	3488.62
954.491	3437.62
954.719	3495.62
954.948	3402.62
955.176	3366.62
955.404	3328.62
955.632	3399.62
955.86	3412.62
956.088	3375.62
956.316	3382.62
956.544	3419.62
956.772	3310.62
956.999	3294.62
957.227	3367.62
957.455	3259.62
957.683	3289.62
957.91	3236.62
958.138	3224.62
958.365	3213.62
958.593	3210.62
958.82	3125.62
959.048	3228.62
959.275	3175.62
959.502	3212.62
959.73	3154.62
959.957	3189.62
960.184	3184.62
960.411	3119.62
960.638	3187.62
960.865	3119.62
961.092	3174.62
961.319	3097.62
961.546	3143.62
961.773	3120.62
962	3101.62
962.227	3153.62
962.454	3090.62
962.68	3085.62
962.907	3093.62
963.134	3022.62
963.36	3010.62
963.587	3033.62
963.813	2970.62
964.04	3017.62
964.266	2912.62
964.493	3013.62
964.719	2979.62
964.945	2965.62
965.171	2858.62
965.398	2913.62
965.624	2962.62
965.85	2874.62
966.076	2879.62
966.302	2871.62
966.528	2802.62
966.754	2828.62
966.98	2806.62
967.206	2856.62
967.431	2774.62
967.657	2801.62
967.883	2848.62
968.109	2809.62
968.334	2759.62
968.56	2708.62
968.785	2725.62
969.011	2700.62
969.236	2787.62
969.462	2705.62
969.687	2719.62
969.912	2731.62
970.138	2742.62
970.363	2658.62
970.588	2687.62
970.813	2651.62
971.038	2622.62
971.263	2661.62
971.488	2666.62
971.713	2653.62
971.938	2634.62
972.163	2526.62
972.388	2583.62
972.613	2554.62
972.838	2608.62
973.062	2555.62
973.287	2532.62
973.512	2489.62
973.736	2501.62
973.961	2499.62
974.185	2467.62
974.41	2522.62
974.634	2423.62
974.858	2428.62
975.083	2458.62
975.307	2461.62
975.531	2409.62
975.755	2372.62
975.98	2389.62
976.204	2319.62
976.428	2336.62
976.652	2321.62
976.876	2271.62
977.1	2310.62
977.324	2278.62
977.547	2304.62
977.771	2293.62
977.995	2309.62
978.219	2223.62
978.442	2352.62
978.666	2277.62
978.89	2274.62
979.113	2257.62
979.337	2278.62
979.56	2255.62
979.783	2322.62
980.007	2161.62
980.23	2238.62
980.453	2206.62
980.677	2250.62
980.9	2229.62
981.123	2089.62
981.346	2186.62
981.569	2156.62
981.792	2218.62
982.015	2135.62
982.238	2104.62
982.461	2110.62
982.684	2081.62
982.907	2054.62
983.129	2041.62
983.352	2114.62
983.575	2071.62
983.797	2077.62
984.02	2047.62
984.242	2014.62
984.465	2051.62
984.687	2075.62
984.91	2082.62
985.132	2044.62
985.354	2062.62
985.577	2005.62
985.799	2008.62
986.021	1948.62
986.243	1962.62
986.465	1951.62
986.687	2004.62
986.909	2079.62
987.131	1992.62
987.353	1964.62
987.575	2005.62
987.797	1938.62
988.019	1895.62
988.241	1917.62
988.462	1893.62
988.684	1960.62
988.906	2007.62
989.127	2020.62
989.349	1860.62
989.57	1920.62
989.792	1951.62
990.013	1983.62
990.234	1928.62
990.456	1970.62
990.677	1960.62
990.898	1886.62
991.119	1900.62
991.341	1927.62
991.562	1847.62
991.783	1879.62
992.004	1847.62
992.225	1813.62
992.446	1881.62
992.667	1761.62
992.887	1847.62
993.108	1762.62
993.329	1878.62
993.55	1819.62
993.77	1758.62
993.991	1754.62
994.212	1822.62
994.432	1754.62
994.653	1787.62
994.873	1784.62
995.093	1657.62
995.314	1707.62
995.534	1770.62
995.754	1798.62
995.975	1812.62
996.195	1711.62
996.415	1770.62
996.635	1733.62
996.855	1763.62
997.075	1713.62
997.295	1740.62
997.515	1759.62
997.735	1756.62
997.955	1724.62
998.174	1696.62
998.394	1691.62
998.614	1765.62
998.834	1701.62
999.053	1746.62
999.273	1693.62
999.492	1773.62
999.712	1669.62
999.931	1653.62
1000.151	1698.62
1000.37	1670.62
1000.589	1697.62
1000.809	1642.62
1001.028	1740.62
1001.247	1698.62
1001.466	1568.62
1001.685	1718.62
1001.904	1653.62
1002.123	1655.62
1002.342	1643.62
1002.561	1601.62
1002.78	1614.62
1002.999	1674.62
1003.218	1632.62
1003.436	1576.62
1003.655	1642.62
1003.874	1571.62
1004.092	1599.62
1004.311	1637.62
1004.53	1540.62
1004.748	1676.62
1004.966	1604.62
1005.185	1613.62
1005.403	1628.62
1005.622	1619.62
1005.84	1687.62
1006.058	1591.62
1006.276	1602.62
1006.494	1987.62
1006.712	1614.62
1006.931	1668.62
1007.149	1585.62
1007.367	1592.62
1007.584	1673.62
1007.802	1678.62
1008.02	1626.62
1008.238	1755.62
1008.456	1747.62
1008.673	1657.62
1008.891	1758.62
1009.109	1745.62
1009.326	1811.62
1009.544	1937.62
1009.761	1881.62
1009.979	2004.62
1010.196	2064.62
1010.413	2183.62
1010.631	2270.62
1010.848	2358.62
1011.065	2362.62
1011.282	2283.62
1011.5	2222.62
1011.717	2334.62
1011.934	2297.62
1012.151	2310.62
1012.368	2273.62
1012.585	2231.62
1012.801	2287.62
1013.018	2255.62
1013.235	2229.62
1013.452	2282.62
1013.669	2264.62
1013.885	2286.62
1014.102	2323.62
1014.318	2283.62
1014.535	2260.62
1014.751	2275.62
1014.968	2276.62
1015.184	2279.62
1015.401	2205.62
1015.617	2173.62
1015.833	2121.62
1016.049	2111.62
1016.266	2039.62
1016.482	2086.62
1016.698	1983.62
1016.914	2044.62
1017.13	1938.62
1017.346	1950.62
1017.562	1986.62
1017.778	1930.62
1017.993	1877.62
1018.209	1958.62
1018.425	1896.62
1018.641	1861.62
1018.856	1818.62
1019.072	1875.62
1019.288	1946.62
1019.503	1860.62
1019.719	1773.62
1019.934	1806.62
1020.149	1849.62
1020.365	1780.62
1020.58	1711.62
1020.795	1730.62
1021.011	1661.62
1021.226	1616.62
1021.441	1644.62
1021.656	1545.62
1021.871	1466.62
1022.086	1439.62
1022.301	1443.62
1022.516	1423.62
1022.731	1433.62
1022.946	1349.62
1023.16	1312.62
1023.375	1329.62
1023.59	1256.62
1023.804	1207.62
1024.019	1292.62
1024.234	1171.62
1024.448	1209.62
1024.663	1111.62
1024.877	1138.62
1025.092	1125.62
1025.306	1120.62
1025.52	1034.62
1025.734	1110.62
1025.949	1021.62
1026.163	991.62
1026.377	936.62
1026.591	972.62
1026.805	891.62
1027.019	894.62
1027.233	877.62
1027.447	806.62
1027.661	920.62
1027.875	861.62
1028.088	827.62
1028.302	773.62
1028.516	754.62
1028.73	767.62
1028.943	752.62
1029.157	692.62
1029.37	651.62
1029.584	-2.38
1029.797	-2.38
1030.011	-3.38
1030.224	-1.38
