Data from QEP037381__31__10-27-30-303.txt Node

Date: Fri Apr 28 10:27:30 EDT 2023
User: dcclab
Spectrometer: QEP03738
Trigger mode: 4
Integration Time (sec): 1.000000E1
Scans to average: 1
Electric dark correction enabled: true
Nonlinearity correction enabled: false
Boxcar width: 0
XAxis mode: Wavelengths
Number of Pixels in Spectrum: 1044
>>>>>Begin Spectral Data<<<<<
784.041	12.88
784.3	0.88
784.558	-3.12
784.817	-4.12
785.075	63448.88
785.334	12584.88
785.592	6552.88
785.851	4614.88
786.109	3530.88
786.368	2770.88
786.626	2267.88
786.884	1886.88
787.143	1616.88
787.401	1330.88
787.659	1213.88
787.917	1044.88
788.175	945.88
788.433	845.88
788.691	766.88
788.949	724.88
789.207	701.88
789.465	605.88
789.723	597.88
789.98	549.88
790.238	583.88
790.496	548.88
790.753	531.88
791.011	581.88
791.268	522.88
791.526	502.88
791.783	527.88
792.041	513.88
792.298	425.88
792.556	489.88
792.813	469.88
793.07	451.88
793.327	429.88
793.584	517.88
793.841	432.88
794.099	464.88
794.356	519.88
794.613	424.88
794.869	455.88
795.126	427.88
795.383	398.88
795.64	415.88
795.897	389.88
796.153	439.88
796.41	429.88
796.667	408.88
796.923	416.88
797.18	442.88
797.436	453.88
797.693	421.88
797.949	453.88
798.206	493.88
798.462	421.88
798.718	477.88
798.974	441.88
799.231	482.88
799.487	493.88
799.743	491.88
799.999	522.88
800.255	520.88
800.511	526.88
800.767	542.88
801.023	551.88
801.279	604.88
801.534	636.88
801.79	720.88
802.046	745.88
802.302	911.88
802.557	1100.88
802.813	1408.88
803.068	1841.88
803.324	2626.88
803.579	3658.88
803.835	5107.88
804.09	6868.88
804.345	8769.88
804.601	10659.88
804.856	12365.88
805.111	13773.88
805.366	14607.88
805.621	15322.88
805.876	15682.88
806.131	16053.88
806.386	16216.88
806.641	16446.88
806.896	16659.88
807.151	17018.88
807.406	17197.88
807.661	17580.88
807.915	17869.88
808.17	18026.88
808.425	18330.88
808.679	18506.88
808.934	18808.88
809.188	19031.88
809.443	19233.88
809.697	19364.88
809.951	19561.88
810.206	19661.88
810.46	19898.88
810.714	20017.88
810.968	20197.88
811.223	20410.88
811.477	20532.88
811.731	20722.88
811.985	20713.88
812.239	20856.88
812.493	21071.88
812.747	21066.88
813	21148.88
813.254	21184.88
813.508	21453.88
813.762	21467.88
814.015	21581.88
814.269	21768.88
814.522	21904.88
814.776	22186.88
815.03	22428.88
815.283	22779.88
815.536	23048.88
815.79	23407.88
816.043	23740.88
816.296	23971.88
816.55	24232.88
816.803	24564.88
817.056	25041.88
817.309	25129.88
817.562	25373.88
817.815	25713.88
818.068	25899.88
818.321	26170.88
818.574	26627.88
818.827	26991.88
819.079	27305.88
819.332	27895.88
819.585	28173.88
819.838	28693.88
820.09	28778.88
820.343	28976.88
820.595	29114.88
820.848	29312.88
821.1	29388.88
821.353	29536.88
821.605	29461.88
821.857	29521.88
822.11	29396.88
822.362	29270.88
822.614	29257.88
822.866	29328.88
823.118	29420.88
823.37	29540.88
823.622	29583.88
823.874	29801.88
824.126	29842.88
824.378	29852.88
824.63	29921.88
824.882	30127.88
825.134	30021.88
825.385	29990.88
825.637	29872.88
825.888	29968.88
826.14	29901.88
826.392	29623.88
826.643	29513.88
826.895	29464.88
827.146	29427.88
827.397	29240.88
827.649	29400.88
827.9	29379.88
828.151	29423.88
828.402	29353.88
828.653	29478.88
828.905	29472.88
829.156	29642.88
829.407	29653.88
829.658	29824.88
829.909	29793.88
830.159	29834.88
830.41	29698.88
830.661	29423.88
830.912	29262.88
831.162	29289.88
831.413	29236.88
831.664	29134.88
831.914	29150.88
832.165	29024.88
832.415	29193.88
832.666	29264.88
832.916	29155.88
833.167	29068.88
833.417	29088.88
833.667	29054.88
833.917	28967.88
834.168	28979.88
834.418	28945.88
834.668	28650.88
834.918	28568.88
835.168	28548.88
835.418	28303.88
835.668	28350.88
835.918	28177.88
836.167	28228.88
836.417	28102.88
836.667	28182.88
836.917	28160.88
837.166	28126.88
837.416	28185.88
837.666	28220.88
837.915	28067.88
838.165	28081.88
838.414	27845.88
838.663	27860.88
838.913	27941.88
839.162	27828.88
839.411	27807.88
839.661	27773.88
839.91	27825.88
840.159	27702.88
840.408	27721.88
840.657	27611.88
840.906	27717.88
841.155	27748.88
841.404	27639.88
841.653	27712.88
841.902	27898.88
842.15	27988.88
842.399	27981.88
842.648	27701.88
842.897	27569.88
843.145	27478.88
843.394	27496.88
843.642	27240.88
843.891	27206.88
844.139	27030.88
844.388	26840.88
844.636	26756.88
844.884	26765.88
845.133	26687.88
845.381	26768.88
845.629	26688.88
845.877	26797.88
846.125	26782.88
846.373	26655.88
846.621	26504.88
846.869	26494.88
847.117	26361.88
847.365	26183.88
847.613	26039.88
847.861	26062.88
848.108	26061.88
848.356	26094.88
848.604	25899.88
848.851	26091.88
849.099	26087.88
849.346	26185.88
849.594	26251.88
849.841	26285.88
850.089	26411.88
850.336	26441.88
850.583	26481.88
850.831	26239.88
851.078	26131.88
851.325	26058.88
851.572	26094.88
851.819	25831.88
852.066	25393.88
852.313	25023.88
852.56	24923.88
852.807	24835.88
853.054	24759.88
853.301	24852.88
853.548	24885.88
853.794	24899.88
854.041	25022.88
854.288	25250.88
854.534	25426.88
854.781	25351.88
855.028	25312.88
855.274	25272.88
855.52	25147.88
855.767	25204.88
856.013	25239.88
856.26	25612.88
856.506	24920.88
856.752	24849.88
856.998	24917.88
857.244	24838.88
857.49	25099.88
857.736	25212.88
857.982	25174.88
858.228	25011.88
858.474	24892.88
858.72	24626.88
858.966	24376.88
859.212	24279.88
859.458	23904.88
859.703	23717.88
859.949	23460.88
860.195	23476.88
860.44	23243.88
860.686	23285.88
860.931	23225.88
861.177	23054.88
861.422	22973.88
861.667	22928.88
861.913	22814.88
862.158	22945.88
862.403	23006.88
862.648	22992.88
862.893	23003.88
863.138	22970.88
863.384	22996.88
863.629	22891.88
863.873	22936.88
864.118	22747.88
864.363	22602.88
864.608	22586.88
864.853	22421.88
865.098	22349.88
865.342	22269.88
865.587	22173.88
865.832	22162.88
866.076	22133.88
866.321	22091.88
866.565	21955.88
866.81	21837.88
867.054	21911.88
867.298	21789.88
867.543	21745.88
867.787	21868.88
868.031	21769.88
868.275	21768.88
868.519	21752.88
868.764	21617.88
869.008	21723.88
869.252	21711.88
869.496	21529.88
869.739	21646.88
869.983	21692.88
870.227	21668.88
870.471	21725.88
870.715	21753.88
870.958	21836.88
871.202	21933.88
871.446	22051.88
871.689	21968.88
871.933	21876.88
872.176	21869.88
872.42	21800.88
872.663	21922.88
872.906	21892.88
873.15	21918.88
873.393	21823.88
873.636	21845.88
873.879	21602.88
874.122	21264.88
874.366	21029.88
874.609	20750.88
874.852	20653.88
875.095	20520.88
875.337	20377.88
875.58	20192.88
875.823	20341.88
876.066	20267.88
876.309	20308.88
876.551	20050.88
876.794	19978.88
877.037	19920.88
877.279	19851.88
877.522	19852.88
877.764	19891.88
878.007	19892.88
878.249	19857.88
878.491	19766.88
878.734	19844.88
878.976	19725.88
879.218	19571.88
879.46	19499.88
879.702	19298.88
879.945	19129.88
880.187	18933.88
880.429	18887.88
880.671	18796.88
880.912	18759.88
881.154	18727.88
881.396	18562.88
881.638	18700.88
881.88	18675.88
882.121	18554.88
882.363	18622.88
882.605	18621.88
882.846	18544.88
883.088	18554.88
883.329	18694.88
883.571	18806.88
883.812	19079.88
884.053	19560.88
884.295	19967.88
884.536	20295.88
884.777	20055.88
885.018	19781.88
885.259	19679.88
885.5	19469.88
885.742	19627.88
885.982	19525.88
886.223	19195.88
886.464	19099.88
886.705	18851.88
886.946	18595.88
887.187	18335.88
887.428	18161.88
887.668	17721.88
887.909	17530.88
888.15	17328.88
888.39	17073.88
888.631	17086.88
888.871	16889.88
889.111	16800.88
889.352	16582.88
889.592	16526.88
889.833	16397.88
890.073	16383.88
890.313	16311.88
890.553	16009.88
890.793	16085.88
891.033	16033.88
891.273	15937.88
891.513	15858.88
891.753	15840.88
891.993	15710.88
892.233	15800.88
892.473	15870.88
892.713	15893.88
892.952	15890.88
893.192	15886.88
893.432	15760.88
893.671	15805.88
893.911	15715.88
894.15	15557.88
894.39	15470.88
894.629	15335.88
894.869	15306.88
895.108	15232.88
895.347	15088.88
895.587	15257.88
895.826	15103.88
896.065	14983.88
896.304	14981.88
896.543	15055.88
896.782	15002.88
897.021	15020.88
897.26	14880.88
897.499	14954.88
897.738	14841.88
897.977	14772.88
898.216	14733.88
898.454	14533.88
898.693	14476.88
898.932	14519.88
899.17	14415.88
899.409	14294.88
899.647	14453.88
899.886	14315.88
900.124	14449.88
900.363	14372.88
900.601	14370.88
900.839	14430.88
901.078	14557.88
901.316	14660.88
901.554	14743.88
901.792	14782.88
902.03	14894.88
902.268	14721.88
902.506	14610.88
902.744	14556.88
902.982	14540.88
903.22	14308.88
903.458	14099.88
903.695	13840.88
903.933	13746.88
904.171	13362.88
904.409	13271.88
904.646	13153.88
904.884	12950.88
905.121	12887.88
905.359	12669.88
905.596	12561.88
905.833	12517.88
906.071	12450.88
906.308	12410.88
906.545	12331.88
906.783	12399.88
907.02	12354.88
907.257	12292.88
907.494	12261.88
907.731	12231.88
907.968	12182.88
908.205	12117.88
908.442	12045.88
908.679	12011.88
908.915	11876.88
909.152	11785.88
909.389	11632.88
909.626	11641.88
909.862	11561.88
910.099	11493.88
910.335	11404.88
910.572	11368.88
910.808	11361.88
911.045	11321.88
911.281	11254.88
911.518	11263.88
911.754	11148.88
911.99	11081.88
912.226	10991.88
912.463	10939.88
912.699	10852.88
912.935	10841.88
913.171	10794.88
913.407	10573.88
913.643	10653.88
913.879	10493.88
914.114	10444.88
914.35	10292.88
914.586	10193.88
914.822	10080.88
915.057	10216.88
915.293	9954.88
915.529	9995.88
915.764	10009.88
916	9952.88
916.235	9927.88
916.471	9948.88
916.706	9865.88
916.941	9838.88
917.177	9770.88
917.412	9920.88
917.647	9853.88
917.882	9745.88
918.117	9792.88
918.352	9707.88
918.588	9715.88
918.823	9620.88
919.057	9540.88
919.292	9351.88
919.527	9447.88
919.762	9241.88
919.997	9262.88
920.232	9070.88
920.466	9029.88
920.701	8920.88
920.935	8936.88
921.17	8855.88
921.405	8816.88
921.639	8813.88
921.873	8771.88
922.108	8704.88
922.342	8739.88
922.576	8656.88
922.811	8601.88
923.045	8662.88
923.279	8646.88
923.513	8439.88
923.747	8562.88
923.981	8468.88
924.215	8338.88
924.449	8342.88
924.683	8293.88
924.917	8182.88
925.151	8170.88
925.385	8259.88
925.618	8218.88
925.852	8150.88
926.086	8099.88
926.319	8121.88
926.553	8153.88
926.786	8068.88
927.02	8100.88
927.253	8149.88
927.486	8038.88
927.72	8055.88
927.953	8067.88
928.186	8017.88
928.42	8036.88
928.653	7930.88
928.886	7869.88
929.119	7876.88
929.352	7825.88
929.585	7735.88
929.818	7680.88
930.051	7640.88
930.284	7685.88
930.516	7528.88
930.749	7452.88
930.982	7443.88
931.215	7453.88
931.447	7316.88
931.68	7401.88
931.912	7369.88
932.145	7294.88
932.377	7347.88
932.61	7449.88
932.842	7283.88
933.074	7447.88
933.307	7311.88
933.539	7360.88
933.771	7352.88
934.003	7324.88
934.236	7410.88
934.468	7355.88
934.7	7275.88
934.932	7305.88
935.164	7215.88
935.395	7179.88
935.627	7177.88
935.859	7163.88
936.091	7111.88
936.323	7119.88
936.554	7100.88
936.786	7044.88
937.017	7089.88
937.249	7005.88
937.481	6910.88
937.712	6975.88
937.943	6955.88
938.175	6986.88
938.406	6940.88
938.637	7016.88
938.869	6831.88
939.1	6977.88
939.331	6851.88
939.562	6902.88
939.793	6861.88
940.024	6855.88
940.255	6839.88
940.486	6762.88
940.717	6746.88
940.948	6774.88
941.179	6667.88
941.409	6680.88
941.64	6669.88
941.871	6630.88
942.102	6581.88
942.332	6641.88
942.563	6656.88
942.793	6657.88
943.024	6613.88
943.254	6580.88
943.484	6711.88
943.715	6671.88
943.945	6574.88
944.175	6529.88
944.405	6555.88
944.636	6567.88
944.866	6551.88
945.096	6550.88
945.326	6399.88
945.556	6483.88
945.786	6525.88
946.016	6434.88
946.245	6379.88
946.475	6353.88
946.705	6350.88
946.935	6288.88
947.164	6292.88
947.394	6191.88
947.624	6169.88
947.853	6222.88
948.083	6161.88
948.312	6124.88
948.542	6062.88
948.771	6036.88
949	6084.88
949.23	6041.88
949.459	6066.88
949.688	6118.88
949.917	6000.88
950.146	6036.88
950.375	6091.88
950.604	5951.88
950.833	6092.88
951.062	6082.88
951.291	5969.88
951.52	5960.88
951.749	5912.88
951.978	5909.88
952.206	5948.88
952.435	5899.88
952.664	5891.88
952.892	5895.88
953.121	5846.88
953.349	5809.88
953.578	5866.88
953.806	5803.88
954.035	5719.88
954.263	5724.88
954.491	5658.88
954.719	5655.88
954.948	5614.88
955.176	5615.88
955.404	5533.88
955.632	5598.88
955.86	5540.88
956.088	5530.88
956.316	5508.88
956.544	5521.88
956.772	5477.88
956.999	5401.88
957.227	5467.88
957.455	5365.88
957.683	5384.88
957.91	5270.88
958.138	5264.88
958.365	5237.88
958.593	5251.88
958.82	5191.88
959.048	5257.88
959.275	5170.88
959.502	5154.88
959.73	5137.88
959.957	5202.88
960.184	5161.88
960.411	5135.88
960.638	5201.88
960.865	5105.88
961.092	5095.88
961.319	5025.88
961.546	5124.88
961.773	5143.88
962	5061.88
962.227	5128.88
962.454	5071.88
962.68	5021.88
962.907	4990.88
963.134	4956.88
963.36	4940.88
963.587	4969.88
963.813	4879.88
964.04	4868.88
964.266	4792.88
964.493	4886.88
964.719	4811.88
964.945	4829.88
965.171	4661.88
965.398	4739.88
965.624	4730.88
965.85	4661.88
966.076	4618.88
966.302	4662.88
966.528	4663.88
966.754	4641.88
966.98	4565.88
967.206	4585.88
967.431	4565.88
967.657	4597.88
967.883	4598.88
968.109	4569.88
968.334	4470.88
968.56	4463.88
968.785	4483.88
969.011	4450.88
969.236	4475.88
969.462	4451.88
969.687	4413.88
969.912	4475.88
970.138	4462.88
970.363	4367.88
970.588	4366.88
970.813	4351.88
971.038	4367.88
971.263	4384.88
971.488	4355.88
971.713	4322.88
971.938	4291.88
972.163	4224.88
972.388	4251.88
972.613	4205.88
972.838	4200.88
973.062	4169.88
973.287	4148.88
973.512	4078.88
973.736	4116.88
973.961	4054.88
974.185	4030.88
974.41	4084.88
974.634	3969.88
974.858	3997.88
975.083	4015.88
975.307	3972.88
975.531	3916.88
975.755	3831.88
975.98	3912.88
976.204	3829.88
976.428	3805.88
976.652	3783.88
976.876	3776.88
977.1	3744.88
977.324	3750.88
977.547	3806.88
977.771	3753.88
977.995	3711.88
978.219	3669.88
978.442	3788.88
978.666	3707.88
978.89	3750.88
979.113	3683.88
979.337	3710.88
979.56	3653.88
979.783	3756.88
980.007	3620.88
980.23	3593.88
980.453	3573.88
980.677	3605.88
980.9	3617.88
981.123	3474.88
981.346	3553.88
981.569	3511.88
981.792	3529.88
982.015	3521.88
982.238	3425.88
982.461	3465.88
982.684	3425.88
982.907	3388.88
983.129	3379.88
983.352	3373.88
983.575	3391.88
983.797	3377.88
984.02	3316.88
984.242	3315.88
984.465	3353.88
984.687	3320.88
984.91	3328.88
985.132	3310.88
985.354	3341.88
985.577	3273.88
985.799	3234.88
986.021	3166.88
986.243	3189.88
986.465	3210.88
986.687	3235.88
986.909	3241.88
987.131	3195.88
987.353	3120.88
987.575	3171.88
987.797	3120.88
988.019	3062.88
988.241	3138.88
988.462	3076.88
988.684	3131.88
988.906	3143.88
989.127	3137.88
989.349	3044.88
989.57	3107.88
989.792	3090.88
990.013	3138.88
990.234	3116.88
990.456	3095.88
990.677	3121.88
990.898	3019.88
991.119	2996.88
991.341	3029.88
991.562	2957.88
991.783	2986.88
992.004	2925.88
992.225	2913.88
992.446	2939.88
992.667	2833.88
992.887	2906.88
993.108	2786.88
993.329	2921.88
993.55	2850.88
993.77	2753.88
993.991	2829.88
994.212	2861.88
994.432	2781.88
994.653	2797.88
994.873	2810.88
995.093	2628.88
995.314	2692.88
995.534	2743.88
995.754	2772.88
995.975	2811.88
996.195	2675.88
996.415	2763.88
996.635	2748.88
996.855	2720.88
997.075	2707.88
997.295	2712.88
997.515	2718.88
997.735	2747.88
997.955	2750.88
998.174	2697.88
998.394	2665.88
998.614	2668.88
998.834	2644.88
999.053	2719.88
999.273	2655.88
999.492	2731.88
999.712	2612.88
999.931	2596.88
1000.151	2620.88
1000.37	2571.88
1000.589	2654.88
1000.809	2505.88
1001.028	2625.88
1001.247	2551.88
1001.466	2421.88
1001.685	2576.88
1001.904	2497.88
1002.123	2509.88
1002.342	2468.88
1002.561	2403.88
1002.78	2436.88
1002.999	2499.88
1003.218	2433.88
1003.436	2402.88
1003.655	2413.88
1003.874	2351.88
1004.092	2365.88
1004.311	2400.88
1004.53	2374.88
1004.748	2431.88
1004.966	2352.88
1005.185	2413.88
1005.403	2384.88
1005.622	2391.88
1005.84	2437.88
1006.058	2348.88
1006.276	2363.88
1006.494	2733.88
1006.712	2353.88
1006.931	2443.88
1007.149	2353.88
1007.367	2393.88
1007.584	2428.88
1007.802	2482.88
1008.02	2441.88
1008.238	2545.88
1008.456	2606.88
1008.673	2484.88
1008.891	2595.88
1009.109	2563.88
1009.326	2703.88
1009.544	2794.88
1009.761	2818.88
1009.979	2969.88
1010.196	3089.88
1010.413	3285.88
1010.631	3459.88
1010.848	3538.88
1011.065	3575.88
1011.282	3507.88
1011.5	3444.88
1011.717	3536.88
1011.934	3425.88
1012.151	3472.88
1012.368	3405.88
1012.585	3396.88
1012.801	3439.88
1013.018	3402.88
1013.235	3413.88
1013.452	3434.88
1013.669	3430.88
1013.885	3503.88
1014.102	3492.88
1014.318	3547.88
1014.535	3487.88
1014.751	3462.88
1014.968	3420.88
1015.184	3428.88
1015.401	3264.88
1015.617	3292.88
1015.833	3246.88
1016.049	3183.88
1016.266	3131.88
1016.482	3162.88
1016.698	3039.88
1016.914	3073.88
1017.13	2980.88
1017.346	2961.88
1017.562	3065.88
1017.778	2954.88
1017.993	2864.88
1018.209	2936.88
1018.425	2882.88
1018.641	2901.88
1018.856	2816.88
1019.072	2861.88
1019.288	2890.88
1019.503	2815.88
1019.719	2756.88
1019.934	2758.88
1020.149	2824.88
1020.365	2705.88
1020.58	2629.88
1020.795	2623.88
1021.011	2529.88
1021.226	2437.88
1021.441	2442.88
1021.656	2335.88
1021.871	2222.88
1022.086	2238.88
1022.301	2168.88
1022.516	2153.88
1022.731	2167.88
1022.946	2047.88
1023.16	2024.88
1023.375	1982.88
1023.59	1918.88
1023.804	1856.88
1024.019	1923.88
1024.234	1762.88
1024.448	1779.88
1024.663	1668.88
1024.877	1695.88
1025.092	1677.88
1025.306	1648.88
1025.52	1542.88
1025.734	1617.88
1025.949	1518.88
1026.163	1451.88
1026.377	1384.88
1026.591	1407.88
1026.805	1325.88
1027.019	1328.88
1027.233	1273.88
1027.447	1212.88
1027.661	1301.88
1027.875	1246.88
1028.088	1250.88
1028.302	1121.88
1028.516	1121.88
1028.73	1120.88
1028.943	1070.88
1029.157	1004.88
1029.37	938.88
1029.584	-3.12
1029.797	-1.12
1030.011	-2.12
1030.224	-0.12
