Data from QEP037381__26__10-26-40-305.txt Node

Date: Fri Apr 28 10:26:40 EDT 2023
User: dcclab
Spectrometer: QEP03738
Trigger mode: 4
Integration Time (sec): 1.000000E1
Scans to average: 1
Electric dark correction enabled: true
Nonlinearity correction enabled: false
Boxcar width: 0
XAxis mode: Wavelengths
Number of Pixels in Spectrum: 1044
>>>>>Begin Spectral Data<<<<<
784.041	12.88
784.3	0.88
784.558	-2.12
784.817	-4.12
785.075	63100.88
785.334	12741.88
785.592	6739.88
785.851	4741.88
786.109	3586.88
786.368	2826.88
786.626	2318.88
786.884	1898.88
787.143	1653.88
787.401	1363.88
787.659	1227.88
787.917	1043.88
788.175	982.88
788.433	874.88
788.691	784.88
788.949	728.88
789.207	694.88
789.465	614.88
789.723	609.88
789.98	546.88
790.238	599.88
790.496	549.88
790.753	518.88
791.011	587.88
791.268	521.88
791.526	501.88
791.783	539.88
792.041	498.88
792.298	432.88
792.556	494.88
792.813	478.88
793.07	461.88
793.327	452.88
793.584	516.88
793.841	448.88
794.099	466.88
794.356	512.88
794.613	448.88
794.869	469.88
795.126	440.88
795.383	428.88
795.64	431.88
795.897	391.88
796.153	466.88
796.41	448.88
796.667	420.88
796.923	438.88
797.18	430.88
797.436	460.88
797.693	440.88
797.949	478.88
798.206	515.88
798.462	418.88
798.718	483.88
798.974	477.88
799.231	506.88
799.487	499.88
799.743	518.88
799.999	552.88
800.255	563.88
800.511	545.88
800.767	588.88
801.023	596.88
801.279	643.88
801.534	731.88
801.79	778.88
802.046	861.88
802.302	1079.88
802.557	1280.88
802.813	1659.88
803.068	2199.88
803.324	3161.88
803.579	4494.88
803.835	6255.88
804.09	8481.88
804.345	10716.88
804.601	13202.88
804.856	15166.88
805.111	16751.88
805.366	17718.88
805.621	18542.88
805.876	19024.88
806.131	19404.88
806.386	19760.88
806.641	20120.88
806.896	20422.88
807.151	20719.88
807.406	21042.88
807.661	21471.88
807.915	21800.88
808.17	21970.88
808.425	22322.88
808.679	22628.88
808.934	22846.88
809.188	23088.88
809.443	23457.88
809.697	23690.88
809.951	23891.88
810.206	24007.88
810.46	24292.88
810.714	24454.88
810.968	24669.88
811.223	24904.88
811.477	25105.88
811.731	25229.88
811.985	25424.88
812.239	25465.88
812.493	25731.88
812.747	25777.88
813	25775.88
813.254	26121.88
813.508	26187.88
813.762	26397.88
814.015	26283.88
814.269	26541.88
814.522	26776.88
814.776	27170.88
815.03	27408.88
815.283	27925.88
815.536	28279.88
815.79	28633.88
816.043	28981.88
816.296	29453.88
816.55	29895.88
816.803	30200.88
817.056	30583.88
817.309	30956.88
817.562	31090.88
817.815	31532.88
818.068	31901.88
818.321	32221.88
818.574	32686.88
818.827	33257.88
819.079	33651.88
819.332	34092.88
819.585	34757.88
819.838	35270.88
820.09	35395.88
820.343	35569.88
820.595	35727.88
820.848	36140.88
821.1	36343.88
821.353	36206.88
821.605	36079.88
821.857	36152.88
822.11	36024.88
822.362	36003.88
822.614	35927.88
822.866	35955.88
823.118	36001.88
823.37	36302.88
823.622	36480.88
823.874	36490.88
824.126	36582.88
824.378	36529.88
824.63	36838.88
824.882	36914.88
825.134	36862.88
825.385	36897.88
825.637	36750.88
825.888	36746.88
826.14	36730.88
826.392	36596.88
826.643	36405.88
826.895	36292.88
827.146	36201.88
827.397	36033.88
827.649	36190.88
827.9	36015.88
828.151	36140.88
828.402	36187.88
828.653	36340.88
828.905	36387.88
829.156	36449.88
829.407	36609.88
829.658	36574.88
829.909	36797.88
830.159	36776.88
830.41	36522.88
830.661	36300.88
830.912	36144.88
831.162	36036.88
831.413	35929.88
831.664	35985.88
831.914	35825.88
832.165	35857.88
832.415	35930.88
832.666	35836.88
832.916	36083.88
833.167	35910.88
833.417	35912.88
833.667	35779.88
833.917	35710.88
834.168	35591.88
834.418	35505.88
834.668	35509.88
834.918	35329.88
835.168	35142.88
835.418	34978.88
835.668	34892.88
835.918	34843.88
836.167	34785.88
836.417	34690.88
836.667	34762.88
836.917	34658.88
837.166	34713.88
837.416	34711.88
837.666	34798.88
837.915	34800.88
838.165	34622.88
838.414	34528.88
838.663	34444.88
838.913	34474.88
839.162	34401.88
839.411	34456.88
839.661	34190.88
839.91	34211.88
840.159	34186.88
840.408	34144.88
840.657	34171.88
840.906	34149.88
841.155	34227.88
841.404	34298.88
841.653	34241.88
841.902	34213.88
842.15	34483.88
842.399	34438.88
842.648	34306.88
842.897	34251.88
843.145	34000.88
843.394	33880.88
843.642	33861.88
843.891	33491.88
844.139	33257.88
844.388	33142.88
844.636	32932.88
844.884	33183.88
845.133	33040.88
845.381	33021.88
845.629	33124.88
845.877	32875.88
846.125	32999.88
846.373	32913.88
846.621	32838.88
846.869	32786.88
847.117	32493.88
847.365	32325.88
847.613	32309.88
847.861	32250.88
848.108	32452.88
848.356	32331.88
848.604	32175.88
848.851	32275.88
849.099	32199.88
849.346	32327.88
849.594	32356.88
849.841	32527.88
850.089	32560.88
850.336	32698.88
850.583	32661.88
850.831	32430.88
851.078	32235.88
851.325	32205.88
851.572	32192.88
851.819	31869.88
852.066	31288.88
852.313	30930.88
852.56	30789.88
852.807	30688.88
853.054	30539.88
853.301	30567.88
853.548	30653.88
853.794	30818.88
854.041	31052.88
854.288	31080.88
854.534	31411.88
854.781	31326.88
855.028	31323.88
855.274	31207.88
855.52	31091.88
855.767	31154.88
856.013	31180.88
856.26	31404.88
856.506	30817.88
856.752	30757.88
856.998	30740.88
857.244	30806.88
857.49	31048.88
857.736	31119.88
857.982	31074.88
858.228	30801.88
858.474	30470.88
858.72	30376.88
858.966	30064.88
859.212	29749.88
859.458	29522.88
859.703	29303.88
859.949	29105.88
860.195	28886.88
860.44	28963.88
860.686	28904.88
860.931	28783.88
861.177	28611.88
861.422	28394.88
861.667	28200.88
861.913	28309.88
862.158	28330.88
862.403	28354.88
862.648	28539.88
862.893	28493.88
863.138	28445.88
863.384	28294.88
863.629	28247.88
863.873	28186.88
864.118	28295.88
864.363	27894.88
864.608	27854.88
864.853	27795.88
865.098	27619.88
865.342	27523.88
865.587	27396.88
865.832	27456.88
866.076	27334.88
866.321	27265.88
866.565	27208.88
866.81	27092.88
867.054	26952.88
867.298	26964.88
867.543	26919.88
867.787	27001.88
868.031	26927.88
868.275	26843.88
868.519	26939.88
868.764	26789.88
869.008	26791.88
869.252	26848.88
869.496	26693.88
869.739	26832.88
869.983	26769.88
870.227	26770.88
870.471	26775.88
870.715	26971.88
870.958	26928.88
871.202	26934.88
871.446	27084.88
871.689	27023.88
871.933	27112.88
872.176	27093.88
872.42	26892.88
872.663	26881.88
872.906	26831.88
873.15	27056.88
873.393	26978.88
873.636	26793.88
873.879	26506.88
874.122	26098.88
874.366	25771.88
874.609	25705.88
874.852	25444.88
875.095	25381.88
875.337	25166.88
875.58	25016.88
875.823	25070.88
876.066	24914.88
876.309	24868.88
876.551	24659.88
876.794	24689.88
877.037	24621.88
877.279	24518.88
877.522	24545.88
877.764	24562.88
878.007	24500.88
878.249	24398.88
878.491	24421.88
878.734	24462.88
878.976	24339.88
879.218	24179.88
879.46	23963.88
879.702	23824.88
879.945	23629.88
880.187	23392.88
880.429	23238.88
880.671	23188.88
880.912	23020.88
881.154	23074.88
881.396	22967.88
881.638	23061.88
881.88	22996.88
882.121	22957.88
882.363	22955.88
882.605	22942.88
882.846	22867.88
883.088	22853.88
883.329	22891.88
883.571	23001.88
883.812	23407.88
884.053	23928.88
884.295	24341.88
884.536	24665.88
884.777	24568.88
885.018	24127.88
885.259	24154.88
885.5	23897.88
885.742	23950.88
885.982	23884.88
886.223	23586.88
886.464	23455.88
886.705	23175.88
886.946	22875.88
887.187	22421.88
887.428	22318.88
887.668	21827.88
887.909	21551.88
888.15	21298.88
888.39	21146.88
888.631	20922.88
888.871	20848.88
889.111	20747.88
889.352	20586.88
889.592	20303.88
889.833	20194.88
890.073	20110.88
890.313	20041.88
890.553	19749.88
890.793	19809.88
891.033	19777.88
891.273	19598.88
891.513	19533.88
891.753	19629.88
891.993	19404.88
892.233	19671.88
892.473	19589.88
892.713	19620.88
892.952	19526.88
893.192	19611.88
893.432	19554.88
893.671	19535.88
893.911	19281.88
894.15	19244.88
894.39	19052.88
894.629	19018.88
894.869	18899.88
895.108	18783.88
895.347	18704.88
895.587	18620.88
895.826	18562.88
896.065	18521.88
896.304	18520.88
896.543	18547.88
896.782	18389.88
897.021	18508.88
897.26	18350.88
897.499	18337.88
897.738	18293.88
897.977	18167.88
898.216	18094.88
898.454	17952.88
898.693	17832.88
898.932	17838.88
899.17	17805.88
899.409	17671.88
899.647	17665.88
899.886	17543.88
900.124	17753.88
900.363	17637.88
900.601	17767.88
900.839	17816.88
901.078	17883.88
901.316	17890.88
901.554	18080.88
901.792	18125.88
902.03	17996.88
902.268	18063.88
902.506	18011.88
902.744	17889.88
902.982	17741.88
903.22	17525.88
903.458	17320.88
903.695	16994.88
903.933	16780.88
904.171	16520.88
904.409	16246.88
904.646	16160.88
904.884	15943.88
905.121	15781.88
905.359	15566.88
905.596	15479.88
905.833	15375.88
906.071	15201.88
906.308	15241.88
906.545	15195.88
906.783	15092.88
907.02	15178.88
907.257	15058.88
907.494	15108.88
907.731	15050.88
907.968	14945.88
908.205	14894.88
908.442	14793.88
908.679	14727.88
908.915	14726.88
909.152	14477.88
909.389	14368.88
909.626	14247.88
909.862	14168.88
910.099	14124.88
910.335	14141.88
910.572	13976.88
910.808	13945.88
911.045	13970.88
911.281	13771.88
911.518	13897.88
911.754	13751.88
911.99	13642.88
912.226	13556.88
912.463	13446.88
912.699	13361.88
912.935	13302.88
913.171	13178.88
913.407	13017.88
913.643	13028.88
913.879	12895.88
914.114	12873.88
914.35	12592.88
914.586	12594.88
914.822	12327.88
915.057	12402.88
915.293	12206.88
915.529	12254.88
915.764	12286.88
916	12179.88
916.235	12088.88
916.471	12160.88
916.706	12036.88
916.941	12122.88
917.177	12082.88
917.412	12078.88
917.647	12105.88
917.882	12005.88
918.117	12034.88
918.352	11980.88
918.588	11956.88
918.823	11785.88
919.057	11671.88
919.292	11455.88
919.527	11485.88
919.762	11309.88
919.997	11261.88
920.232	11153.88
920.466	11127.88
920.701	10914.88
920.935	10966.88
921.17	10825.88
921.405	10717.88
921.639	10796.88
921.873	10697.88
922.108	10642.88
922.342	10707.88
922.576	10620.88
922.811	10539.88
923.045	10584.88
923.279	10530.88
923.513	10389.88
923.747	10366.88
923.981	10338.88
924.215	10213.88
924.449	10232.88
924.683	10112.88
924.917	10114.88
925.151	10047.88
925.385	10118.88
925.618	9965.88
925.852	9961.88
926.086	9947.88
926.319	9851.88
926.553	9908.88
926.786	9873.88
927.02	9875.88
927.253	9814.88
927.486	9803.88
927.72	9786.88
927.953	9830.88
928.186	9748.88
928.42	9693.88
928.653	9630.88
928.886	9590.88
929.119	9574.88
929.352	9521.88
929.585	9510.88
929.818	9388.88
930.051	9277.88
930.284	9229.88
930.516	9119.88
930.749	9070.88
930.982	9100.88
931.215	9025.88
931.447	8999.88
931.68	8964.88
931.912	8971.88
932.145	8924.88
932.377	8963.88
932.61	9068.88
932.842	8850.88
933.074	8978.88
933.307	8830.88
933.539	9042.88
933.771	8980.88
934.003	8910.88
934.236	8977.88
934.468	8965.88
934.7	8843.88
934.932	8772.88
935.164	8733.88
935.395	8797.88
935.627	8783.88
935.859	8683.88
936.091	8637.88
936.323	8634.88
936.554	8711.88
936.786	8619.88
937.017	8472.88
937.249	8554.88
937.481	8463.88
937.712	8544.88
937.943	8465.88
938.175	8434.88
938.406	8426.88
938.637	8463.88
938.869	8384.88
939.1	8439.88
939.331	8314.88
939.562	8332.88
939.793	8320.88
940.024	8302.88
940.255	8303.88
940.486	8177.88
940.717	8142.88
940.948	8165.88
941.179	8038.88
941.409	8089.88
941.64	8042.88
941.871	8042.88
942.102	8011.88
942.332	8049.88
942.563	8074.88
942.793	8096.88
943.024	8021.88
943.254	7992.88
943.484	8046.88
943.715	8012.88
943.945	7975.88
944.175	7902.88
944.405	7908.88
944.636	7916.88
944.866	7931.88
945.096	7887.88
945.326	7861.88
945.556	7858.88
945.786	7837.88
946.016	7728.88
946.245	7653.88
946.475	7638.88
946.705	7653.88
946.935	7658.88
947.164	7607.88
947.394	7550.88
947.624	7493.88
947.853	7488.88
948.083	7442.88
948.312	7361.88
948.542	7333.88
948.771	7282.88
949	7308.88
949.23	7289.88
949.459	7338.88
949.688	7401.88
949.917	7276.88
950.146	7325.88
950.375	7293.88
950.604	7220.88
950.833	7312.88
951.062	7312.88
951.291	7139.88
951.52	7222.88
951.749	7196.88
951.978	7174.88
952.206	7164.88
952.435	7104.88
952.664	7031.88
952.892	7088.88
953.121	7090.88
953.349	7057.88
953.578	7051.88
953.806	6976.88
954.035	6890.88
954.263	6901.88
954.491	6757.88
954.719	6859.88
954.948	6765.88
955.176	6779.88
955.404	6692.88
955.632	6706.88
955.86	6679.88
956.088	6648.88
956.316	6630.88
956.544	6567.88
956.772	6574.88
956.999	6489.88
957.227	6544.88
957.455	6412.88
957.683	6460.88
957.91	6394.88
958.138	6291.88
958.365	6371.88
958.593	6280.88
958.82	6216.88
959.048	6281.88
959.275	6234.88
959.502	6169.88
959.73	6186.88
959.957	6187.88
960.184	6244.88
960.411	6143.88
960.638	6233.88
960.865	6133.88
961.092	6172.88
961.319	6032.88
961.546	6140.88
961.773	6170.88
962	6088.88
962.227	6097.88
962.454	6105.88
962.68	6055.88
962.907	6012.88
963.134	5915.88
963.36	5874.88
963.587	5874.88
963.813	5817.88
964.04	5823.88
964.266	5750.88
964.493	5790.88
964.719	5763.88
964.945	5741.88
965.171	5628.88
965.398	5653.88
965.624	5645.88
965.85	5541.88
966.076	5527.88
966.302	5604.88
966.528	5563.88
966.754	5471.88
966.98	5479.88
967.206	5439.88
967.431	5351.88
967.657	5447.88
967.883	5451.88
968.109	5397.88
968.334	5346.88
968.56	5310.88
968.785	5347.88
969.011	5296.88
969.236	5324.88
969.462	5237.88
969.687	5267.88
969.912	5258.88
970.138	5279.88
970.363	5210.88
970.588	5267.88
970.813	5181.88
971.038	5131.88
971.263	5172.88
971.488	5129.88
971.713	5113.88
971.938	5124.88
972.163	4988.88
972.388	5043.88
972.613	4971.88
972.838	5012.88
973.062	4903.88
973.287	4926.88
973.512	4825.88
973.736	4852.88
973.961	4811.88
974.185	4776.88
974.41	4817.88
974.634	4668.88
974.858	4743.88
975.083	4685.88
975.307	4736.88
975.531	4614.88
975.755	4567.88
975.98	4596.88
976.204	4488.88
976.428	4535.88
976.652	4527.88
976.876	4483.88
977.1	4430.88
977.324	4467.88
977.547	4481.88
977.771	4445.88
977.995	4409.88
978.219	4336.88
978.442	4477.88
978.666	4379.88
978.89	4372.88
979.113	4348.88
979.337	4322.88
979.56	4277.88
979.783	4349.88
980.007	4254.88
980.23	4241.88
980.453	4230.88
980.677	4260.88
980.9	4196.88
981.123	4105.88
981.346	4191.88
981.569	4164.88
981.792	4177.88
982.015	4108.88
982.238	4036.88
982.461	4072.88
982.684	3961.88
982.907	3958.88
983.129	3978.88
983.352	3983.88
983.575	3976.88
983.797	3954.88
984.02	3892.88
984.242	3905.88
984.465	3816.88
984.687	3854.88
984.91	3902.88
985.132	3835.88
985.354	3870.88
985.577	3796.88
985.799	3772.88
986.021	3703.88
986.243	3664.88
986.465	3721.88
986.687	3731.88
986.909	3773.88
987.131	3720.88
987.353	3699.88
987.575	3686.88
987.797	3674.88
988.019	3585.88
988.241	3638.88
988.462	3560.88
988.684	3636.88
988.906	3681.88
989.127	3652.88
989.349	3557.88
989.57	3529.88
989.792	3588.88
990.013	3548.88
990.234	3580.88
990.456	3600.88
990.677	3577.88
990.898	3480.88
991.119	3484.88
991.341	3509.88
991.562	3365.88
991.783	3460.88
992.004	3351.88
992.225	3304.88
992.446	3407.88
992.667	3260.88
992.887	3352.88
993.108	3238.88
993.329	3368.88
993.55	3310.88
993.77	3232.88
993.991	3209.88
994.212	3259.88
994.432	3173.88
994.653	3236.88
994.873	3176.88
995.093	3060.88
995.314	3097.88
995.534	3184.88
995.754	3188.88
995.975	3190.88
996.195	3084.88
996.415	3110.88
996.635	3103.88
996.855	3110.88
997.075	3061.88
997.295	3075.88
997.515	3054.88
997.735	3128.88
997.955	3099.88
998.174	3061.88
998.394	3046.88
998.614	3077.88
998.834	3029.88
999.053	3096.88
999.273	3013.88
999.492	3061.88
999.712	2978.88
999.931	2956.88
1000.151	2966.88
1000.37	2916.88
1000.589	2947.88
1000.809	2843.88
1001.028	2995.88
1001.247	2877.88
1001.466	2750.88
1001.685	2863.88
1001.904	2830.88
1002.123	2790.88
1002.342	2772.88
1002.561	2734.88
1002.78	2709.88
1002.999	2814.88
1003.218	2726.88
1003.436	2684.88
1003.655	2704.88
1003.874	2658.88
1004.092	2649.88
1004.311	2711.88
1004.53	2691.88
1004.748	2757.88
1004.966	2660.88
1005.185	2685.88
1005.403	2659.88
1005.622	2682.88
1005.84	2738.88
1006.058	2622.88
1006.276	2650.88
1006.494	3040.88
1006.712	2640.88
1006.931	2754.88
1007.149	2665.88
1007.367	2669.88
1007.584	2680.88
1007.802	2737.88
1008.02	2706.88
1008.238	2813.88
1008.456	2816.88
1008.673	2719.88
1008.891	2867.88
1009.109	2828.88
1009.326	2942.88
1009.544	3082.88
1009.761	3077.88
1009.979	3230.88
1010.196	3293.88
1010.413	3513.88
1010.631	3678.88
1010.848	3791.88
1011.065	3760.88
1011.282	3764.88
1011.5	3676.88
1011.717	3789.88
1011.934	3676.88
1012.151	3699.88
1012.368	3661.88
1012.585	3596.88
1012.801	3684.88
1013.018	3625.88
1013.235	3616.88
1013.452	3615.88
1013.669	3650.88
1013.885	3680.88
1014.102	3725.88
1014.318	3755.88
1014.535	3659.88
1014.751	3665.88
1014.968	3636.88
1015.184	3603.88
1015.401	3512.88
1015.617	3501.88
1015.833	3415.88
1016.049	3424.88
1016.266	3367.88
1016.482	3318.88
1016.698	3233.88
1016.914	3286.88
1017.13	3150.88
1017.346	3146.88
1017.562	3171.88
1017.778	3136.88
1017.993	3072.88
1018.209	3146.88
1018.425	3113.88
1018.641	3019.88
1018.856	3042.88
1019.072	3054.88
1019.288	3056.88
1019.503	3031.88
1019.719	2935.88
1019.934	2961.88
1020.149	2985.88
1020.365	2868.88
1020.58	2825.88
1020.795	2802.88
1021.011	2713.88
1021.226	2622.88
1021.441	2627.88
1021.656	2486.88
1021.871	2443.88
1022.086	2397.88
1022.301	2347.88
1022.516	2293.88
1022.731	2318.88
1022.946	2189.88
1023.16	2164.88
1023.375	2106.88
1023.59	2067.88
1023.804	2015.88
1024.019	2076.88
1024.234	1917.88
1024.448	1907.88
1024.663	1825.88
1024.877	1824.88
1025.092	1792.88
1025.306	1789.88
1025.52	1669.88
1025.734	1723.88
1025.949	1627.88
1026.163	1564.88
1026.377	1499.88
1026.591	1529.88
1026.805	1427.88
1027.019	1406.88
1027.233	1379.88
1027.447	1330.88
1027.661	1418.88
1027.875	1335.88
1028.088	1343.88
1028.302	1225.88
1028.516	1209.88
1028.73	1183.88
1028.943	1148.88
1029.157	1098.88
1029.37	1022.88
1029.584	-2.12
1029.797	-1.12
1030.011	-1.12
1030.224	-3.12
