Data from QEP037381__6__10-23-20-304.txt Node

Date: Fri Apr 28 10:23:20 EDT 2023
User: dcclab
Spectrometer: QEP03738
Trigger mode: 4
Integration Time (sec): 1.000000E1
Scans to average: 1
Electric dark correction enabled: true
Nonlinearity correction enabled: false
Boxcar width: 0
XAxis mode: Wavelengths
Number of Pixels in Spectrum: 1044
>>>>>Begin Spectral Data<<<<<
784.041	8.62
784.3	-0.38
784.558	1.62
784.817	1.62
785.075	68196.62
785.334	13491.62
785.592	6966.62
785.851	4911.62
786.109	3713.62
786.368	2909.62
786.626	2351.62
786.884	1972.62
787.143	1656.62
787.401	1360.62
787.659	1267.62
787.917	1097.62
788.175	983.62
788.433	884.62
788.691	799.62
788.949	725.62
789.207	721.62
789.465	636.62
789.723	610.62
789.98	565.62
790.238	589.62
790.496	567.62
790.753	536.62
791.011	582.62
791.268	520.62
791.526	500.62
791.783	529.62
792.041	517.62
792.298	439.62
792.556	491.62
792.813	484.62
793.07	447.62
793.327	451.62
793.584	526.62
793.841	441.62
794.099	480.62
794.356	537.62
794.613	432.62
794.869	478.62
795.126	429.62
795.383	426.62
795.64	443.62
795.897	388.62
796.153	477.62
796.41	444.62
796.667	424.62
796.923	444.62
797.18	440.62
797.436	468.62
797.693	445.62
797.949	490.62
798.206	514.62
798.462	441.62
798.718	487.62
798.974	482.62
799.231	530.62
799.487	521.62
799.743	531.62
799.999	573.62
800.255	552.62
800.511	549.62
800.767	619.62
801.023	599.62
801.279	653.62
801.534	713.62
801.79	783.62
802.046	858.62
802.302	1072.62
802.557	1271.62
802.813	1676.62
803.068	2238.62
803.324	3204.62
803.579	4502.62
803.835	6251.62
804.09	8472.62
804.345	10784.62
804.601	13051.62
804.856	15149.62
805.111	16760.62
805.366	17956.62
805.621	18679.62
805.876	19268.62
806.131	19736.62
806.386	19951.62
806.641	20338.62
806.896	20580.62
807.151	20893.62
807.406	21262.62
807.661	21605.62
807.915	21869.62
808.17	22230.62
808.425	22584.62
808.679	22697.62
808.934	23076.62
809.188	23251.62
809.443	23668.62
809.697	23799.62
809.951	23942.62
810.206	24165.62
810.46	24236.62
810.714	24503.62
810.968	24759.62
811.223	24995.62
811.477	25233.62
811.731	25356.62
811.985	25467.62
812.239	25511.62
812.493	25632.62
812.747	25775.62
813	25840.62
813.254	25897.62
813.508	26264.62
813.762	26329.62
814.015	26406.62
814.269	26609.62
814.522	26896.62
814.776	27010.62
815.03	27431.62
815.283	27626.62
815.536	28178.62
815.79	28554.62
816.043	28916.62
816.296	29186.62
816.55	29500.62
816.803	29866.62
817.056	30339.62
817.309	30642.62
817.562	30926.62
817.815	31270.62
818.068	31541.62
818.321	31910.62
818.574	32321.62
818.827	32774.62
819.079	33082.62
819.332	33776.62
819.585	34233.62
819.838	34696.62
820.09	34783.62
820.343	35179.62
820.595	35181.62
820.848	35659.62
821.1	35826.62
821.353	35634.62
821.605	35692.62
821.857	35718.62
822.11	35519.62
822.362	35472.62
822.614	35440.62
822.866	35529.62
823.118	35460.62
823.37	35597.62
823.622	35710.62
823.874	35963.62
824.126	36036.62
824.378	36130.62
824.63	36259.62
824.882	36342.62
825.134	36127.62
825.385	36255.62
825.637	36144.62
825.888	36038.62
826.14	35999.62
826.392	35766.62
826.643	35597.62
826.895	35578.62
827.146	35592.62
827.397	35444.62
827.649	35404.62
827.9	35368.62
828.151	35274.62
828.402	35631.62
828.653	35621.62
828.905	35768.62
829.156	35726.62
829.407	35848.62
829.658	35838.62
829.909	36015.62
830.159	35961.62
830.41	35785.62
830.661	35424.62
830.912	35298.62
831.162	35205.62
831.413	35118.62
831.664	35159.62
831.914	35129.62
832.165	35097.62
832.415	35114.62
832.666	35128.62
832.916	35223.62
833.167	35136.62
833.417	35069.62
833.667	35074.62
833.917	34925.62
834.168	34859.62
834.418	34717.62
834.668	34521.62
834.918	34503.62
835.168	34207.62
835.418	34094.62
835.668	34058.62
835.918	34067.62
836.167	34069.62
836.417	33816.62
836.667	33776.62
836.917	33765.62
837.166	33694.62
837.416	33821.62
837.666	33840.62
837.915	33802.62
838.165	33777.62
838.414	33511.62
838.663	33481.62
838.913	33600.62
839.162	33501.62
839.411	33465.62
839.661	33240.62
839.91	33308.62
840.159	33072.62
840.408	33224.62
840.657	33422.62
840.906	33363.62
841.155	33302.62
841.404	33252.62
841.653	33367.62
841.902	33498.62
842.15	33453.62
842.399	33454.62
842.648	33293.62
842.897	33264.62
843.145	33052.62
843.394	32799.62
843.642	32670.62
843.891	32562.62
844.139	32344.62
844.388	32098.62
844.636	32064.62
844.884	31934.62
845.133	31940.62
845.381	31950.62
845.629	31976.62
845.877	31899.62
846.125	31851.62
846.373	31891.62
846.621	31808.62
846.869	31635.62
847.117	31463.62
847.365	31437.62
847.613	31242.62
847.861	31270.62
848.108	31373.62
848.356	31155.62
848.604	31148.62
848.851	31303.62
849.099	31172.62
849.346	31186.62
849.594	31325.62
849.841	31572.62
850.089	31583.62
850.336	31555.62
850.583	31424.62
850.831	31475.62
851.078	31150.62
851.325	31158.62
851.572	31074.62
851.819	30889.62
852.066	30182.62
852.313	29862.62
852.56	29781.62
852.807	29460.62
853.054	29506.62
853.301	29460.62
853.548	29549.62
853.794	29835.62
854.041	29936.62
854.288	30103.62
854.534	30169.62
854.781	30256.62
855.028	30167.62
855.274	30086.62
855.52	30147.62
855.767	30117.62
856.013	30204.62
856.26	30344.62
856.506	29749.62
856.752	29621.62
856.998	29638.62
857.244	29761.62
857.49	29976.62
857.736	29925.62
857.982	29908.62
858.228	29711.62
858.474	29451.62
858.72	29187.62
858.966	28900.62
859.212	28760.62
859.458	28467.62
859.703	28170.62
859.949	27918.62
860.195	27934.62
860.44	27740.62
860.686	27695.62
860.931	27774.62
861.177	27359.62
861.422	27307.62
861.667	27120.62
861.913	27139.62
862.158	27246.62
862.403	27249.62
862.648	27226.62
862.893	27330.62
863.138	27270.62
863.384	27150.62
863.629	27020.62
863.873	27047.62
864.118	26915.62
864.363	26791.62
864.608	26713.62
864.853	26598.62
865.098	26414.62
865.342	26333.62
865.587	26218.62
865.832	26240.62
866.076	26223.62
866.321	26094.62
866.565	26174.62
866.81	25885.62
867.054	25762.62
867.298	25860.62
867.543	25636.62
867.787	25772.62
868.031	25813.62
868.275	25651.62
868.519	25710.62
868.764	25586.62
869.008	25557.62
869.252	25529.62
869.496	25479.62
869.739	25514.62
869.983	25592.62
870.227	25626.62
870.471	25633.62
870.715	25703.62
870.958	25842.62
871.202	25836.62
871.446	25849.62
871.689	25853.62
871.933	25853.62
872.176	25833.62
872.42	25809.62
872.663	25693.62
872.906	25662.62
873.15	25745.62
873.393	25888.62
873.636	25693.62
873.879	25333.62
874.122	25155.62
874.366	24587.62
874.609	24408.62
874.852	24198.62
875.095	24106.62
875.337	23985.62
875.58	23933.62
875.823	23877.62
876.066	23927.62
876.309	23654.62
876.551	23489.62
876.794	23479.62
877.037	23374.62
877.279	23285.62
877.522	23297.62
877.764	23314.62
878.007	23269.62
878.249	23281.62
878.491	23029.62
878.734	23199.62
878.976	23015.62
879.218	22947.62
879.46	22733.62
879.702	22644.62
879.945	22503.62
880.187	22195.62
880.429	22195.62
880.671	22001.62
880.912	21957.62
881.154	21923.62
881.396	21790.62
881.638	21753.62
881.88	21839.62
882.121	21781.62
882.363	21754.62
882.605	21817.62
882.846	21710.62
883.088	21783.62
883.329	21733.62
883.571	21960.62
883.812	22253.62
884.053	22868.62
884.295	23248.62
884.536	23704.62
884.777	23299.62
885.018	23167.62
885.259	22969.62
885.5	22915.62
885.742	22928.62
885.982	22799.62
886.223	22551.62
886.464	22346.62
886.705	22058.62
886.946	21740.62
887.187	21296.62
887.428	21012.62
887.668	20749.62
887.909	20449.62
888.15	20161.62
888.39	20057.62
888.631	19957.62
888.871	19699.62
889.111	19501.62
889.352	19409.62
889.592	19278.62
889.833	19127.62
890.073	18950.62
890.313	18880.62
890.553	18737.62
890.793	18609.62
891.033	18556.62
891.273	18498.62
891.513	18444.62
891.753	18461.62
891.993	18342.62
892.233	18415.62
892.473	18524.62
892.713	18418.62
892.952	18389.62
893.192	18464.62
893.432	18302.62
893.671	18345.62
893.911	18164.62
894.15	18045.62
894.39	17873.62
894.629	17887.62
894.869	17707.62
895.108	17638.62
895.347	17492.62
895.587	17502.62
895.826	17406.62
896.065	17352.62
896.304	17473.62
896.543	17445.62
896.782	17271.62
897.021	17346.62
897.26	17254.62
897.499	17339.62
897.738	17110.62
897.977	16990.62
898.216	16852.62
898.454	16750.62
898.693	16700.62
898.932	16675.62
899.17	16700.62
899.409	16505.62
899.647	16576.62
899.886	16544.62
900.124	16627.62
900.363	16559.62
900.601	16600.62
900.839	16729.62
901.078	16722.62
901.316	16739.62
901.554	16910.62
901.792	16899.62
902.03	16925.62
902.268	16964.62
902.506	16958.62
902.744	16687.62
902.982	16621.62
903.22	16438.62
903.458	16191.62
903.695	15980.62
903.933	15694.62
904.171	15402.62
904.409	15221.62
904.646	15075.62
904.884	14814.62
905.121	14684.62
905.359	14587.62
905.596	14434.62
905.833	14245.62
906.071	14284.62
906.308	14166.62
906.545	14185.62
906.783	14142.62
907.02	14127.62
907.257	14055.62
907.494	14051.62
907.731	14002.62
907.968	13976.62
908.205	13878.62
908.442	13780.62
908.679	13705.62
908.915	13606.62
909.152	13436.62
909.389	13308.62
909.626	13270.62
909.862	13188.62
910.099	13154.62
910.335	13115.62
910.572	12973.62
910.808	12881.62
911.045	12918.62
911.281	12812.62
911.518	12813.62
911.754	12701.62
911.99	12702.62
912.226	12523.62
912.463	12534.62
912.699	12304.62
912.935	12327.62
913.171	12170.62
913.407	12074.62
913.643	12007.62
913.879	11878.62
914.114	11822.62
914.35	11662.62
914.586	11629.62
914.822	11435.62
915.057	11481.62
915.293	11363.62
915.529	11272.62
915.764	11407.62
916	11380.62
916.235	11274.62
916.471	11256.62
916.706	11102.62
916.941	11141.62
917.177	11071.62
917.412	11134.62
917.647	11155.62
917.882	11047.62
918.117	11139.62
918.352	10960.62
918.588	11052.62
918.823	10853.62
919.057	10755.62
919.292	10640.62
919.527	10637.62
919.762	10397.62
919.997	10425.62
920.232	10281.62
920.466	10199.62
920.701	10042.62
920.935	10051.62
921.17	9996.62
921.405	9978.62
921.639	9984.62
921.873	9866.62
922.108	9841.62
922.342	9829.62
922.576	9710.62
922.811	9702.62
923.045	9685.62
923.279	9672.62
923.513	9549.62
923.747	9562.62
923.981	9481.62
924.215	9413.62
924.449	9349.62
924.683	9318.62
924.917	9282.62
925.151	9193.62
925.385	9279.62
925.618	9224.62
925.852	9170.62
926.086	9066.62
926.319	9119.62
926.553	9083.62
926.786	9092.62
927.02	9034.62
927.253	9064.62
927.486	9095.62
927.72	8929.62
927.953	8975.62
928.186	8935.62
928.42	8877.62
928.653	8858.62
928.886	8790.62
929.119	8783.62
929.352	8738.62
929.585	8691.62
929.818	8575.62
930.051	8537.62
930.284	8466.62
930.516	8362.62
930.749	8321.62
930.982	8330.62
931.215	8305.62
931.447	8142.62
931.68	8186.62
931.912	8144.62
932.145	8171.62
932.377	8147.62
932.61	8262.62
932.842	8098.62
933.074	8174.62
933.307	8052.62
933.539	8192.62
933.771	8228.62
934.003	8108.62
934.236	8214.62
934.468	8174.62
934.7	8031.62
934.932	8134.62
935.164	8004.62
935.395	7953.62
935.627	7964.62
935.859	7961.62
936.091	7858.62
936.323	7897.62
936.554	7877.62
936.786	7784.62
937.017	7761.62
937.249	7720.62
937.481	7687.62
937.712	7750.62
937.943	7710.62
938.175	7667.62
938.406	7669.62
938.637	7657.62
938.869	7586.62
939.1	7649.62
939.331	7567.62
939.562	7553.62
939.793	7538.62
940.024	7531.62
940.255	7526.62
940.486	7487.62
940.717	7404.62
940.948	7379.62
941.179	7331.62
941.409	7289.62
941.64	7318.62
941.871	7293.62
942.102	7316.62
942.332	7351.62
942.563	7299.62
942.793	7284.62
943.024	7216.62
943.254	7273.62
943.484	7275.62
943.715	7311.62
943.945	7245.62
944.175	7214.62
944.405	7118.62
944.636	7133.62
944.866	7230.62
945.096	7175.62
945.326	7037.62
945.556	7143.62
945.786	7119.62
946.016	7086.62
946.245	6958.62
946.475	6878.62
946.705	6888.62
946.935	6869.62
947.164	6870.62
947.394	6749.62
947.624	6731.62
947.853	6827.62
948.083	6721.62
948.312	6678.62
948.542	6573.62
948.771	6528.62
949	6577.62
949.23	6576.62
949.459	6620.62
949.688	6626.62
949.917	6566.62
950.146	6572.62
950.375	6582.62
950.604	6471.62
950.833	6572.62
951.062	6598.62
951.291	6491.62
951.52	6393.62
951.749	6475.62
951.978	6380.62
952.206	6360.62
952.435	6398.62
952.664	6398.62
952.892	6419.62
953.121	6797.62
953.349	6570.62
953.578	6308.62
953.806	6290.62
954.035	6188.62
954.263	6160.62
954.491	6132.62
954.719	6165.62
954.948	6087.62
955.176	6020.62
955.404	5952.62
955.632	6024.62
955.86	5985.62
956.088	5926.62
956.316	5973.62
956.544	5952.62
956.772	5927.62
956.999	5866.62
957.227	5871.62
957.455	5710.62
957.683	5766.62
957.91	5707.62
958.138	5632.62
958.365	5685.62
958.593	5625.62
958.82	5579.62
959.048	5605.62
959.275	5554.62
959.502	5568.62
959.73	5511.62
959.957	5595.62
960.184	5553.62
960.411	5497.62
960.638	5532.62
960.865	5465.62
961.092	5475.62
961.319	5401.62
961.546	5463.62
961.773	5501.62
962	5442.62
962.227	5460.62
962.454	5389.62
962.68	5358.62
962.907	5398.62
963.134	5300.62
963.36	5316.62
963.587	5284.62
963.813	5150.62
964.04	5192.62
964.266	5125.62
964.493	5199.62
964.719	5113.62
964.945	5152.62
965.171	5003.62
965.398	5057.62
965.624	4994.62
965.85	4939.62
966.076	4899.62
966.302	4965.62
966.528	4885.62
966.754	4928.62
966.98	4849.62
967.206	4851.62
967.431	4756.62
967.657	4876.62
967.883	4840.62
968.109	4853.62
968.334	4748.62
968.56	4719.62
968.785	4734.62
969.011	4717.62
969.236	4701.62
969.462	4694.62
969.687	4645.62
969.912	4689.62
970.138	4727.62
970.363	4613.62
970.588	4626.62
970.813	4631.62
971.038	4574.62
971.263	4602.62
971.488	4639.62
971.713	4562.62
971.938	4564.62
972.163	4448.62
972.388	4478.62
972.613	4407.62
972.838	4433.62
973.062	4386.62
973.287	4344.62
973.512	4285.62
973.736	4306.62
973.961	4254.62
974.185	4233.62
974.41	4283.62
974.634	4223.62
974.858	4170.62
975.083	4234.62
975.307	4189.62
975.531	4105.62
975.755	4064.62
975.98	4057.62
976.204	3966.62
976.428	3979.62
976.652	3959.62
976.876	3942.62
977.1	3965.62
977.324	3897.62
977.547	3961.62
977.771	3955.62
977.995	3911.62
978.219	3866.62
978.442	3961.62
978.666	3875.62
978.89	3882.62
979.113	3811.62
979.337	3836.62
979.56	3760.62
979.783	3850.62
980.007	3717.62
980.23	3762.62
980.453	3723.62
980.677	3696.62
980.9	3731.62
981.123	3640.62
981.346	3726.62
981.569	3683.62
981.792	3651.62
982.015	3615.62
982.238	3581.62
982.461	3577.62
982.684	3570.62
982.907	3481.62
983.129	3485.62
983.352	3546.62
983.575	3529.62
983.797	3501.62
984.02	3421.62
984.242	3423.62
984.465	3425.62
984.687	3449.62
984.91	3423.62
985.132	3394.62
985.354	3418.62
985.577	3350.62
985.799	3394.62
986.021	3243.62
986.243	3259.62
986.465	3285.62
986.687	3330.62
986.909	3338.62
987.131	3284.62
987.353	3243.62
987.575	3238.62
987.797	3271.62
988.019	3184.62
988.241	3211.62
988.462	3150.62
988.684	3251.62
988.906	3222.62
989.127	3205.62
989.349	3109.62
989.57	3202.62
989.792	3183.62
990.013	3149.62
990.234	3162.62
990.456	3199.62
990.677	3150.62
990.898	3109.62
991.119	3088.62
991.341	3111.62
991.562	2996.62
991.783	3062.62
992.004	2970.62
992.225	2936.62
992.446	2989.62
992.667	2865.62
992.887	2968.62
993.108	2813.62
993.329	2957.62
993.55	2905.62
993.77	2806.62
993.991	2796.62
994.212	2820.62
994.432	2837.62
994.653	2808.62
994.873	2805.62
995.093	2701.62
995.314	2705.62
995.534	2814.62
995.754	2777.62
995.975	2828.62
996.195	2734.62
996.415	2769.62
996.635	2767.62
996.855	2743.62
997.075	2752.62
997.295	2694.62
997.515	2699.62
997.735	2767.62
997.955	2747.62
998.174	2676.62
998.394	2717.62
998.614	2747.62
998.834	2683.62
999.053	2692.62
999.273	2699.62
999.492	2725.62
999.712	2689.62
999.931	2599.62
1000.151	2616.62
1000.37	2601.62
1000.589	2630.62
1000.809	2533.62
1001.028	2626.62
1001.247	2579.62
1001.466	2427.62
1001.685	2570.62
1001.904	2542.62
1002.123	2446.62
1002.342	2492.62
1002.561	2413.62
1002.78	2432.62
1002.999	2457.62
1003.218	2455.62
1003.436	2377.62
1003.655	2456.62
1003.874	2373.62
1004.092	2385.62
1004.311	2408.62
1004.53	2394.62
1004.748	2449.62
1004.966	2388.62
1005.185	2412.62
1005.403	2402.62
1005.622	2384.62
1005.84	2435.62
1006.058	2330.62
1006.276	2340.62
1006.494	2747.62
1006.712	2362.62
1006.931	2434.62
1007.149	2349.62
1007.367	2331.62
1007.584	2402.62
1007.802	2425.62
1008.02	2417.62
1008.238	2531.62
1008.456	2520.62
1008.673	2440.62
1008.891	2581.62
1009.109	2552.62
1009.326	2635.62
1009.544	2781.62
1009.761	2760.62
1009.979	2893.62
1010.196	2968.62
1010.413	3186.62
1010.631	3288.62
1010.848	3396.62
1011.065	3394.62
1011.282	3360.62
1011.5	3259.62
1011.717	3348.62
1011.934	3310.62
1012.151	3342.62
1012.368	3315.62
1012.585	3237.62
1012.801	3297.62
1013.018	3277.62
1013.235	3258.62
1013.452	3276.62
1013.669	3319.62
1013.885	3285.62
1014.102	3360.62
1014.318	3323.62
1014.535	3286.62
1014.751	3290.62
1014.968	3258.62
1015.184	3309.62
1015.401	3141.62
1015.617	3141.62
1015.833	3091.62
1016.049	3078.62
1016.266	2991.62
1016.482	2991.62
1016.698	2898.62
1016.914	2917.62
1017.13	2863.62
1017.346	2855.62
1017.562	2903.62
1017.778	2782.62
1017.993	2744.62
1018.209	2807.62
1018.425	2776.62
1018.641	2724.62
1018.856	2711.62
1019.072	2730.62
1019.288	2770.62
1019.503	2708.62
1019.719	2611.62
1019.934	2609.62
1020.149	2701.62
1020.365	2576.62
1020.58	2526.62
1020.795	2507.62
1021.011	2425.62
1021.226	2310.62
1021.441	2328.62
1021.656	2244.62
1021.871	2129.62
1022.086	2134.62
1022.301	2066.62
1022.516	2049.62
1022.731	2075.62
1022.946	1994.62
1023.16	1936.62
1023.375	1916.62
1023.59	1810.62
1023.804	1794.62
1024.019	1845.62
1024.234	1694.62
1024.448	1721.62
1024.663	1641.62
1024.877	1611.62
1025.092	1595.62
1025.306	1600.62
1025.52	1492.62
1025.734	1574.62
1025.949	1448.62
1026.163	1405.62
1026.377	1331.62
1026.591	1358.62
1026.805	1311.62
1027.019	1269.62
1027.233	1249.62
1027.447	1175.62
1027.661	1273.62
1027.875	1202.62
1028.088	1201.62
1028.302	1071.62
1028.516	1085.62
1028.73	1080.62
1028.943	1050.62
1029.157	964.62
1029.37	887.62
1029.584	-1.38
1029.797	-1.38
1030.011	-6.38
1030.224	-2.38
