Data from QEP037381__285__16-17-19-907.txt Node

Date: Fri Dec 16 16:17:19 EST 2022
User: dcclab
Spectrometer: QEP03738
Trigger mode: 4
Integration Time (sec): 1.000000E1
Scans to average: 1
Electric dark correction enabled: true
Nonlinearity correction enabled: false
Boxcar width: 0
XAxis mode: Wavelengths
Number of Pixels in Spectrum: 1044
>>>>>Begin Spectral Data<<<<<
784.041	15.38
784.3	-0.62
784.558	-2.62
784.817	-4.62
785.075	106922.38
785.334	18729.38
785.592	8908.38
785.851	6176.38
786.109	4610.38
786.368	3587.38
786.626	2850.38
786.884	2427.38
787.143	2014.38
787.401	1647.38
787.659	1491.38
787.917	1304.38
788.175	1181.38
788.433	1016.38
788.691	929.38
788.949	852.38
789.207	817.38
789.465	728.38
789.723	670.38
789.98	629.38
790.238	661.38
790.496	629.38
790.753	584.38
791.011	647.38
791.268	587.38
791.526	546.38
791.783	575.38
792.041	559.38
792.298	472.38
792.556	531.38
792.813	520.38
793.07	503.38
793.327	473.38
793.584	560.38
793.841	482.38
794.099	497.38
794.356	579.38
794.613	463.38
794.869	509.38
795.126	434.38
795.383	449.38
795.64	455.38
795.897	407.38
796.153	463.38
796.41	471.38
796.667	459.38
796.923	449.38
797.18	459.38
797.436	471.38
797.693	446.38
797.949	514.38
798.206	530.38
798.462	449.38
798.718	517.38
798.974	494.38
799.231	530.38
799.487	508.38
799.743	535.38
799.999	553.38
800.255	571.38
800.511	559.38
800.767	607.38
801.023	598.38
801.279	647.38
801.534	696.38
801.79	768.38
802.046	816.38
802.302	974.38
802.557	1132.38
802.813	1459.38
803.068	1847.38
803.324	2565.38
803.579	3562.38
803.835	4933.38
804.09	6753.38
804.345	8919.38
804.601	11239.38
804.856	13552.38
805.111	15679.38
805.366	17246.38
805.621	18559.38
805.876	19356.38
806.131	19860.38
806.386	20323.38
806.641	20704.38
806.896	21143.38
807.151	21458.38
807.406	21795.38
807.661	22312.38
807.915	22615.38
808.17	22964.38
808.425	23325.38
808.679	23462.38
808.934	23685.38
809.188	23999.38
809.443	24139.38
809.697	24536.38
809.951	24654.38
810.206	24932.38
810.46	25103.38
810.714	25389.38
810.968	25581.38
811.223	25814.38
811.477	26009.38
811.731	26247.38
811.985	26366.38
812.239	26499.38
812.493	26672.38
812.747	26764.38
813	26708.38
813.254	26977.38
813.508	27219.38
813.762	27292.38
814.015	27293.38
814.269	27517.38
814.522	27784.38
814.776	28126.38
815.03	28415.38
815.283	28855.38
815.536	29328.38
815.79	29723.38
816.043	30207.38
816.296	30586.38
816.55	30971.38
816.803	31400.38
817.056	31669.38
817.309	32154.38
817.562	32407.38
817.815	32654.38
818.068	32974.38
818.321	33268.38
818.574	33566.38
818.827	33978.38
819.079	34495.38
819.332	34942.38
819.585	35515.38
819.838	35780.38
820.09	36150.38
820.343	36417.38
820.595	36680.38
820.848	36725.38
821.1	37057.38
821.353	37042.38
821.605	36828.38
821.857	37011.38
822.11	36855.38
822.362	36761.38
822.614	36693.38
822.866	36665.38
823.118	36617.38
823.37	36918.38
823.622	36844.38
823.874	37060.38
824.126	37061.38
824.378	37198.38
824.63	37248.38
824.882	37329.38
825.134	37341.38
825.385	37336.38
825.637	37271.38
825.888	37152.38
826.14	37053.38
826.392	37047.38
826.643	36725.38
826.895	36710.38
827.146	36541.38
827.397	36400.38
827.649	36471.38
827.9	36437.38
828.151	36421.38
828.402	36599.38
828.653	36671.38
828.905	36700.38
829.156	36711.38
829.407	36838.38
829.658	36788.38
829.909	36865.38
830.159	36895.38
830.41	36673.38
830.661	36490.38
830.912	36287.38
831.162	36095.38
831.413	35931.38
831.664	36075.38
831.914	36095.38
832.165	35923.38
832.415	35932.38
832.666	35961.38
832.916	35891.38
833.167	36006.38
833.417	36034.38
833.667	35821.38
833.917	35721.38
834.168	35557.38
834.418	35611.38
834.668	35371.38
834.918	35158.38
835.168	35036.38
835.418	34919.38
835.668	34803.38
835.918	34658.38
836.167	34597.38
836.417	34506.38
836.667	34634.38
836.917	34566.38
837.166	34433.38
837.416	34472.38
837.666	34613.38
837.915	34317.38
838.165	34329.38
838.414	34291.38
838.663	34199.38
838.913	34236.38
839.162	34180.38
839.411	34064.38
839.661	33895.38
839.91	33806.38
840.159	33751.38
840.408	33742.38
840.657	33809.38
840.906	33816.38
841.155	33815.38
841.404	33714.38
841.653	33781.38
841.902	33805.38
842.15	33873.38
842.399	33823.38
842.648	33828.38
842.897	33682.38
843.145	33466.38
843.394	33285.38
843.642	33149.38
843.891	33037.38
844.139	32793.38
844.388	32711.38
844.636	32499.38
844.884	32375.38
845.133	32361.38
845.381	32441.38
845.629	32379.38
845.877	32260.38
846.125	32315.38
846.373	32230.38
846.621	32121.38
846.869	32032.38
847.117	31796.38
847.365	31566.38
847.613	31460.38
847.861	31330.38
848.108	31419.38
848.356	31228.38
848.604	31309.38
848.851	31305.38
849.099	31317.38
849.346	31348.38
849.594	31484.38
849.841	31620.38
850.089	31565.38
850.336	31581.38
850.583	31599.38
850.831	31459.38
851.078	31097.38
851.325	31228.38
851.572	31304.38
851.819	30990.38
852.066	30504.38
852.313	30072.38
852.56	29900.38
852.807	29809.38
853.054	29664.38
853.301	29511.38
853.548	29673.38
853.794	29815.38
854.041	29766.38
854.288	29936.38
854.534	30099.38
854.781	30098.38
855.028	30036.38
855.274	30010.38
855.52	29889.38
855.767	29712.38
856.013	29895.38
856.26	29926.38
856.506	29478.38
856.752	29366.38
856.998	29513.38
857.244	29569.38
857.49	29750.38
857.736	29763.38
857.982	29617.38
858.228	29658.38
858.474	29209.38
858.72	29105.38
858.966	28949.38
859.212	28704.38
859.458	28354.38
859.703	28103.38
859.949	27875.38
860.195	27764.38
860.44	27436.38
860.686	27313.38
860.931	27338.38
861.177	27265.38
861.422	27149.38
861.667	27098.38
861.913	27051.38
862.158	26932.38
862.403	26961.38
862.648	27354.38
862.893	27176.38
863.138	26984.38
863.384	27068.38
863.629	26909.38
863.873	27000.38
864.118	26864.38
864.363	26777.38
864.608	26619.38
864.853	26642.38
865.098	26517.38
865.342	26326.38
865.587	26195.38
865.832	26182.38
866.076	26125.38
866.321	26109.38
866.565	26015.38
866.81	25866.38
867.054	25854.38
867.298	25623.38
867.543	25598.38
867.787	25588.38
868.031	25517.38
868.275	25436.38
868.519	25405.38
868.764	25455.38
869.008	25326.38
869.252	25398.38
869.496	25235.38
869.739	25279.38
869.983	25136.38
870.227	25011.38
870.471	25097.38
870.715	25225.38
870.958	25285.38
871.202	25341.38
871.446	25411.38
871.689	25329.38
871.933	25297.38
872.176	25347.38
872.42	25294.38
872.663	25118.38
872.906	25142.38
873.15	24995.38
873.393	24952.38
873.636	24924.38
873.879	24756.38
874.122	24374.38
874.366	24038.38
874.609	23856.38
874.852	23785.38
875.095	23606.38
875.337	23550.38
875.58	23333.38
875.823	23252.38
876.066	23271.38
876.309	23079.38
876.551	23095.38
876.794	22920.38
877.037	22895.38
877.279	22731.38
877.522	22769.38
877.764	22885.38
878.007	22716.38
878.249	22734.38
878.491	22577.38
878.734	22618.38
878.976	22520.38
879.218	22468.38
879.46	22299.38
879.702	22096.38
879.945	21925.38
880.187	21719.38
880.429	21660.38
880.671	21539.38
880.912	21534.38
881.154	21421.38
881.396	21217.38
881.638	21274.38
881.88	21350.38
882.121	21191.38
882.363	21174.38
882.605	21271.38
882.846	21146.38
883.088	21110.38
883.329	20982.38
883.571	21070.38
883.812	21237.38
884.053	21633.38
884.295	21953.38
884.536	22260.38
884.777	22044.38
885.018	21927.38
885.259	21757.38
885.5	21717.38
885.742	21683.38
885.982	21507.38
886.223	21418.38
886.464	21278.38
886.705	20996.38
886.946	20796.38
887.187	20426.38
887.428	20300.38
887.668	20005.38
887.909	19753.38
888.15	19557.38
888.39	19505.38
888.631	19331.38
888.871	19165.38
889.111	19027.38
889.352	18887.38
889.592	18692.38
889.833	18553.38
890.073	18507.38
890.313	18413.38
890.553	18222.38
890.793	18100.38
891.033	18008.38
891.273	18008.38
891.513	17926.38
891.753	17957.38
891.993	17921.38
892.233	17756.38
892.473	17935.38
892.713	18002.38
892.952	17979.38
893.192	17941.38
893.432	17925.38
893.671	17763.38
893.911	17663.38
894.15	17695.38
894.39	17474.38
894.629	17377.38
894.869	17390.38
895.108	17258.38
895.347	17192.38
895.587	17124.38
895.826	17102.38
896.065	17038.38
896.304	17077.38
896.543	17005.38
896.782	16946.38
897.021	16873.38
897.26	16802.38
897.499	16770.38
897.738	16793.38
897.977	16547.38
898.216	16488.38
898.454	16376.38
898.693	16271.38
898.932	16279.38
899.17	16252.38
899.409	16209.38
899.647	16094.38
899.886	16012.38
900.124	16100.38
900.363	15972.38
900.601	16063.38
900.839	16058.38
901.078	16089.38
901.316	16213.38
901.554	16295.38
901.792	16319.38
902.03	16326.38
902.268	16275.38
902.506	16343.38
902.744	16095.38
902.982	16060.38
903.22	15828.38
903.458	15604.38
903.695	15328.38
903.933	15110.38
904.171	14885.38
904.409	14658.38
904.646	14547.38
904.884	14290.38
905.121	14186.38
905.359	14086.38
905.596	13863.38
905.833	13767.38
906.071	13642.38
906.308	13682.38
906.545	13665.38
906.783	13588.38
907.02	13536.38
907.257	13466.38
907.494	13451.38
907.731	13405.38
907.968	13315.38
908.205	13254.38
908.442	13127.38
908.679	13077.38
908.915	12995.38
909.152	12888.38
909.389	12790.38
909.626	12610.38
909.862	12562.38
910.099	12569.38
910.335	12501.38
910.572	12470.38
910.808	12393.38
911.045	12348.38
911.281	12195.38
911.518	12340.38
911.754	12190.38
911.99	12150.38
912.226	12086.38
912.463	11882.38
912.699	11777.38
912.935	11739.38
913.171	11624.38
913.407	11492.38
913.643	11471.38
913.879	11368.38
914.114	11282.38
914.35	11170.38
914.586	11100.38
914.822	10871.38
915.057	10930.38
915.293	10813.38
915.529	10682.38
915.764	10786.38
916	10750.38
916.235	10757.38
916.471	10675.38
916.706	10618.38
916.941	10605.38
917.177	10572.38
917.412	10602.38
917.647	10490.38
917.882	10499.38
918.117	10523.38
918.352	10406.38
918.588	10397.38
918.823	10260.38
919.057	10231.38
919.292	10056.38
919.527	10088.38
919.762	9914.38
919.997	9845.38
920.232	9766.38
920.466	9712.38
920.701	9541.38
920.935	9510.38
921.17	9473.38
921.405	9384.38
921.639	9427.38
921.873	9286.38
922.108	9298.38
922.342	9227.38
922.576	9199.38
922.811	9188.38
923.045	9213.38
923.279	9196.38
923.513	8951.38
923.747	9032.38
923.981	8988.38
924.215	8884.38
924.449	8840.38
924.683	8751.38
924.917	8650.38
925.151	8671.38
925.385	8700.38
925.618	8659.38
925.852	8619.38
926.086	8562.38
926.319	8596.38
926.553	8557.38
926.786	8597.38
927.02	8518.38
927.253	8538.38
927.486	8575.38
927.72	8384.38
927.953	8509.38
928.186	8407.38
928.42	8404.38
928.653	8334.38
928.886	8266.38
929.119	8237.38
929.352	8243.38
929.585	8175.38
929.818	8116.38
930.051	8059.38
930.284	7968.38
930.516	7805.38
930.749	7829.38
930.982	7761.38
931.215	7817.38
931.447	7654.38
931.68	7697.38
931.912	7671.38
932.145	7613.38
932.377	7652.38
932.61	7768.38
932.842	7530.38
933.074	7655.38
933.307	7552.38
933.539	7729.38
933.771	7627.38
934.003	7582.38
934.236	7605.38
934.468	7662.38
934.7	7508.38
934.932	7549.38
935.164	7498.38
935.395	7438.38
935.627	7447.38
935.859	7426.38
936.091	7347.38
936.323	7454.38
936.554	7403.38
936.786	7302.38
937.017	7241.38
937.249	7272.38
937.481	7176.38
937.712	7248.38
937.943	7205.38
938.175	7163.38
938.406	7143.38
938.637	7201.38
938.869	7095.38
939.1	7141.38
939.331	7068.38
939.562	7069.38
939.793	7029.38
940.024	6986.38
940.255	7032.38
940.486	6904.38
940.717	6898.38
940.948	6878.38
941.179	6857.38
941.409	6831.38
941.64	6798.38
941.871	6795.38
942.102	6737.38
942.332	6771.38
942.563	6795.38
942.793	6766.38
943.024	6711.38
943.254	6792.38
943.484	6788.38
943.715	6733.38
943.945	6734.38
944.175	6663.38
944.405	6688.38
944.636	6664.38
944.866	6706.38
945.096	6687.38
945.326	6622.38
945.556	6661.38
945.786	6659.38
946.016	6577.38
946.245	6467.38
946.475	6417.38
946.705	6396.38
946.935	6370.38
947.164	6390.38
947.394	6288.38
947.624	6317.38
947.853	6284.38
948.083	6266.38
948.312	6182.38
948.542	6123.38
948.771	6127.38
949	6129.38
949.23	6082.38
949.459	6061.38
949.688	6161.38
949.917	6098.38
950.146	6051.38
950.375	6100.38
950.604	6014.38
950.833	6018.38
951.062	6056.38
951.291	5970.38
951.52	5946.38
951.749	5986.38
951.978	5897.38
952.206	5864.38
952.435	5901.38
952.664	5899.38
952.892	5909.38
953.121	5847.38
953.349	5840.38
953.578	5754.38
953.806	5714.38
954.035	5677.38
954.263	5700.38
954.491	5641.38
954.719	5662.38
954.948	5646.38
955.176	5565.38
955.404	5501.38
955.632	5516.38
955.86	5516.38
956.088	5452.38
956.316	5458.38
956.544	5449.38
956.772	5349.38
956.999	5312.38
957.227	5361.38
957.455	5259.38
957.683	5271.38
957.91	5227.38
958.138	5172.38
958.365	5145.38
958.593	5182.38
958.82	5059.38
959.048	5118.38
959.275	5084.38
959.502	5079.38
959.73	5004.38
959.957	5059.38
960.184	5099.38
960.411	5012.38
960.638	5063.38
960.865	5025.38
961.092	5019.38
961.319	4942.38
961.546	5031.38
961.773	4993.38
962	4962.38
962.227	4981.38
962.454	4955.38
962.68	4916.38
962.907	4944.38
963.134	4853.38
963.36	4809.38
963.587	4837.38
963.813	4716.38
964.04	4780.38
964.266	4663.38
964.493	4748.38
964.719	4703.38
964.945	4700.38
965.171	4621.38
965.398	4637.38
965.624	4602.38
965.85	4515.38
966.076	4466.38
966.302	4519.38
966.528	4499.38
966.754	4517.38
966.98	4464.38
967.206	4466.38
967.431	4372.38
967.657	4449.38
967.883	4442.38
968.109	4424.38
968.334	4334.38
968.56	4354.38
968.785	4333.38
969.011	4282.38
969.236	4273.38
969.462	4261.38
969.687	4269.38
969.912	4309.38
970.138	4268.38
970.363	4192.38
970.588	4205.38
970.813	4182.38
971.038	4143.38
971.263	4182.38
971.488	4161.38
971.713	4166.38
971.938	4160.38
972.163	4054.38
972.388	4046.38
972.613	3977.38
972.838	4022.38
973.062	4001.38
973.287	3984.38
973.512	3912.38
973.736	3929.38
973.961	3892.38
974.185	3839.38
974.41	3914.38
974.634	3793.38
974.858	3795.38
975.083	3823.38
975.307	3856.38
975.531	3729.38
975.755	3666.38
975.98	3692.38
976.204	3597.38
976.428	3607.38
976.652	3607.38
976.876	3582.38
977.1	3589.38
977.324	3552.38
977.547	3640.38
977.771	3606.38
977.995	3577.38
978.219	3515.38
978.442	3617.38
978.666	3576.38
978.89	3517.38
979.113	3510.38
979.337	3495.38
979.56	3480.38
979.783	3535.38
980.007	3425.38
980.23	3484.38
980.453	3370.38
980.677	3410.38
980.9	3420.38
981.123	3292.38
981.346	3407.38
981.569	3291.38
981.792	3363.38
982.015	3281.38
982.238	3280.38
982.461	3279.38
982.684	3206.38
982.907	3177.38
983.129	3199.38
983.352	3226.38
983.575	3194.38
983.797	3173.38
984.02	3138.38
984.242	3109.38
984.465	3107.38
984.687	3113.38
984.91	3135.38
985.132	3113.38
985.354	3083.38
985.577	3061.38
985.799	3046.38
986.021	2988.38
986.243	2954.38
986.465	2969.38
986.687	3031.38
986.909	3040.38
987.131	2942.38
987.353	2948.38
987.575	2986.38
987.797	2894.38
988.019	2855.38
988.241	2903.38
988.462	2850.38
988.684	2928.38
988.906	2922.38
989.127	2973.38
989.349	2824.38
989.57	2865.38
989.792	2875.38
990.013	2876.38
990.234	2861.38
990.456	2894.38
990.677	2841.38
990.898	2804.38
991.119	2790.38
991.341	2815.38
991.562	2729.38
991.783	2771.38
992.004	2727.38
992.225	2650.38
992.446	2711.38
992.667	2611.38
992.887	2696.38
993.108	2578.38
993.329	2706.38
993.55	2650.38
993.77	2565.38
993.991	2564.38
994.212	2588.38
994.432	2569.38
994.653	2570.38
994.873	2564.38
995.093	2420.38
995.314	2474.38
995.534	2573.38
995.754	2555.38
995.975	2559.38
996.195	2464.38
996.415	2518.38
996.635	2464.38
996.855	2492.38
997.075	2448.38
997.295	2444.38
997.515	2405.38
997.735	2446.38
997.955	2410.38
998.174	2456.38
998.394	2394.38
998.614	2456.38
998.834	2388.38
999.053	2438.38
999.273	2409.38
999.492	2399.38
999.712	2377.38
999.931	2338.38
1000.151	2408.38
1000.37	2359.38
1000.589	2420.38
1000.809	2273.38
1001.028	2393.38
1001.247	2331.38
1001.466	2223.38
1001.685	2363.38
1001.904	2254.38
1002.123	2236.38
1002.342	2248.38
1002.561	2179.38
1002.78	2237.38
1002.999	2267.38
1003.218	2203.38
1003.436	2177.38
1003.655	2226.38
1003.874	2178.38
1004.092	2155.38
1004.311	2215.38
1004.53	2174.38
1004.748	2240.38
1004.966	2144.38
1005.185	2191.38
1005.403	2182.38
1005.622	2151.38
1005.84	2219.38
1006.058	2113.38
1006.276	2142.38
1006.494	2632.38
1006.712	2138.38
1006.931	2190.38
1007.149	2098.38
1007.367	2111.38
1007.584	2157.38
1007.802	2164.38
1008.02	2162.38
1008.238	2243.38
1008.456	2219.38
1008.673	2088.38
1008.891	2215.38
1009.109	2206.38
1009.326	2240.38
1009.544	2301.38
1009.761	2254.38
1009.979	2399.38
1010.196	2420.38
1010.413	2516.38
1010.631	2611.38
1010.848	2665.38
1011.065	2681.38
1011.282	2663.38
1011.5	2614.38
1011.717	2657.38
1011.934	2582.38
1012.151	2644.38
1012.368	2593.38
1012.585	2569.38
1012.801	2572.38
1013.018	2592.38
1013.235	2532.38
1013.452	2584.38
1013.669	2580.38
1013.885	2539.38
1014.102	2595.38
1014.318	2562.38
1014.535	2554.38
1014.751	2572.38
1014.968	2518.38
1015.184	2534.38
1015.401	2457.38
1015.617	2503.38
1015.833	2411.38
1016.049	2374.38
1016.266	2389.38
1016.482	2368.38
1016.698	2281.38
1016.914	2312.38
1017.13	2243.38
1017.346	2243.38
1017.562	2288.38
1017.778	2236.38
1017.993	2186.38
1018.209	2245.38
1018.425	2181.38
1018.641	2171.38
1018.856	2145.38
1019.072	2199.38
1019.288	2225.38
1019.503	2176.38
1019.719	2098.38
1019.934	2098.38
1020.149	2181.38
1020.365	2117.38
1020.58	2061.38
1020.795	2044.38
1021.011	1968.38
1021.226	1928.38
1021.441	1975.38
1021.656	1848.38
1021.871	1754.38
1022.086	1794.38
1022.301	1742.38
1022.516	1711.38
1022.731	1751.38
1022.946	1686.38
1023.16	1680.38
1023.375	1599.38
1023.59	1585.38
1023.804	1529.38
1024.019	1622.38
1024.234	1515.38
1024.448	1512.38
1024.663	1426.38
1024.877	1425.38
1025.092	1427.38
1025.306	1412.38
1025.52	1295.38
1025.734	1374.38
1025.949	1305.38
1026.163	1257.38
1026.377	1199.38
1026.591	1210.38
1026.805	1159.38
1027.019	1143.38
1027.233	1092.38
1027.447	1056.38
1027.661	1137.38
1027.875	1061.38
1028.088	1092.38
1028.302	1004.38
1028.516	972.38
1028.73	973.38
1028.943	935.38
1029.157	873.38
1029.37	838.38
1029.584	0.38
1029.797	-1.62
1030.011	-3.62
1030.224	-2.62
