Data from QEP037381__292__16-18-29-908.txt Node

Date: Fri Dec 16 16:18:29 EST 2022
User: dcclab
Spectrometer: QEP03738
Trigger mode: 4
Integration Time (sec): 1.000000E1
Scans to average: 1
Electric dark correction enabled: true
Nonlinearity correction enabled: false
Boxcar width: 0
XAxis mode: Wavelengths
Number of Pixels in Spectrum: 1044
>>>>>Begin Spectral Data<<<<<
784.041	12
784.3	1
784.558	-2
784.817	-4
785.075	111051
785.334	18997
785.592	8762
785.851	6146
786.109	4618
786.368	3567
786.626	2896
786.884	2394
787.143	2008
787.401	1675
787.659	1492
787.917	1258
788.175	1183
788.433	1031
788.691	926
788.949	844
789.207	821
789.465	723
789.723	686
789.98	639
790.238	656
790.496	632
790.753	608
791.011	621
791.268	574
791.526	554
791.783	575
792.041	557
792.298	459
792.556	532
792.813	511
793.07	483
793.327	462
793.584	557
793.841	498
794.099	492
794.356	545
794.613	447
794.869	494
795.126	460
795.383	445
795.64	456
795.897	413
796.153	462
796.41	464
796.667	436
796.923	436
797.18	451
797.436	465
797.693	445
797.949	497
798.206	522
798.462	437
798.718	506
798.974	464
799.231	536
799.487	506
799.743	519
799.999	535
800.255	543
800.511	516
800.767	575
801.023	572
801.279	599
801.534	662
801.79	718
802.046	736
802.302	912
802.557	1039
802.813	1301
803.068	1614
803.324	2250
803.579	3042
803.835	4323
804.09	5856
804.345	7701
804.601	9822
804.856	11892
805.111	13732
805.366	15182
805.621	16382
805.876	17131
806.131	17568
806.386	17938
806.641	18207
806.896	18533
807.151	18879
807.406	19184
807.661	19632
807.915	19826
808.17	20301
808.425	20520
808.679	20686
808.934	20870
809.188	21052
809.443	21325
809.697	21470
809.951	21656
810.206	21865
810.46	22079
810.714	22362
810.968	22612
811.223	22633
811.477	22871
811.731	23015
811.985	23204
812.239	23247
812.493	23265
812.747	23363
813	23486
813.254	23634
813.508	23785
813.762	23807
814.015	23988
814.269	24090
814.522	24407
814.776	24654
815.03	24833
815.283	25318
815.536	25816
815.79	26163
816.043	26529
816.296	26832
816.55	27042
816.803	27522
817.056	27783
817.309	28101
817.562	28341
817.815	28636
818.068	28933
818.321	29091
818.574	29470
818.827	29902
819.079	30173
819.332	30669
819.585	31193
819.838	31445
820.09	31648
820.343	31978
820.595	31839
820.848	32258
821.1	32588
821.353	32424
821.605	32392
821.857	32390
822.11	32145
822.362	32126
822.614	32140
822.866	32045
823.118	32249
823.37	32273
823.622	32314
823.874	32420
824.126	32510
824.378	32447
824.63	32729
824.882	32675
825.134	32589
825.385	32622
825.637	32577
825.888	32470
826.14	32380
826.392	32394
826.643	32095
826.895	31952
827.146	31886
827.397	31692
827.649	31762
827.9	31790
828.151	31765
828.402	31873
828.653	31983
828.905	32068
829.156	32161
829.407	32151
829.658	32126
829.909	32315
830.159	32388
830.41	32088
830.661	31841
830.912	31676
831.162	31490
831.413	31521
831.664	31550
831.914	31396
832.165	31386
832.415	31472
832.666	31497
832.916	31438
833.167	31302
833.417	31409
833.667	31414
833.917	31221
834.168	31186
834.418	30922
834.668	30968
834.918	30691
835.168	30793
835.418	30532
835.668	30432
835.918	30460
836.167	30361
836.417	30237
836.667	30202
836.917	30142
837.166	30180
837.416	30265
837.666	30306
837.915	30182
838.165	29992
838.414	30082
838.663	29849
838.913	30018
839.162	29820
839.411	29840
839.661	29679
839.91	29627
840.159	29584
840.408	29462
840.657	29453
840.906	29428
841.155	29574
841.404	29436
841.653	29692
841.902	29484
842.15	29601
842.399	29760
842.648	29551
842.897	29466
843.145	29135
843.394	29124
843.642	28944
843.891	28861
844.139	28621
844.388	28534
844.636	28372
844.884	28274
845.133	28421
845.381	28257
845.629	28253
845.877	28208
846.125	28217
846.373	28099
846.621	28077
846.869	28050
847.117	27813
847.365	27540
847.613	27341
847.861	27452
848.108	27503
848.356	27421
848.604	27161
848.851	27395
849.099	27338
849.346	27407
849.594	27369
849.841	27685
850.089	27623
850.336	27549
850.583	27655
850.831	27443
851.078	27354
851.325	27257
851.572	27298
851.819	27141
852.066	26637
852.313	26296
852.56	25973
852.807	25965
853.054	25897
853.301	25963
853.548	25889
853.794	26092
854.041	26038
854.288	26101
854.534	26478
854.781	26299
855.028	26311
855.274	26105
855.52	26087
855.767	25865
856.013	26053
856.26	26367
856.506	25621
856.752	25755
856.998	25833
857.244	25836
857.49	25862
857.736	25991
857.982	25917
858.228	25839
858.474	25658
858.72	25451
858.966	25198
859.212	24929
859.458	24817
859.703	24479
859.949	24216
860.195	24089
860.44	23956
860.686	23862
860.931	23962
861.177	23709
861.422	23726
861.667	23532
861.913	23483
862.158	23510
862.403	23614
862.648	23658
862.893	23619
863.138	23661
863.384	23525
863.629	23524
863.873	23586
864.118	23392
864.363	23358
864.608	23333
864.853	23244
865.098	23097
865.342	22998
865.587	22831
865.832	22845
866.076	22781
866.321	22704
866.565	22725
866.81	22522
867.054	22462
867.298	22329
867.543	22456
867.787	22274
868.031	22252
868.275	22297
868.519	22162
868.764	22172
869.008	22035
869.252	22130
869.496	22044
869.739	21961
869.983	21952
870.227	21924
870.471	21932
870.715	22033
870.958	21983
871.202	21982
871.446	21869
871.689	22086
871.933	22110
872.176	22026
872.42	22007
872.663	22006
872.906	21913
873.15	21874
873.393	21744
873.636	21774
873.879	21605
874.122	21371
874.366	20991
874.609	20926
874.852	20728
875.095	20532
875.337	20435
875.58	20332
875.823	20315
876.066	20282
876.309	20218
876.551	20070
876.794	19913
877.037	19971
877.279	19786
877.522	19901
877.764	19813
878.007	19805
878.249	19727
878.491	19754
878.734	19689
878.976	19570
879.218	19469
879.46	19392
879.702	19251
879.945	19033
880.187	18821
880.429	18850
880.671	18668
880.912	18666
881.154	18583
881.396	18523
881.638	18530
881.88	18489
882.121	18431
882.363	18485
882.605	18554
882.846	18363
883.088	18434
883.329	18380
883.571	18370
883.812	18609
884.053	18853
884.295	19249
884.536	19495
884.777	19305
885.018	19232
885.259	19187
885.5	18887
885.742	19081
885.982	18818
886.223	18677
886.464	18553
886.705	18375
886.946	18140
887.187	17903
887.428	17774
887.668	17399
887.909	17218
888.15	16991
888.39	16941
888.631	16748
888.871	16634
889.111	16527
889.352	16371
889.592	16250
889.833	16190
890.073	16015
890.313	16013
890.553	15788
890.793	15731
891.033	15689
891.273	15566
891.513	15596
891.753	15558
891.993	15446
892.233	15492
892.473	15566
892.713	15662
892.952	15476
893.192	15554
893.432	15520
893.671	15480
893.911	15359
894.15	15351
894.39	15121
894.629	15190
894.869	15141
895.108	14946
895.347	14795
895.587	14878
895.826	14857
896.065	14738
896.304	14825
896.543	14754
896.782	14608
897.021	14686
897.26	14601
897.499	14686
897.738	14631
897.977	14457
898.216	14338
898.454	14233
898.693	14103
898.932	14063
899.17	13985
899.409	14002
899.647	14055
899.886	13912
900.124	13916
900.363	13888
900.601	13994
900.839	14009
901.078	14121
901.316	14095
901.554	14122
901.792	14303
902.03	14208
902.268	14242
902.506	14204
902.744	13979
902.982	13974
903.22	13739
903.458	13629
903.695	13367
903.933	13223
904.171	12945
904.409	12645
904.646	12609
904.884	12451
905.121	12377
905.359	12207
905.596	12044
905.833	11893
906.071	11871
906.308	11908
906.545	11842
906.783	11751
907.02	11661
907.257	11581
907.494	11569
907.731	11577
907.968	11546
908.205	11453
908.442	11439
908.679	11319
908.915	11180
909.152	11138
909.389	11034
909.626	11004
909.862	10827
910.099	10813
910.335	10788
910.572	10731
910.808	10667
911.045	10660
911.281	10563
911.518	10626
911.754	10447
911.99	10468
912.226	10391
912.463	10331
912.699	10227
912.935	10164
913.171	10020
913.407	9963
913.643	9926
913.879	9825
914.114	9713
914.35	9631
914.586	9561
914.822	9344
915.057	9433
915.293	9271
915.529	9309
915.764	9292
916	9261
916.235	9213
916.471	9195
916.706	9097
916.941	9194
917.177	9137
917.412	9098
917.647	9086
917.882	9129
918.117	9078
918.352	8982
918.588	9038
918.823	8938
919.057	8772
919.292	8693
919.527	8740
919.762	8599
919.997	8509
920.232	8375
920.466	8387
920.701	8205
920.935	8259
921.17	8216
921.405	8096
921.639	8166
921.873	8060
922.108	7996
922.342	8019
922.576	7881
922.811	7980
923.045	7913
923.279	7895
923.513	7698
923.747	7824
923.981	7712
924.215	7610
924.449	7619
924.683	7524
924.917	7525
925.151	7526
925.385	7485
925.618	7409
925.852	7425
926.086	7373
926.319	7379
926.553	7356
926.786	7406
927.02	7334
927.253	7369
927.486	7379
927.72	7250
927.953	7321
928.186	7224
928.42	7261
928.653	7199
928.886	7104
929.119	7081
929.352	7131
929.585	7051
929.818	6961
930.051	6985
930.284	6923
930.516	6779
930.749	6724
930.982	6814
931.215	6737
931.447	6659
931.68	6660
931.912	6574
932.145	6605
932.377	6632
932.61	6754
932.842	6520
933.074	6638
933.307	6559
933.539	6673
933.771	6602
934.003	6557
934.236	6613
934.468	6662
934.7	6513
934.932	6547
935.164	6453
935.395	6476
935.627	6499
935.859	6451
936.091	6370
936.323	6453
936.554	6416
936.786	6295
937.017	6293
937.249	6264
937.481	6201
937.712	6245
937.943	6194
938.175	6156
938.406	6172
938.637	6253
938.869	6117
939.1	6192
939.331	6123
939.562	6124
939.793	6124
940.024	6110
940.255	6091
940.486	6034
940.717	6028
940.948	5883
941.179	5913
941.409	5968
941.64	5883
941.871	5892
942.102	5809
942.332	5876
942.563	5897
942.793	5909
943.024	5815
943.254	5823
943.484	5890
943.715	5892
943.945	5837
944.175	5796
944.405	5769
944.636	5764
944.866	5775
945.096	5829
945.326	5735
945.556	5781
945.786	5734
946.016	5659
946.245	5576
946.475	5555
946.705	5535
946.935	5529
947.164	5477
947.394	5443
947.624	5454
947.853	5441
948.083	5400
948.312	5331
948.542	5285
948.771	5247
949	5271
949.23	5256
949.459	5260
949.688	5313
949.917	5290
950.146	5239
950.375	5311
950.604	5258
950.833	5294
951.062	5235
951.291	5184
951.52	5089
951.749	5111
951.978	5092
952.206	5122
952.435	5069
952.664	5099
952.892	5092
953.121	5015
953.349	5054
953.578	5042
953.806	4994
954.035	4932
954.263	4894
954.491	4888
954.719	4922
954.948	4829
955.176	4814
955.404	4754
955.632	4744
955.86	4749
956.088	4743
956.316	4764
956.544	4733
956.772	4679
956.999	4640
957.227	4680
957.455	4549
957.683	4573
957.91	4511
958.138	4497
958.365	4504
958.593	4438
958.82	4420
959.048	4497
959.275	4447
959.502	4344
959.73	4401
959.957	4415
960.184	4416
960.411	4333
960.638	4388
960.865	4324
961.092	4355
961.319	4312
961.546	4350
961.773	4345
962	4363
962.227	4382
962.454	4317
962.68	4247
962.907	4259
963.134	4216
963.36	4217
963.587	4243
963.813	4170
964.04	4129
964.266	4127
964.493	4121
964.719	4052
964.945	4077
965.171	4019
965.398	4006
965.624	3982
965.85	3941
966.076	3959
966.302	3956
966.528	3876
966.754	3904
966.98	3903
967.206	3910
967.431	3834
967.657	3878
967.883	3835
968.109	3839
968.334	3766
968.56	3800
968.785	3754
969.011	3728
969.236	3783
969.462	3703
969.687	3705
969.912	3767
970.138	3728
970.363	3710
970.588	3719
970.813	3662
971.038	3636
971.263	3682
971.488	3584
971.713	3650
971.938	3632
972.163	3542
972.388	3550
972.613	3502
972.838	3531
973.062	3530
973.287	3420
973.512	3404
973.736	3437
973.961	3456
974.185	3440
974.41	3432
974.634	3316
974.858	3318
975.083	3342
975.307	3325
975.531	3264
975.755	3210
975.98	3262
976.204	3142
976.428	3170
976.652	3135
976.876	3158
977.1	3195
977.324	3111
977.547	3126
977.771	3170
977.995	3087
978.219	3056
978.442	3179
978.666	3106
978.89	3120
979.113	3066
979.337	3035
979.56	3032
979.783	3096
980.007	2964
980.23	2994
980.453	2968
980.677	3005
980.9	2971
981.123	2858
981.346	2971
981.569	2956
981.792	2957
982.015	2925
982.238	2841
982.461	2853
982.684	2832
982.907	2771
983.129	2839
983.352	2825
983.575	2776
983.797	2803
984.02	2757
984.242	2726
984.465	2755
984.687	2741
984.91	2766
985.132	2711
985.354	2717
985.577	2752
985.799	2697
986.021	2620
986.243	2598
986.465	2624
986.687	2684
986.909	2698
987.131	2662
987.353	2558
987.575	2627
987.797	2606
988.019	2510
988.241	2558
988.462	2523
988.684	2615
988.906	2604
989.127	2630
989.349	2486
989.57	2508
989.792	2582
990.013	2583
990.234	2545
990.456	2553
990.677	2574
990.898	2512
991.119	2461
991.341	2452
991.562	2406
991.783	2463
992.004	2404
992.225	2389
992.446	2395
992.667	2321
992.887	2395
993.108	2294
993.329	2393
993.55	2340
993.77	2270
993.991	2250
994.212	2311
994.432	2280
994.653	2280
994.873	2277
995.093	2181
995.314	2180
995.534	2268
995.754	2282
995.975	2282
996.195	2189
996.415	2243
996.635	2210
996.855	2215
997.075	2219
997.295	2168
997.515	2157
997.735	2243
997.955	2205
998.174	2198
998.394	2152
998.614	2205
998.834	2156
999.053	2189
999.273	2183
999.492	2232
999.712	2162
999.931	2076
1000.151	2100
1000.37	2087
1000.589	2135
1000.809	2077
1001.028	2157
1001.247	2117
1001.466	2003
1001.685	2110
1001.904	2054
1002.123	2050
1002.342	2071
1002.561	1990
1002.78	2026
1002.999	2071
1003.218	2023
1003.436	1973
1003.655	2020
1003.874	1955
1004.092	1973
1004.311	2011
1004.53	1964
1004.748	2028
1004.966	1931
1005.185	2013
1005.403	2008
1005.622	1966
1005.84	2013
1006.058	1922
1006.276	1967
1006.494	2418
1006.712	1929
1006.931	2019
1007.149	1929
1007.367	1935
1007.584	1975
1007.802	1996
1008.02	1943
1008.238	2071
1008.456	2057
1008.673	1931
1008.891	2052
1009.109	1997
1009.326	2059
1009.544	2152
1009.761	2073
1009.979	2206
1010.196	2234
1010.413	2364
1010.631	2426
1010.848	2487
1011.065	2510
1011.282	2448
1011.5	2388
1011.717	2473
1011.934	2411
1012.151	2454
1012.368	2445
1012.585	2386
1012.801	2426
1013.018	2380
1013.235	2364
1013.452	2386
1013.669	2369
1013.885	2381
1014.102	2438
1014.318	2405
1014.535	2392
1014.751	2367
1014.968	2389
1015.184	2392
1015.401	2285
1015.617	2299
1015.833	2249
1016.049	2236
1016.266	2215
1016.482	2208
1016.698	2141
1016.914	2183
1017.13	2106
1017.346	2102
1017.562	2167
1017.778	2053
1017.993	2040
1018.209	2124
1018.425	2064
1018.641	2031
1018.856	2053
1019.072	2053
1019.288	2066
1019.503	2040
1019.719	1957
1019.934	1985
1020.149	2034
1020.365	1959
1020.58	1912
1020.795	1923
1021.011	1838
1021.226	1826
1021.441	1809
1021.656	1718
1021.871	1642
1022.086	1645
1022.301	1645
1022.516	1621
1022.731	1647
1022.946	1576
1023.16	1555
1023.375	1503
1023.59	1461
1023.804	1456
1024.019	1522
1024.234	1393
1024.448	1409
1024.663	1326
1024.877	1347
1025.092	1330
1025.306	1333
1025.52	1226
1025.734	1300
1025.949	1193
1026.163	1190
1026.377	1117
1026.591	1180
1026.805	1090
1027.019	1063
1027.233	1016
1027.447	984
1027.661	1060
1027.875	1003
1028.088	1012
1028.302	944
1028.516	915
1028.73	921
1028.943	883
1029.157	827
1029.37	769
1029.584	-3
1029.797	-1
1030.011	-2
1030.224	-1
