Data from QEP037381__299__16-19-39-909.txt Node

Date: Fri Dec 16 16:19:39 EST 2022
User: dcclab
Spectrometer: QEP03738
Trigger mode: 4
Integration Time (sec): 1.000000E1
Scans to average: 1
Electric dark correction enabled: true
Nonlinearity correction enabled: false
Boxcar width: 0
XAxis mode: Wavelengths
Number of Pixels in Spectrum: 1044
>>>>>Begin Spectral Data<<<<<
784.041	11.5
784.3	-0.5
784.558	-1.5
784.817	-1.5
785.075	114534.5
785.334	19660.5
785.592	9236.5
785.851	6327.5
786.109	4746.5
786.368	3725.5
786.626	2975.5
786.884	2479.5
787.143	2093.5
787.401	1725.5
787.659	1545.5
787.917	1300.5
788.175	1215.5
788.433	1062.5
788.691	952.5
788.949	889.5
789.207	845.5
789.465	727.5
789.723	718.5
789.98	667.5
790.238	694.5
790.496	642.5
790.753	609.5
791.011	662.5
791.268	593.5
791.526	574.5
791.783	581.5
792.041	558.5
792.298	480.5
792.556	547.5
792.813	525.5
793.07	500.5
793.327	501.5
793.584	561.5
793.841	516.5
794.099	509.5
794.356	573.5
794.613	467.5
794.869	501.5
795.126	458.5
795.383	467.5
795.64	468.5
795.897	434.5
796.153	492.5
796.41	478.5
796.667	459.5
796.923	466.5
797.18	484.5
797.436	497.5
797.693	466.5
797.949	521.5
798.206	560.5
798.462	467.5
798.718	529.5
798.974	516.5
799.231	548.5
799.487	556.5
799.743	567.5
799.999	598.5
800.255	586.5
800.511	599.5
800.767	634.5
801.023	651.5
801.279	693.5
801.534	739.5
801.79	807.5
802.046	879.5
802.302	1066.5
802.557	1240.5
802.813	1593.5
803.068	2024.5
803.324	2853.5
803.579	3976.5
803.835	5537.5
804.09	7599.5
804.345	10117.5
804.601	12670.5
804.856	15439.5
805.111	17907.5
805.366	19752.5
805.621	21178.5
805.876	22266.5
806.131	22762.5
806.386	23229.5
806.641	23742.5
806.896	24209.5
807.151	24513.5
807.406	24950.5
807.661	25474.5
807.915	25810.5
808.17	26456.5
808.425	26665.5
808.679	26786.5
808.934	27145.5
809.188	27452.5
809.443	27738.5
809.697	28170.5
809.951	28350.5
810.206	28586.5
810.46	28890.5
810.714	29069.5
810.968	29282.5
811.223	29549.5
811.477	29844.5
811.731	30092.5
811.985	30203.5
812.239	30461.5
812.493	30611.5
812.747	30711.5
813	30658.5
813.254	30966.5
813.508	31275.5
813.762	31226.5
814.015	31390.5
814.269	31714.5
814.522	31897.5
814.776	32442.5
815.03	32741.5
815.283	33219.5
815.536	33825.5
815.79	34340.5
816.043	34848.5
816.296	35280.5
816.55	35731.5
816.803	36140.5
817.056	36578.5
817.309	36856.5
817.562	37266.5
817.815	37807.5
818.068	37858.5
818.321	38496.5
818.574	38845.5
818.827	39421.5
819.079	39898.5
819.332	40531.5
819.585	41046.5
819.838	41485.5
820.09	41725.5
820.343	42155.5
820.595	42287.5
820.848	42541.5
821.1	42802.5
821.353	42687.5
821.605	42779.5
821.857	42720.5
822.11	42588.5
822.362	42522.5
822.614	42608.5
822.866	42527.5
823.118	42443.5
823.37	42660.5
823.622	42709.5
823.874	42915.5
824.126	43196.5
824.378	43119.5
824.63	43290.5
824.882	43341.5
825.134	43439.5
825.385	43220.5
825.637	43094.5
825.888	43106.5
826.14	43283.5
826.392	42969.5
826.643	42750.5
826.895	42523.5
827.146	42499.5
827.397	42501.5
827.649	42463.5
827.9	42341.5
828.151	42492.5
828.402	42589.5
828.653	42584.5
828.905	42886.5
829.156	42940.5
829.407	42992.5
829.658	43023.5
829.909	43094.5
830.159	42929.5
830.41	42797.5
830.661	42540.5
830.912	42193.5
831.162	42151.5
831.413	42006.5
831.664	42137.5
831.914	42242.5
832.165	42003.5
832.415	42043.5
832.666	42174.5
832.916	42044.5
833.167	42180.5
833.417	42153.5
833.667	41942.5
833.917	41752.5
834.168	41889.5
834.418	41578.5
834.668	41537.5
834.918	41402.5
835.168	41099.5
835.418	41039.5
835.668	40850.5
835.918	40706.5
836.167	40628.5
836.417	40674.5
836.667	40645.5
836.917	40705.5
837.166	40422.5
837.416	40594.5
837.666	40736.5
837.915	40487.5
838.165	40423.5
838.414	40121.5
838.663	40364.5
838.913	40001.5
839.162	40072.5
839.411	40274.5
839.661	40080.5
839.91	39773.5
840.159	39800.5
840.408	39708.5
840.657	39777.5
840.906	39854.5
841.155	39937.5
841.404	39784.5
841.653	39892.5
841.902	39854.5
842.15	40032.5
842.399	40019.5
842.648	39895.5
842.897	39599.5
843.145	39430.5
843.394	39243.5
843.642	39014.5
843.891	38950.5
844.139	38725.5
844.388	38462.5
844.636	38555.5
844.884	38500.5
845.133	38484.5
845.381	38436.5
845.629	38487.5
845.877	38370.5
846.125	38229.5
846.373	38282.5
846.621	37992.5
846.869	38057.5
847.117	37853.5
847.365	37614.5
847.613	37395.5
847.861	37220.5
848.108	37304.5
848.356	37161.5
848.604	37208.5
848.851	37289.5
849.099	37141.5
849.346	37379.5
849.594	37483.5
849.841	37565.5
850.089	37542.5
850.336	37721.5
850.583	37708.5
850.831	37361.5
851.078	37243.5
851.325	37232.5
851.572	37263.5
851.819	36962.5
852.066	36352.5
852.313	36024.5
852.56	35637.5
852.807	35595.5
853.054	35505.5
853.301	35306.5
853.548	35465.5
853.794	35649.5
854.041	35531.5
854.288	35952.5
854.534	35995.5
854.781	35956.5
855.028	35845.5
855.274	35908.5
855.52	35609.5
855.767	35439.5
856.013	35397.5
856.26	35694.5
856.506	35153.5
856.752	35077.5
856.998	35088.5
857.244	35241.5
857.49	35312.5
857.736	35615.5
857.982	35534.5
858.228	35427.5
858.474	35169.5
858.72	34886.5
858.966	34675.5
859.212	34495.5
859.458	34031.5
859.703	33659.5
859.949	33351.5
860.195	33225.5
860.44	33015.5
860.686	32853.5
860.931	32783.5
861.177	32580.5
861.422	32444.5
861.667	32353.5
861.913	32456.5
862.158	32594.5
862.403	32538.5
862.648	32576.5
862.893	32659.5
863.138	32717.5
863.384	32434.5
863.629	32430.5
863.873	32287.5
864.118	32388.5
864.363	32357.5
864.608	32183.5
864.853	32011.5
865.098	31824.5
865.342	31722.5
865.587	31526.5
865.832	31558.5
866.076	31502.5
866.321	31536.5
866.565	31495.5
866.81	31186.5
867.054	31204.5
867.298	30974.5
867.543	30893.5
867.787	30822.5
868.031	30918.5
868.275	30704.5
868.519	30751.5
868.764	30622.5
869.008	30619.5
869.252	30468.5
869.496	30271.5
869.739	30434.5
869.983	30337.5
870.227	30218.5
870.471	30228.5
870.715	30282.5
870.958	30473.5
871.202	30284.5
871.446	30377.5
871.689	30469.5
871.933	30489.5
872.176	30466.5
872.42	30385.5
872.663	30356.5
872.906	30116.5
873.15	30013.5
873.393	29925.5
873.636	29784.5
873.879	29622.5
874.122	29301.5
874.366	28889.5
874.609	28929.5
874.852	28501.5
875.095	28402.5
875.337	28285.5
875.58	28015.5
875.823	28034.5
876.066	27921.5
876.309	27918.5
876.551	27655.5
876.794	27653.5
877.037	27592.5
877.279	27435.5
877.522	27425.5
877.764	27515.5
878.007	27305.5
878.249	27404.5
878.491	27357.5
878.734	27369.5
878.976	27265.5
879.218	27091.5
879.46	26965.5
879.702	26760.5
879.945	26490.5
880.187	26319.5
880.429	26128.5
880.671	25928.5
880.912	25993.5
881.154	25902.5
881.396	25723.5
881.638	25779.5
881.88	25694.5
882.121	25761.5
882.363	25509.5
882.605	25537.5
882.846	25336.5
883.088	25368.5
883.329	25306.5
883.571	25332.5
883.812	25471.5
884.053	25641.5
884.295	26057.5
884.536	26273.5
884.777	26106.5
885.018	25971.5
885.259	25898.5
885.5	25757.5
885.742	25920.5
885.982	25719.5
886.223	25453.5
886.464	25306.5
886.705	25201.5
886.946	24991.5
887.187	24612.5
887.428	24435.5
887.668	24101.5
887.909	23864.5
888.15	23470.5
888.39	23519.5
888.631	23368.5
888.871	22974.5
889.111	22880.5
889.352	22827.5
889.592	22595.5
889.833	22436.5
890.073	22166.5
890.313	22124.5
890.553	21899.5
890.793	21883.5
891.033	21762.5
891.273	21788.5
891.513	21552.5
891.753	21626.5
891.993	21530.5
892.233	21589.5
892.473	21647.5
892.713	21598.5
892.952	21535.5
893.192	21526.5
893.432	21485.5
893.671	21543.5
893.911	21389.5
894.15	21116.5
894.39	21049.5
894.629	20900.5
894.869	20798.5
895.108	20630.5
895.347	20634.5
895.587	20529.5
895.826	20486.5
896.065	20362.5
896.304	20398.5
896.543	20415.5
896.782	20150.5
897.021	20265.5
897.26	20164.5
897.499	20287.5
897.738	20162.5
897.977	19849.5
898.216	19776.5
898.454	19648.5
898.693	19496.5
898.932	19328.5
899.17	19268.5
899.409	19282.5
899.647	19165.5
899.886	19099.5
900.124	19181.5
900.363	19120.5
900.601	19223.5
900.839	19199.5
901.078	19237.5
901.316	19203.5
901.554	19310.5
901.792	19297.5
902.03	19298.5
902.268	19330.5
902.506	19294.5
902.744	19120.5
902.982	18909.5
903.22	18738.5
903.458	18424.5
903.695	18196.5
903.933	18051.5
904.171	17786.5
904.409	17368.5
904.646	17329.5
904.884	16948.5
905.121	16916.5
905.359	16751.5
905.596	16451.5
905.833	16325.5
906.071	16292.5
906.308	16318.5
906.545	16131.5
906.783	16054.5
907.02	16054.5
907.257	15903.5
907.494	15959.5
907.731	15961.5
907.968	15876.5
908.205	15659.5
908.442	15566.5
908.679	15572.5
908.915	15498.5
909.152	15333.5
909.389	15103.5
909.626	14981.5
909.862	14872.5
910.099	14925.5
910.335	14870.5
910.572	14608.5
910.808	14714.5
911.045	14583.5
911.281	14608.5
911.518	14559.5
911.754	14395.5
911.99	14293.5
912.226	14203.5
912.463	14136.5
912.699	14074.5
912.935	13947.5
913.171	13811.5
913.407	13614.5
913.643	13611.5
913.879	13457.5
914.114	13317.5
914.35	13188.5
914.586	13139.5
914.822	12940.5
915.057	12943.5
915.293	12712.5
915.529	12595.5
915.764	12705.5
916	12665.5
916.235	12580.5
916.471	12530.5
916.706	12444.5
916.941	12451.5
917.177	12393.5
917.412	12470.5
917.647	12452.5
917.882	12375.5
918.117	12441.5
918.352	12287.5
918.588	12322.5
918.823	12204.5
919.057	12032.5
919.292	11787.5
919.527	11831.5
919.762	11598.5
919.997	11661.5
920.232	11424.5
920.466	11315.5
920.701	11166.5
920.935	11198.5
921.17	11087.5
921.405	11006.5
921.639	11065.5
921.873	10927.5
922.108	10961.5
922.342	10866.5
922.576	10795.5
922.811	10757.5
923.045	10807.5
923.279	10666.5
923.513	10514.5
923.747	10540.5
923.981	10551.5
924.215	10276.5
924.449	10329.5
924.683	10196.5
924.917	10155.5
925.151	10137.5
925.385	10146.5
925.618	10111.5
925.852	9990.5
926.086	9970.5
926.319	9959.5
926.553	9957.5
926.786	9962.5
927.02	9929.5
927.253	9972.5
927.486	9957.5
927.72	9872.5
927.953	9839.5
928.186	9731.5
928.42	9805.5
928.653	9669.5
928.886	9658.5
929.119	9645.5
929.352	9488.5
929.585	9473.5
929.818	9345.5
930.051	9405.5
930.284	9260.5
930.516	9207.5
930.749	9123.5
930.982	9051.5
931.215	9087.5
931.447	8937.5
931.68	8977.5
931.912	8821.5
932.145	8893.5
932.377	8893.5
932.61	8962.5
932.842	8784.5
933.074	8842.5
933.307	8811.5
933.539	8890.5
933.771	8828.5
934.003	8758.5
934.236	8839.5
934.468	8877.5
934.7	8714.5
934.932	8752.5
935.164	8654.5
935.395	8617.5
935.627	8624.5
935.859	8584.5
936.091	8510.5
936.323	8531.5
936.554	8507.5
936.786	8435.5
937.017	8355.5
937.249	8405.5
937.481	8332.5
937.712	8380.5
937.943	8334.5
938.175	8237.5
938.406	8306.5
938.637	8326.5
938.869	8167.5
939.1	8203.5
939.331	8166.5
939.562	8215.5
939.793	8129.5
940.024	8140.5
940.255	8075.5
940.486	8039.5
940.717	7987.5
940.948	7932.5
941.179	7860.5
941.409	7865.5
941.64	7809.5
941.871	7858.5
942.102	7772.5
942.332	7833.5
942.563	7857.5
942.793	7806.5
943.024	7807.5
943.254	7759.5
943.484	7813.5
943.715	7813.5
943.945	7801.5
944.175	7729.5
944.405	7678.5
944.636	7701.5
944.866	7734.5
945.096	7696.5
945.326	7546.5
945.556	7596.5
945.786	7658.5
946.016	7496.5
946.245	7412.5
946.475	7385.5
946.705	7374.5
946.935	7333.5
947.164	7279.5
947.394	7261.5
947.624	7177.5
947.853	7199.5
948.083	7179.5
948.312	7115.5
948.542	7041.5
948.771	6973.5
949	6997.5
949.23	6995.5
949.459	7023.5
949.688	7042.5
949.917	6971.5
950.146	6935.5
950.375	6986.5
950.604	6902.5
950.833	6995.5
951.062	6936.5
951.291	6821.5
951.52	6802.5
951.749	6806.5
951.978	6789.5
952.206	6783.5
952.435	6679.5
952.664	6714.5
952.892	6702.5
953.121	6679.5
953.349	6668.5
953.578	6601.5
953.806	6544.5
954.035	6527.5
954.263	6556.5
954.491	6419.5
954.719	6486.5
954.948	6356.5
955.176	6331.5
955.404	6287.5
955.632	6296.5
955.86	6312.5
956.088	6192.5
956.316	6257.5
956.544	6259.5
956.772	6111.5
956.999	6142.5
957.227	6112.5
957.455	6036.5
957.683	6047.5
957.91	5981.5
958.138	5933.5
958.365	5882.5
958.593	5896.5
958.82	5813.5
959.048	5899.5
959.275	5880.5
959.502	5770.5
959.73	5777.5
959.957	5761.5
960.184	5839.5
960.411	5741.5
960.638	5765.5
960.865	5728.5
961.092	5771.5
961.319	5614.5
961.546	5755.5
961.773	5714.5
962	5640.5
962.227	5701.5
962.454	5633.5
962.68	5624.5
962.907	5594.5
963.134	5553.5
963.36	5482.5
963.587	5518.5
963.813	5427.5
964.04	5419.5
964.266	5340.5
964.493	5378.5
964.719	5364.5
964.945	5292.5
965.171	5213.5
965.398	5208.5
965.624	5154.5
965.85	5107.5
966.076	5089.5
966.302	5143.5
966.528	5031.5
966.754	5126.5
966.98	5050.5
967.206	5016.5
967.431	4948.5
967.657	5008.5
967.883	5032.5
968.109	4959.5
968.334	4918.5
968.56	4906.5
968.785	4855.5
969.011	4886.5
969.236	4881.5
969.462	4818.5
969.687	4801.5
969.912	4879.5
970.138	4852.5
970.363	4778.5
970.588	4795.5
970.813	4756.5
971.038	4711.5
971.263	4737.5
971.488	4713.5
971.713	4753.5
971.938	4681.5
972.163	4568.5
972.388	4598.5
972.613	4529.5
972.838	4565.5
973.062	4546.5
973.287	4517.5
973.512	4457.5
973.736	4435.5
973.961	4380.5
974.185	4423.5
974.41	4403.5
974.634	4283.5
974.858	4272.5
975.083	4321.5
975.307	4327.5
975.531	4210.5
975.755	4187.5
975.98	4164.5
976.204	4039.5
976.428	4070.5
976.652	4102.5
976.876	4045.5
977.1	4076.5
977.324	4007.5
977.547	4038.5
977.771	4065.5
977.995	4026.5
978.219	3966.5
978.442	4037.5
978.666	3979.5
978.89	3983.5
979.113	4002.5
979.337	3927.5
979.56	3883.5
979.783	3954.5
980.007	3853.5
980.23	3868.5
980.453	3825.5
980.677	3869.5
980.9	3838.5
981.123	3721.5
981.346	3800.5
981.569	3762.5
981.792	3758.5
982.015	3736.5
982.238	3710.5
982.461	3693.5
982.684	3632.5
982.907	3601.5
983.129	3560.5
983.352	3607.5
983.575	3574.5
983.797	3582.5
984.02	3498.5
984.242	3476.5
984.465	3473.5
984.687	3499.5
984.91	3500.5
985.132	3477.5
985.354	3457.5
985.577	3433.5
985.799	3424.5
986.021	3349.5
986.243	3336.5
986.465	3332.5
986.687	3400.5
986.909	3388.5
987.131	3339.5
987.353	3299.5
987.575	3329.5
987.797	3264.5
988.019	3197.5
988.241	3261.5
988.462	3232.5
988.684	3271.5
988.906	3264.5
989.127	3272.5
989.349	3150.5
989.57	3154.5
989.792	3215.5
990.013	3196.5
990.234	3227.5
990.456	3190.5
990.677	3175.5
990.898	3127.5
991.119	3081.5
991.341	3131.5
991.562	3052.5
991.783	3049.5
992.004	2994.5
992.225	2970.5
992.446	3035.5
992.667	2941.5
992.887	3011.5
993.108	2881.5
993.329	2992.5
993.55	2947.5
993.77	2895.5
993.991	2852.5
994.212	2871.5
994.432	2830.5
994.653	2872.5
994.873	2838.5
995.093	2703.5
995.314	2761.5
995.534	2810.5
995.754	2817.5
995.975	2831.5
996.195	2733.5
996.415	2779.5
996.635	2742.5
996.855	2759.5
997.075	2706.5
997.295	2736.5
997.515	2680.5
997.735	2737.5
997.955	2684.5
998.174	2719.5
998.394	2711.5
998.614	2712.5
998.834	2657.5
999.053	2742.5
999.273	2684.5
999.492	2745.5
999.712	2647.5
999.931	2577.5
1000.151	2648.5
1000.37	2640.5
1000.589	2639.5
1000.809	2545.5
1001.028	2668.5
1001.247	2613.5
1001.466	2453.5
1001.685	2564.5
1001.904	2529.5
1002.123	2467.5
1002.342	2497.5
1002.561	2408.5
1002.78	2411.5
1002.999	2475.5
1003.218	2437.5
1003.436	2393.5
1003.655	2454.5
1003.874	2383.5
1004.092	2410.5
1004.311	2421.5
1004.53	2429.5
1004.748	2452.5
1004.966	2352.5
1005.185	2386.5
1005.403	2425.5
1005.622	2364.5
1005.84	2395.5
1006.058	2332.5
1006.276	2314.5
1006.494	2868.5
1006.712	2331.5
1006.931	2412.5
1007.149	2278.5
1007.367	2315.5
1007.584	2360.5
1007.802	2389.5
1008.02	2358.5
1008.238	2397.5
1008.456	2401.5
1008.673	2312.5
1008.891	2401.5
1009.109	2357.5
1009.326	2435.5
1009.544	2548.5
1009.761	2462.5
1009.979	2560.5
1010.196	2606.5
1010.413	2740.5
1010.631	2808.5
1010.848	2870.5
1011.065	2877.5
1011.282	2849.5
1011.5	2771.5
1011.717	2881.5
1011.934	2797.5
1012.151	2819.5
1012.368	2812.5
1012.585	2702.5
1012.801	2799.5
1013.018	2745.5
1013.235	2732.5
1013.452	2731.5
1013.669	2732.5
1013.885	2745.5
1014.102	2823.5
1014.318	2746.5
1014.535	2710.5
1014.751	2758.5
1014.968	2724.5
1015.184	2743.5
1015.401	2629.5
1015.617	2684.5
1015.833	2589.5
1016.049	2602.5
1016.266	2561.5
1016.482	2551.5
1016.698	2443.5
1016.914	2472.5
1017.13	2478.5
1017.346	2445.5
1017.562	2500.5
1017.778	2366.5
1017.993	2399.5
1018.209	2403.5
1018.425	2409.5
1018.641	2408.5
1018.856	2331.5
1019.072	2394.5
1019.288	2412.5
1019.503	2333.5
1019.719	2262.5
1019.934	2281.5
1020.149	2361.5
1020.365	2240.5
1020.58	2199.5
1020.795	2226.5
1021.011	2112.5
1021.226	2100.5
1021.441	2136.5
1021.656	2045.5
1021.871	1943.5
1022.086	1941.5
1022.301	1901.5
1022.516	1892.5
1022.731	1911.5
1022.946	1827.5
1023.16	1792.5
1023.375	1751.5
1023.59	1716.5
1023.804	1707.5
1024.019	1752.5
1024.234	1617.5
1024.448	1658.5
1024.663	1560.5
1024.877	1581.5
1025.092	1587.5
1025.306	1531.5
1025.52	1463.5
1025.734	1497.5
1025.949	1405.5
1026.163	1391.5
1026.377	1319.5
1026.591	1346.5
1026.805	1247.5
1027.019	1233.5
1027.233	1203.5
1027.447	1145.5
1027.661	1236.5
1027.875	1175.5
1028.088	1173.5
1028.302	1083.5
1028.516	1048.5
1028.73	1046.5
1028.943	990.5
1029.157	967.5
1029.37	890.5
1029.584	-3.5
1029.797	-2.5
1030.011	-1.5
1030.224	-0.5
