Data from QEP037381__300__16-19-49-909.txt Node

Date: Fri Dec 16 16:19:49 EST 2022
User: dcclab
Spectrometer: QEP03738
Trigger mode: 4
Integration Time (sec): 1.000000E1
Scans to average: 1
Electric dark correction enabled: true
Nonlinearity correction enabled: false
Boxcar width: 0
XAxis mode: Wavelengths
Number of Pixels in Spectrum: 1044
>>>>>Begin Spectral Data<<<<<
784.041	11.12
784.3	1.12
784.558	-2.88
784.817	-1.88
785.075	113210.12
785.334	19403.12
785.592	9063.12
785.851	6258.12
786.109	4710.12
786.368	3644.12
786.626	2945.12
786.884	2449.12
787.143	2066.12
787.401	1672.12
787.659	1549.12
787.917	1324.12
788.175	1181.12
788.433	1032.12
788.691	941.12
788.949	873.12
789.207	835.12
789.465	730.12
789.723	678.12
789.98	631.12
790.238	660.12
790.496	624.12
790.753	585.12
791.011	647.12
791.268	561.12
791.526	554.12
791.783	569.12
792.041	552.12
792.298	455.12
792.556	535.12
792.813	509.12
793.07	485.12
793.327	466.12
793.584	555.12
793.841	469.12
794.099	489.12
794.356	561.12
794.613	441.12
794.869	495.12
795.126	454.12
795.383	436.12
795.64	449.12
795.897	404.12
796.153	466.12
796.41	445.12
796.667	438.12
796.923	443.12
797.18	444.12
797.436	472.12
797.693	437.12
797.949	496.12
798.206	507.12
798.462	432.12
798.718	482.12
798.974	469.12
799.231	517.12
799.487	488.12
799.743	518.12
799.999	536.12
800.255	552.12
800.511	537.12
800.767	577.12
801.023	558.12
801.279	605.12
801.534	629.12
801.79	689.12
802.046	729.12
802.302	885.12
802.557	1023.12
802.813	1270.12
803.068	1639.12
803.324	2233.12
803.579	2992.12
803.835	4197.12
804.09	5729.12
804.345	7492.12
804.601	9520.12
804.856	11436.12
805.111	13306.12
805.366	14607.12
805.621	15645.12
805.876	16332.12
806.131	16708.12
806.386	17095.12
806.641	17461.12
806.896	17794.12
807.151	18030.12
807.406	18310.12
807.661	18630.12
807.915	18953.12
808.17	19295.12
808.425	19545.12
808.679	19654.12
808.934	19892.12
809.188	20019.12
809.443	20233.12
809.697	20495.12
809.951	20580.12
810.206	20791.12
810.46	20967.12
810.714	21129.12
810.968	21390.12
811.223	21455.12
811.477	21844.12
811.731	21849.12
811.985	22179.12
812.239	22168.12
812.493	22152.12
812.747	22329.12
813	22373.12
813.254	22522.12
813.508	22674.12
813.762	22763.12
814.015	22898.12
814.269	22917.12
814.522	23178.12
814.776	23433.12
815.03	23700.12
815.283	23984.12
815.536	24450.12
815.79	24739.12
816.043	25188.12
816.296	25454.12
816.55	25836.12
816.803	25981.12
817.056	26302.12
817.309	26600.12
817.562	26964.12
817.815	27259.12
818.068	27416.12
818.321	27629.12
818.574	27897.12
818.827	28228.12
819.079	28644.12
819.332	29087.12
819.585	29398.12
819.838	29867.12
820.09	30071.12
820.343	30258.12
820.595	30331.12
820.848	30501.12
821.1	30550.12
821.353	30699.12
821.605	30629.12
821.857	30681.12
822.11	30498.12
822.362	30392.12
822.614	30480.12
822.866	30496.12
823.118	30318.12
823.37	30517.12
823.622	30663.12
823.874	30650.12
824.126	30923.12
824.378	30705.12
824.63	31058.12
824.882	30941.12
825.134	31067.12
825.385	30919.12
825.637	30828.12
825.888	30811.12
826.14	30666.12
826.392	30549.12
826.643	30433.12
826.895	30347.12
827.146	30276.12
827.397	29919.12
827.649	30184.12
827.9	30107.12
828.151	30345.12
828.402	30191.12
828.653	30384.12
828.905	30380.12
829.156	30502.12
829.407	30488.12
829.658	30590.12
829.909	30587.12
830.159	30607.12
830.41	30447.12
830.661	30308.12
830.912	29994.12
831.162	29989.12
831.413	29865.12
831.664	29974.12
831.914	29904.12
832.165	29996.12
832.415	29859.12
832.666	29857.12
832.916	29857.12
833.167	29932.12
833.417	29849.12
833.667	29725.12
833.917	29714.12
834.168	29519.12
834.418	29547.12
834.668	29406.12
834.918	29162.12
835.168	29267.12
835.418	29076.12
835.668	29091.12
835.918	28882.12
836.167	28779.12
836.417	28778.12
836.667	28611.12
836.917	28707.12
837.166	28734.12
837.416	28791.12
837.666	28777.12
837.915	28562.12
838.165	28533.12
838.414	28415.12
838.663	28484.12
838.913	28351.12
839.162	28342.12
839.411	28350.12
839.661	28260.12
839.91	28183.12
840.159	28185.12
840.408	28212.12
840.657	28192.12
840.906	28183.12
841.155	28078.12
841.404	28102.12
841.653	28089.12
841.902	28142.12
842.15	28202.12
842.399	28253.12
842.648	28305.12
842.897	28114.12
843.145	27866.12
843.394	27712.12
843.642	27494.12
843.891	27511.12
844.139	27354.12
844.388	27130.12
844.636	27047.12
844.884	27144.12
845.133	26951.12
845.381	26969.12
845.629	27099.12
845.877	26942.12
846.125	27015.12
846.373	26995.12
846.621	26785.12
846.869	26726.12
847.117	26504.12
847.365	26509.12
847.613	26365.12
847.861	26247.12
848.108	26300.12
848.356	26303.12
848.604	26119.12
848.851	26129.12
849.099	26136.12
849.346	26245.12
849.594	26345.12
849.841	26411.12
850.089	26394.12
850.336	26553.12
850.583	26373.12
850.831	26219.12
851.078	26165.12
851.325	26156.12
851.572	26274.12
851.819	26078.12
852.066	25563.12
852.313	25221.12
852.56	25002.12
852.807	25032.12
853.054	24862.12
853.301	24817.12
853.548	24797.12
853.794	24992.12
854.041	25029.12
854.288	25193.12
854.534	25335.12
854.781	25260.12
855.028	25156.12
855.274	25239.12
855.52	25218.12
855.767	25005.12
856.013	25110.12
856.26	25480.12
856.506	24940.12
856.752	24661.12
856.998	24775.12
857.244	24856.12
857.49	25073.12
857.736	25017.12
857.982	24984.12
858.228	24946.12
858.474	24706.12
858.72	24635.12
858.966	24386.12
859.212	24140.12
859.458	23897.12
859.703	23594.12
859.949	23430.12
860.195	23318.12
860.44	23174.12
860.686	23121.12
860.931	23086.12
861.177	22980.12
861.422	22834.12
861.667	22802.12
861.913	22752.12
862.158	22675.12
862.403	22807.12
862.648	22826.12
862.893	22855.12
863.138	22882.12
863.384	22814.12
863.629	22811.12
863.873	22663.12
864.118	22630.12
864.363	22598.12
864.608	22515.12
864.853	22437.12
865.098	22336.12
865.342	22337.12
865.587	22087.12
865.832	22170.12
866.076	22146.12
866.321	21953.12
866.565	21935.12
866.81	21887.12
867.054	21749.12
867.298	21733.12
867.543	21691.12
867.787	21553.12
868.031	21558.12
868.275	21540.12
868.519	21548.12
868.764	21428.12
869.008	21338.12
869.252	21458.12
869.496	21340.12
869.739	21254.12
869.983	21279.12
870.227	21351.12
870.471	21281.12
870.715	21352.12
870.958	21312.12
871.202	21439.12
871.446	21486.12
871.689	21577.12
871.933	21508.12
872.176	21432.12
872.42	21425.12
872.663	21367.12
872.906	21464.12
873.15	21299.12
873.393	21332.12
873.636	21246.12
873.879	21033.12
874.122	20954.12
874.366	20551.12
874.609	20362.12
874.852	20216.12
875.095	20180.12
875.337	20034.12
875.58	19896.12
875.823	19776.12
876.066	19681.12
876.309	19713.12
876.551	19564.12
876.794	19431.12
877.037	19521.12
877.279	19317.12
877.522	19317.12
877.764	19436.12
878.007	19363.12
878.249	19286.12
878.491	19180.12
878.734	19246.12
878.976	19137.12
879.218	18990.12
879.46	18973.12
879.702	18807.12
879.945	18746.12
880.187	18580.12
880.429	18389.12
880.671	18279.12
880.912	18324.12
881.154	18260.12
881.396	18066.12
881.638	18212.12
881.88	18118.12
882.121	18098.12
882.363	18108.12
882.605	18117.12
882.846	18008.12
883.088	18035.12
883.329	17926.12
883.571	17971.12
883.812	18234.12
884.053	18524.12
884.295	18758.12
884.536	19141.12
884.777	18928.12
885.018	18861.12
885.259	18789.12
885.5	18620.12
885.742	18714.12
885.982	18540.12
886.223	18334.12
886.464	18239.12
886.705	18059.12
886.946	17795.12
887.187	17555.12
887.428	17338.12
887.668	17069.12
887.909	16823.12
888.15	16672.12
888.39	16585.12
888.631	16454.12
888.871	16307.12
889.111	16238.12
889.352	16181.12
889.592	15938.12
889.833	15831.12
890.073	15700.12
890.313	15709.12
890.553	15469.12
890.793	15513.12
891.033	15429.12
891.273	15409.12
891.513	15216.12
891.753	15239.12
891.993	15164.12
892.233	15211.12
892.473	15316.12
892.713	15341.12
892.952	15282.12
893.192	15277.12
893.432	15247.12
893.671	15298.12
893.911	15110.12
894.15	15084.12
894.39	14940.12
894.629	14960.12
894.869	14921.12
895.108	14759.12
895.347	14608.12
895.587	14623.12
895.826	14563.12
896.065	14528.12
896.304	14544.12
896.543	14601.12
896.782	14390.12
897.021	14490.12
897.26	14429.12
897.499	14417.12
897.738	14305.12
897.977	14267.12
898.216	14158.12
898.454	14145.12
898.693	14008.12
898.932	13949.12
899.17	13887.12
899.409	13840.12
899.647	13779.12
899.886	13749.12
900.124	13754.12
900.363	13886.12
900.601	13888.12
900.839	13822.12
901.078	13868.12
901.316	13949.12
901.554	14005.12
901.792	14085.12
902.03	14000.12
902.268	14063.12
902.506	14055.12
902.744	13847.12
902.982	13802.12
903.22	13583.12
903.458	13404.12
903.695	13182.12
903.933	13068.12
904.171	12775.12
904.409	12598.12
904.646	12488.12
904.884	12258.12
905.121	12222.12
905.359	12049.12
905.596	11945.12
905.833	11827.12
906.071	11719.12
906.308	11806.12
906.545	11703.12
906.783	11577.12
907.02	11624.12
907.257	11457.12
907.494	11575.12
907.731	11492.12
907.968	11417.12
908.205	11350.12
908.442	11259.12
908.679	11253.12
908.915	11097.12
909.152	11067.12
909.389	10929.12
909.626	10873.12
909.862	10823.12
910.099	10693.12
910.335	10737.12
910.572	10606.12
910.808	10603.12
911.045	10555.12
911.281	10547.12
911.518	10463.12
911.754	10492.12
911.99	10369.12
912.226	10288.12
912.463	10156.12
912.699	10131.12
912.935	10024.12
913.171	9982.12
913.407	9885.12
913.643	9857.12
913.879	9728.12
914.114	9633.12
914.35	9577.12
914.586	9488.12
914.822	9407.12
915.057	9490.12
915.293	9255.12
915.529	9197.12
915.764	9300.12
916	9215.12
916.235	9211.12
916.471	9193.12
916.706	9055.12
916.941	9113.12
917.177	9104.12
917.412	9134.12
917.647	9094.12
917.882	8957.12
918.117	8987.12
918.352	9076.12
918.588	8958.12
918.823	8836.12
919.057	8770.12
919.292	8675.12
919.527	8650.12
919.762	8508.12
919.997	8465.12
920.232	8315.12
920.466	8346.12
920.701	8190.12
920.935	8243.12
921.17	8082.12
921.405	8067.12
921.639	8145.12
921.873	8072.12
922.108	8001.12
922.342	8017.12
922.576	7903.12
922.811	7836.12
923.045	7874.12
923.279	7900.12
923.513	7751.12
923.747	7761.12
923.981	7726.12
924.215	7659.12
924.449	7612.12
924.683	7540.12
924.917	7561.12
925.151	7465.12
925.385	7518.12
925.618	7513.12
925.852	7400.12
926.086	7338.12
926.319	7392.12
926.553	7357.12
926.786	7378.12
927.02	7389.12
927.253	7322.12
927.486	7370.12
927.72	7271.12
927.953	7334.12
928.186	7264.12
928.42	7242.12
928.653	7190.12
928.886	7157.12
929.119	7166.12
929.352	7121.12
929.585	7087.12
929.818	7006.12
930.051	7040.12
930.284	6901.12
930.516	6774.12
930.749	6770.12
930.982	6762.12
931.215	6759.12
931.447	6651.12
931.68	6617.12
931.912	6630.12
932.145	6654.12
932.377	6669.12
932.61	6731.12
932.842	6614.12
933.074	6635.12
933.307	6519.12
933.539	6608.12
933.771	6648.12
934.003	6578.12
934.236	6611.12
934.468	6601.12
934.7	6507.12
934.932	6558.12
935.164	6507.12
935.395	6471.12
935.627	6436.12
935.859	6433.12
936.091	6370.12
936.323	6409.12
936.554	6447.12
936.786	6358.12
937.017	6278.12
937.249	6329.12
937.481	6182.12
937.712	6276.12
937.943	6269.12
938.175	6198.12
938.406	6195.12
938.637	6202.12
938.869	6107.12
939.1	6261.12
939.331	6147.12
939.562	6172.12
939.793	6141.12
940.024	6133.12
940.255	6095.12
940.486	6015.12
940.717	5940.12
940.948	5991.12
941.179	5961.12
941.409	5915.12
941.64	5849.12
941.871	5936.12
942.102	5878.12
942.332	5889.12
942.563	5920.12
942.793	5935.12
943.024	5825.12
943.254	5890.12
943.484	5929.12
943.715	5850.12
943.945	5799.12
944.175	5801.12
944.405	5795.12
944.636	5803.12
944.866	5826.12
945.096	5798.12
945.326	5659.12
945.556	5763.12
945.786	5698.12
946.016	5714.12
946.245	5616.12
946.475	5628.12
946.705	5540.12
946.935	5561.12
947.164	5538.12
947.394	5442.12
947.624	5455.12
947.853	5479.12
948.083	5404.12
948.312	5375.12
948.542	5312.12
948.771	5278.12
949	5273.12
949.23	5333.12
949.459	5319.12
949.688	5330.12
949.917	5263.12
950.146	5289.12
950.375	5298.12
950.604	5266.12
950.833	5299.12
951.062	5257.12
951.291	5192.12
951.52	5203.12
951.749	5181.12
951.978	5092.12
952.206	5149.12
952.435	5100.12
952.664	5107.12
952.892	5149.12
953.121	5084.12
953.349	5075.12
953.578	5050.12
953.806	5006.12
954.035	4946.12
954.263	4975.12
954.491	4913.12
954.719	4976.12
954.948	4870.12
955.176	4852.12
955.404	4720.12
955.632	4837.12
955.86	4787.12
956.088	4793.12
956.316	4800.12
956.544	4772.12
956.772	4723.12
956.999	4664.12
957.227	4725.12
957.455	4559.12
957.683	4625.12
957.91	4555.12
958.138	4500.12
958.365	4506.12
958.593	4550.12
958.82	4456.12
959.048	4500.12
959.275	4525.12
959.502	4419.12
959.73	4426.12
959.957	4437.12
960.184	4420.12
960.411	4393.12
960.638	4472.12
960.865	4418.12
961.092	4395.12
961.319	4308.12
961.546	4401.12
961.773	4372.12
962	4351.12
962.227	4374.12
962.454	4315.12
962.68	4345.12
962.907	4334.12
963.134	4240.12
963.36	4238.12
963.587	4273.12
963.813	4150.12
964.04	4185.12
964.266	4107.12
964.493	4171.12
964.719	4122.12
964.945	4109.12
965.171	4019.12
965.398	4040.12
965.624	4034.12
965.85	3997.12
966.076	3938.12
966.302	3991.12
966.528	3948.12
966.754	3935.12
966.98	3966.12
967.206	3911.12
967.431	3844.12
967.657	3923.12
967.883	3883.12
968.109	3862.12
968.334	3774.12
968.56	3796.12
968.785	3802.12
969.011	3788.12
969.236	3775.12
969.462	3709.12
969.687	3736.12
969.912	3776.12
970.138	3809.12
970.363	3714.12
970.588	3758.12
970.813	3662.12
971.038	3631.12
971.263	3632.12
971.488	3649.12
971.713	3676.12
971.938	3637.12
972.163	3540.12
972.388	3549.12
972.613	3573.12
972.838	3592.12
973.062	3526.12
973.287	3529.12
973.512	3479.12
973.736	3500.12
973.961	3459.12
974.185	3421.12
974.41	3440.12
974.634	3359.12
974.858	3320.12
975.083	3391.12
975.307	3367.12
975.531	3301.12
975.755	3246.12
975.98	3290.12
976.204	3194.12
976.428	3145.12
976.652	3197.12
976.876	3152.12
977.1	3225.12
977.324	3138.12
977.547	3177.12
977.771	3178.12
977.995	3126.12
978.219	3078.12
978.442	3181.12
978.666	3104.12
978.89	3118.12
979.113	3082.12
979.337	3106.12
979.56	3034.12
979.783	3104.12
980.007	3053.12
980.23	3035.12
980.453	3015.12
980.677	3025.12
980.9	3010.12
981.123	2893.12
981.346	2990.12
981.569	2975.12
981.792	2973.12
982.015	2933.12
982.238	2899.12
982.461	2908.12
982.684	2856.12
982.907	2812.12
983.129	2808.12
983.352	2844.12
983.575	2816.12
983.797	2828.12
984.02	2738.12
984.242	2763.12
984.465	2700.12
984.687	2798.12
984.91	2804.12
985.132	2784.12
985.354	2768.12
985.577	2732.12
985.799	2702.12
986.021	2588.12
986.243	2616.12
986.465	2671.12
986.687	2713.12
986.909	2704.12
987.131	2640.12
987.353	2616.12
987.575	2666.12
987.797	2634.12
988.019	2534.12
988.241	2579.12
988.462	2560.12
988.684	2595.12
988.906	2631.12
989.127	2657.12
989.349	2543.12
989.57	2519.12
989.792	2570.12
990.013	2566.12
990.234	2610.12
990.456	2604.12
990.677	2570.12
990.898	2499.12
991.119	2488.12
991.341	2498.12
991.562	2420.12
991.783	2459.12
992.004	2398.12
992.225	2366.12
992.446	2457.12
992.667	2328.12
992.887	2428.12
993.108	2301.12
993.329	2455.12
993.55	2388.12
993.77	2303.12
993.991	2269.12
994.212	2339.12
994.432	2300.12
994.653	2316.12
994.873	2300.12
995.093	2186.12
995.314	2250.12
995.534	2288.12
995.754	2264.12
995.975	2326.12
996.195	2171.12
996.415	2241.12
996.635	2232.12
996.855	2210.12
997.075	2208.12
997.295	2209.12
997.515	2204.12
997.735	2209.12
997.955	2230.12
998.174	2175.12
998.394	2114.12
998.614	2200.12
998.834	2151.12
999.053	2225.12
999.273	2198.12
999.492	2192.12
999.712	2168.12
999.931	2105.12
1000.151	2140.12
1000.37	2143.12
1000.589	2190.12
1000.809	2098.12
1001.028	2200.12
1001.247	2135.12
1001.466	2021.12
1001.685	2158.12
1001.904	2054.12
1002.123	2053.12
1002.342	2051.12
1002.561	2040.12
1002.78	2037.12
1002.999	2097.12
1003.218	2019.12
1003.436	1991.12
1003.655	2028.12
1003.874	1961.12
1004.092	2035.12
1004.311	2039.12
1004.53	1989.12
1004.748	2070.12
1004.966	1973.12
1005.185	2032.12
1005.403	2016.12
1005.622	1996.12
1005.84	2049.12
1006.058	1931.12
1006.276	1963.12
1006.494	2467.12
1006.712	1981.12
1006.931	2041.12
1007.149	1926.12
1007.367	1969.12
1007.584	1998.12
1007.802	2043.12
1008.02	1966.12
1008.238	2056.12
1008.456	2065.12
1008.673	1917.12
1008.891	2055.12
1009.109	2045.12
1009.326	2061.12
1009.544	2195.12
1009.761	2085.12
1009.979	2190.12
1010.196	2236.12
1010.413	2360.12
1010.631	2418.12
1010.848	2491.12
1011.065	2499.12
1011.282	2450.12
1011.5	2414.12
1011.717	2469.12
1011.934	2424.12
1012.151	2469.12
1012.368	2415.12
1012.585	2312.12
1012.801	2445.12
1013.018	2397.12
1013.235	2338.12
1013.452	2390.12
1013.669	2424.12
1013.885	2389.12
1014.102	2378.12
1014.318	2395.12
1014.535	2361.12
1014.751	2392.12
1014.968	2367.12
1015.184	2406.12
1015.401	2288.12
1015.617	2284.12
1015.833	2243.12
1016.049	2250.12
1016.266	2191.12
1016.482	2233.12
1016.698	2117.12
1016.914	2154.12
1017.13	2140.12
1017.346	2091.12
1017.562	2159.12
1017.778	2087.12
1017.993	2042.12
1018.209	2099.12
1018.425	2067.12
1018.641	2025.12
1018.856	2028.12
1019.072	2024.12
1019.288	2092.12
1019.503	2047.12
1019.719	1963.12
1019.934	1983.12
1020.149	2046.12
1020.365	1951.12
1020.58	1892.12
1020.795	1950.12
1021.011	1851.12
1021.226	1817.12
1021.441	1816.12
1021.656	1735.12
1021.871	1659.12
1022.086	1655.12
1022.301	1625.12
1022.516	1644.12
1022.731	1643.12
1022.946	1577.12
1023.16	1551.12
1023.375	1528.12
1023.59	1469.12
1023.804	1453.12
1024.019	1516.12
1024.234	1398.12
1024.448	1391.12
1024.663	1338.12
1024.877	1335.12
1025.092	1356.12
1025.306	1342.12
1025.52	1196.12
1025.734	1290.12
1025.949	1195.12
1026.163	1186.12
1026.377	1086.12
1026.591	1172.12
1026.805	1097.12
1027.019	1062.12
1027.233	1032.12
1027.447	975.12
1027.661	1087.12
1027.875	1012.12
1028.088	1005.12
1028.302	927.12
1028.516	909.12
1028.73	908.12
1028.943	879.12
1029.157	820.12
1029.37	786.12
1029.584	0.12
1029.797	-2.88
1030.011	1.12
1030.224	-5.88
