Data from QEP037381__357__16-29-19-917.txt Node

Date: Fri Dec 16 16:29:19 EST 2022
User: dcclab
Spectrometer: QEP03738
Trigger mode: 4
Integration Time (sec): 1.000000E1
Scans to average: 1
Electric dark correction enabled: true
Nonlinearity correction enabled: false
Boxcar width: 0
XAxis mode: Wavelengths
Number of Pixels in Spectrum: 1044
>>>>>Begin Spectral Data<<<<<
784.041	12.25
784.3	1.25
784.558	-4.75
784.817	-1.75
785.075	113681.25
785.334	19615.25
785.592	9156.25
785.851	6386.25
786.109	4765.25
786.368	3706.25
786.626	3007.25
786.884	2461.25
787.143	2046.25
787.401	1720.25
787.659	1564.25
787.917	1311.25
788.175	1198.25
788.433	1052.25
788.691	950.25
788.949	914.25
789.207	840.25
789.465	725.25
789.723	700.25
789.98	652.25
790.238	672.25
790.496	629.25
790.753	598.25
791.011	664.25
791.268	576.25
791.526	555.25
791.783	574.25
792.041	553.25
792.298	474.25
792.556	519.25
792.813	509.25
793.07	497.25
793.327	478.25
793.584	551.25
793.841	471.25
794.099	485.25
794.356	551.25
794.613	460.25
794.869	479.25
795.126	442.25
795.383	414.25
795.64	457.25
795.897	397.25
796.153	471.25
796.41	451.25
796.667	426.25
796.923	443.25
797.18	449.25
797.436	481.25
797.693	448.25
797.949	485.25
798.206	520.25
798.462	424.25
798.718	508.25
798.974	484.25
799.231	518.25
799.487	504.25
799.743	507.25
799.999	558.25
800.255	551.25
800.511	512.25
800.767	581.25
801.023	571.25
801.279	611.25
801.534	653.25
801.79	705.25
802.046	749.25
802.302	900.25
802.557	1035.25
802.813	1282.25
803.068	1607.25
803.324	2252.25
803.579	3056.25
803.835	4253.25
804.09	5815.25
804.345	7594.25
804.601	9591.25
804.856	11707.25
805.111	13506.25
805.366	14908.25
805.621	15907.25
805.876	16650.25
806.131	17267.25
806.386	17457.25
806.641	17819.25
806.896	18167.25
807.151	18460.25
807.406	18781.25
807.661	19125.25
807.915	19437.25
808.17	19780.25
808.425	20014.25
808.679	20173.25
808.934	20491.25
809.188	20573.25
809.443	20802.25
809.697	21009.25
809.951	21081.25
810.206	21356.25
810.46	21604.25
810.714	21777.25
810.968	22050.25
811.223	22222.25
811.477	22326.25
811.731	22457.25
811.985	22651.25
812.239	22590.25
812.493	22772.25
812.747	22946.25
813	22876.25
813.254	23111.25
813.508	23238.25
813.762	23382.25
814.015	23463.25
814.269	23697.25
814.522	23717.25
814.776	24052.25
815.03	24441.25
815.283	24686.25
815.536	25188.25
815.79	25505.25
816.043	25938.25
816.296	26185.25
816.55	26565.25
816.803	26804.25
817.056	27163.25
817.309	27410.25
817.562	27716.25
817.815	28024.25
818.068	28323.25
818.321	28454.25
818.574	28829.25
818.827	29135.25
819.079	29452.25
819.332	30109.25
819.585	30379.25
819.838	30688.25
820.09	30937.25
820.343	31151.25
820.595	31162.25
820.848	31470.25
821.1	31729.25
821.353	31702.25
821.605	31631.25
821.857	31684.25
822.11	31578.25
822.362	31322.25
822.614	31425.25
822.866	31564.25
823.118	31368.25
823.37	31527.25
823.622	31600.25
823.874	31759.25
824.126	31744.25
824.378	31813.25
824.63	31917.25
824.882	32036.25
825.134	31946.25
825.385	31842.25
825.637	31869.25
825.888	31761.25
826.14	31652.25
826.392	31666.25
826.643	31419.25
826.895	31319.25
827.146	31249.25
827.397	31237.25
827.649	31298.25
827.9	31094.25
828.151	31249.25
828.402	31232.25
828.653	31337.25
828.905	31382.25
829.156	31436.25
829.407	31527.25
829.658	31508.25
829.909	31571.25
830.159	31661.25
830.41	31389.25
830.661	31182.25
830.912	30928.25
831.162	30811.25
831.413	30957.25
831.664	30787.25
831.914	30850.25
832.165	30734.25
832.415	30814.25
832.666	30728.25
832.916	30849.25
833.167	30756.25
833.417	30837.25
833.667	30727.25
833.917	30567.25
834.168	30610.25
834.418	30411.25
834.668	30314.25
834.918	30280.25
835.168	30120.25
835.418	29864.25
835.668	29878.25
835.918	29840.25
836.167	29712.25
836.417	29602.25
836.667	29675.25
836.917	29696.25
837.166	29556.25
837.416	29630.25
837.666	29589.25
837.915	29595.25
838.165	29457.25
838.414	29470.25
838.663	29407.25
838.913	29428.25
839.162	29228.25
839.411	29286.25
839.661	29021.25
839.91	29040.25
840.159	28890.25
840.408	29054.25
840.657	29032.25
840.906	28931.25
841.155	29044.25
841.404	28943.25
841.653	29033.25
841.902	29035.25
842.15	29153.25
842.399	29083.25
842.648	28935.25
842.897	28853.25
843.145	28681.25
843.394	28582.25
843.642	28495.25
843.891	28384.25
844.139	28194.25
844.388	28149.25
844.636	27866.25
844.884	27940.25
845.133	27904.25
845.381	27861.25
845.629	27883.25
845.877	27846.25
846.125	27708.25
846.373	27794.25
846.621	27593.25
846.869	27566.25
847.117	27339.25
847.365	27209.25
847.613	27256.25
847.861	26996.25
848.108	27058.25
848.356	26998.25
848.604	26986.25
848.851	26835.25
849.099	26886.25
849.346	26974.25
849.594	27074.25
849.841	27277.25
850.089	27187.25
850.336	27245.25
850.583	27237.25
850.831	27119.25
851.078	27027.25
851.325	26931.25
851.572	26977.25
851.819	26759.25
852.066	26305.25
852.313	25929.25
852.56	25750.25
852.807	25612.25
853.054	25509.25
853.301	25530.25
853.548	25590.25
853.794	25736.25
854.041	25719.25
854.288	25898.25
854.534	26077.25
854.781	26115.25
855.028	25869.25
855.274	25901.25
855.52	25801.25
855.767	25585.25
856.013	25662.25
856.26	26054.25
856.506	25402.25
856.752	25475.25
856.998	25397.25
857.244	25442.25
857.49	25714.25
857.736	25667.25
857.982	25557.25
858.228	25510.25
858.474	25317.25
858.72	25296.25
858.966	24993.25
859.212	24764.25
859.458	24415.25
859.703	24194.25
859.949	24030.25
860.195	23945.25
860.44	23800.25
860.686	23677.25
860.931	23693.25
861.177	23583.25
861.422	23437.25
861.667	23310.25
861.913	23333.25
862.158	23364.25
862.403	23446.25
862.648	23490.25
862.893	23587.25
863.138	23538.25
863.384	23345.25
863.629	23378.25
863.873	23317.25
864.118	23280.25
864.363	23147.25
864.608	23090.25
864.853	23069.25
865.098	22830.25
865.342	22841.25
865.587	22695.25
865.832	22660.25
866.076	22689.25
866.321	22598.25
866.565	22428.25
866.81	22406.25
867.054	22353.25
867.298	22228.25
867.543	22212.25
867.787	22232.25
868.031	22084.25
868.275	22056.25
868.519	22049.25
868.764	22048.25
869.008	21944.25
869.252	21936.25
869.496	21857.25
869.739	21917.25
869.983	21926.25
870.227	21856.25
870.471	21661.25
870.715	21848.25
870.958	21931.25
871.202	21947.25
871.446	22080.25
871.689	21975.25
871.933	21964.25
872.176	22031.25
872.42	21972.25
872.663	21868.25
872.906	21775.25
873.15	21812.25
873.393	21681.25
873.636	21609.25
873.879	21538.25
874.122	21200.25
874.366	20921.25
874.609	20803.25
874.852	20575.25
875.095	20577.25
875.337	20386.25
875.58	20326.25
875.823	20285.25
876.066	20213.25
876.309	20198.25
876.551	19931.25
876.794	19980.25
877.037	19941.25
877.279	19751.25
877.522	19900.25
877.764	19815.25
878.007	19774.25
878.249	19650.25
878.491	19569.25
878.734	19691.25
878.976	19558.25
879.218	19506.25
879.46	19392.25
879.702	19227.25
879.945	19097.25
880.187	18997.25
880.429	18850.25
880.671	18727.25
880.912	18613.25
881.154	18596.25
881.396	18481.25
881.638	18498.25
881.88	18520.25
882.121	18329.25
882.363	18475.25
882.605	18460.25
882.846	18365.25
883.088	18416.25
883.329	18289.25
883.571	18339.25
883.812	18480.25
884.053	18828.25
884.295	19091.25
884.536	19289.25
884.777	19275.25
885.018	19100.25
885.259	18974.25
885.5	18924.25
885.742	18986.25
885.982	18836.25
886.223	18548.25
886.464	18550.25
886.705	18345.25
886.946	18244.25
887.187	17769.25
887.428	17794.25
887.668	17465.25
887.909	17229.25
888.15	17008.25
888.39	16891.25
888.631	16744.25
888.871	16638.25
889.111	16541.25
889.352	16503.25
889.592	16280.25
889.833	16205.25
890.073	16050.25
890.313	16034.25
890.553	15808.25
890.793	15826.25
891.033	15729.25
891.273	15645.25
891.513	15537.25
891.753	15662.25
891.993	15537.25
892.233	15624.25
892.473	15679.25
892.713	15590.25
892.952	15517.25
893.192	15631.25
893.432	15503.25
893.671	15606.25
893.911	15534.25
894.15	15359.25
894.39	15254.25
894.629	15106.25
894.869	15058.25
895.108	15069.25
895.347	14908.25
895.587	14854.25
895.826	14856.25
896.065	14901.25
896.304	14904.25
896.543	14839.25
896.782	14706.25
897.021	14676.25
897.26	14738.25
897.499	14697.25
897.738	14696.25
897.977	14550.25
898.216	14423.25
898.454	14251.25
898.693	14210.25
898.932	14130.25
899.17	14089.25
899.409	14113.25
899.647	14029.25
899.886	13992.25
900.124	14025.25
900.363	14040.25
900.601	14065.25
900.839	14107.25
901.078	14143.25
901.316	14203.25
901.554	14177.25
901.792	14255.25
902.03	14318.25
902.268	14295.25
902.506	14200.25
902.744	14066.25
902.982	14039.25
903.22	13790.25
903.458	13629.25
903.695	13432.25
903.933	13241.25
904.171	12959.25
904.409	12781.25
904.646	12687.25
904.884	12509.25
905.121	12412.25
905.359	12209.25
905.596	12078.25
905.833	11971.25
906.071	11955.25
906.308	11976.25
906.545	11867.25
906.783	11781.25
907.02	11775.25
907.257	11667.25
907.494	11724.25
907.731	11632.25
907.968	11670.25
908.205	11522.25
908.442	11389.25
908.679	11346.25
908.915	11290.25
909.152	11240.25
909.389	11035.25
909.626	11034.25
909.862	10946.25
910.099	10808.25
910.335	10877.25
910.572	10713.25
910.808	10792.25
911.045	10718.25
911.281	10700.25
911.518	10660.25
911.754	10577.25
911.99	10560.25
912.226	10436.25
912.463	10289.25
912.699	10255.25
912.935	10202.25
913.171	10099.25
913.407	9966.25
913.643	10039.25
913.879	9884.25
914.114	9825.25
914.35	9625.25
914.586	9557.25
914.822	9517.25
915.057	9522.25
915.293	9307.25
915.529	9291.25
915.764	9397.25
916	9282.25
916.235	9256.25
916.471	9284.25
916.706	9156.25
916.941	9171.25
917.177	9186.25
917.412	9173.25
917.647	9207.25
917.882	9121.25
918.117	9134.25
918.352	9093.25
918.588	9038.25
918.823	8999.25
919.057	8916.25
919.292	8722.25
919.527	8697.25
919.762	8678.25
919.997	8576.25
920.232	8470.25
920.466	8484.25
920.701	8221.25
920.935	8259.25
921.17	8248.25
921.405	8166.25
921.639	8210.25
921.873	8159.25
922.108	8057.25
922.342	8064.25
922.576	8045.25
922.811	7959.25
923.045	8002.25
923.279	7953.25
923.513	7817.25
923.747	7809.25
923.981	7806.25
924.215	7687.25
924.449	7754.25
924.683	7633.25
924.917	7618.25
925.151	7518.25
925.385	7558.25
925.618	7497.25
925.852	7464.25
926.086	7378.25
926.319	7483.25
926.553	7422.25
926.786	7462.25
927.02	7483.25
927.253	7465.25
927.486	7422.25
927.72	7353.25
927.953	7375.25
928.186	7341.25
928.42	7323.25
928.653	7233.25
928.886	7237.25
929.119	7281.25
929.352	7143.25
929.585	7126.25
929.818	7023.25
930.051	6979.25
930.284	6924.25
930.516	6842.25
930.749	6880.25
930.982	6833.25
931.215	6816.25
931.447	6684.25
931.68	6718.25
931.912	6687.25
932.145	6630.25
932.377	6650.25
932.61	6796.25
932.842	6615.25
933.074	6653.25
933.307	6639.25
933.539	6650.25
933.771	6635.25
934.003	6620.25
934.236	6684.25
934.468	6635.25
934.7	6575.25
934.932	6639.25
935.164	6546.25
935.395	6509.25
935.627	6505.25
935.859	6501.25
936.091	6420.25
936.323	6434.25
936.554	6477.25
936.786	6399.25
937.017	6295.25
937.249	6363.25
937.481	6267.25
937.712	6317.25
937.943	6305.25
938.175	6257.25
938.406	6264.25
938.637	6280.25
938.869	6186.25
939.1	6245.25
939.331	6225.25
939.562	6148.25
939.793	6185.25
940.024	6169.25
940.255	6088.25
940.486	6031.25
940.717	6013.25
940.948	6021.25
941.179	5929.25
941.409	5942.25
941.64	5934.25
941.871	5948.25
942.102	5872.25
942.332	5916.25
942.563	5969.25
942.793	5898.25
943.024	5868.25
943.254	5894.25
943.484	5937.25
943.715	5901.25
943.945	5882.25
944.175	5820.25
944.405	5841.25
944.636	5788.25
944.866	5840.25
945.096	5839.25
945.326	5736.25
945.556	5809.25
945.786	5796.25
946.016	5698.25
946.245	5668.25
946.475	5622.25
946.705	5592.25
946.935	5588.25
947.164	5568.25
947.394	5423.25
947.624	5489.25
947.853	5448.25
948.083	5445.25
948.312	5431.25
948.542	5322.25
948.771	5314.25
949	5319.25
949.23	5305.25
949.459	5347.25
949.688	5318.25
949.917	5315.25
950.146	5311.25
950.375	5324.25
950.604	5292.25
950.833	5335.25
951.062	5275.25
951.291	5232.25
951.52	5158.25
951.749	5208.25
951.978	5116.25
952.206	5175.25
952.435	5099.25
952.664	5139.25
952.892	5115.25
953.121	5141.25
953.349	5089.25
953.578	5075.25
953.806	4999.25
954.035	4982.25
954.263	4949.25
954.491	4985.25
954.719	4949.25
954.948	4878.25
955.176	4925.25
955.404	4813.25
955.632	4831.25
955.86	4834.25
956.088	4789.25
956.316	4792.25
956.544	4783.25
956.772	4697.25
956.999	4676.25
957.227	4728.25
957.455	4628.25
957.683	4667.25
957.91	4553.25
958.138	4554.25
958.365	4570.25
958.593	4508.25
958.82	4377.25
959.048	4571.25
959.275	4503.25
959.502	4473.25
959.73	4433.25
959.957	4495.25
960.184	4472.25
960.411	4406.25
960.638	4473.25
960.865	4396.25
961.092	4443.25
961.319	4294.25
961.546	4412.25
961.773	4422.25
962	4391.25
962.227	4439.25
962.454	4353.25
962.68	4333.25
962.907	4281.25
963.134	4279.25
963.36	4268.25
963.587	4276.25
963.813	4159.25
964.04	4207.25
964.266	4078.25
964.493	4166.25
964.719	4141.25
964.945	4138.25
965.171	3998.25
965.398	4087.25
965.624	4046.25
965.85	4002.25
966.076	3979.25
966.302	3999.25
966.528	3947.25
966.754	3953.25
966.98	3885.25
967.206	3899.25
967.431	3828.25
967.657	3905.25
967.883	3912.25
968.109	3857.25
968.334	3838.25
968.56	3803.25
968.785	3822.25
969.011	3793.25
969.236	3783.25
969.462	3720.25
969.687	3744.25
969.912	3798.25
970.138	3760.25
970.363	3703.25
970.588	3743.25
970.813	3700.25
971.038	3655.25
971.263	3674.25
971.488	3660.25
971.713	3666.25
971.938	3674.25
972.163	3579.25
972.388	3560.25
972.613	3559.25
972.838	3544.25
973.062	3514.25
973.287	3533.25
973.512	3442.25
973.736	3487.25
973.961	3441.25
974.185	3411.25
974.41	3460.25
974.634	3345.25
974.858	3340.25
975.083	3389.25
975.307	3375.25
975.531	3334.25
975.755	3231.25
975.98	3269.25
976.204	3224.25
976.428	3192.25
976.652	3194.25
976.876	3165.25
977.1	3179.25
977.324	3139.25
977.547	3213.25
977.771	3192.25
977.995	3139.25
978.219	3039.25
978.442	3204.25
978.666	3111.25
978.89	3108.25
979.113	3052.25
979.337	3098.25
979.56	3020.25
979.783	3129.25
980.007	2989.25
980.23	3056.25
980.453	2968.25
980.677	3032.25
980.9	2987.25
981.123	2923.25
981.346	2985.25
981.569	2969.25
981.792	2943.25
982.015	2856.25
982.238	2899.25
982.461	2914.25
982.684	2850.25
982.907	2806.25
983.129	2804.25
983.352	2853.25
983.575	2793.25
983.797	2804.25
984.02	2778.25
984.242	2755.25
984.465	2761.25
984.687	2769.25
984.91	2802.25
985.132	2742.25
985.354	2783.25
985.577	2744.25
985.799	2708.25
986.021	2595.25
986.243	2627.25
986.465	2630.25
986.687	2700.25
986.909	2716.25
987.131	2620.25
987.353	2620.25
987.575	2645.25
987.797	2616.25
988.019	2546.25
988.241	2568.25
988.462	2516.25
988.684	2572.25
988.906	2599.25
989.127	2639.25
989.349	2542.25
989.57	2521.25
989.792	2591.25
990.013	2559.25
990.234	2593.25
990.456	2575.25
990.677	2575.25
990.898	2487.25
991.119	2483.25
991.341	2516.25
991.562	2439.25
991.783	2465.25
992.004	2378.25
992.225	2383.25
992.446	2418.25
992.667	2337.25
992.887	2395.25
993.108	2287.25
993.329	2449.25
993.55	2322.25
993.77	2301.25
993.991	2288.25
994.212	2298.25
994.432	2301.25
994.653	2296.25
994.873	2294.25
995.093	2177.25
995.314	2230.25
995.534	2307.25
995.754	2295.25
995.975	2271.25
996.195	2184.25
996.415	2254.25
996.635	2184.25
996.855	2225.25
997.075	2216.25
997.295	2209.25
997.515	2158.25
997.735	2211.25
997.955	2185.25
998.174	2172.25
998.394	2130.25
998.614	2185.25
998.834	2142.25
999.053	2202.25
999.273	2174.25
999.492	2186.25
999.712	2155.25
999.931	2117.25
1000.151	2150.25
1000.37	2078.25
1000.589	2146.25
1000.809	2051.25
1001.028	2160.25
1001.247	2102.25
1001.466	1988.25
1001.685	2108.25
1001.904	2102.25
1002.123	2041.25
1002.342	2038.25
1002.561	1996.25
1002.78	2059.25
1002.999	2071.25
1003.218	1998.25
1003.436	1978.25
1003.655	2041.25
1003.874	1976.25
1004.092	1995.25
1004.311	2005.25
1004.53	1996.25
1004.748	2035.25
1004.966	1951.25
1005.185	2015.25
1005.403	1994.25
1005.622	1979.25
1005.84	2050.25
1006.058	1937.25
1006.276	1976.25
1006.494	2405.25
1006.712	1949.25
1006.931	1983.25
1007.149	1920.25
1007.367	1925.25
1007.584	1940.25
1007.802	2011.25
1008.02	1949.25
1008.238	2070.25
1008.456	2049.25
1008.673	1914.25
1008.891	2012.25
1009.109	1959.25
1009.326	2026.25
1009.544	2103.25
1009.761	2041.25
1009.979	2170.25
1010.196	2205.25
1010.413	2302.25
1010.631	2397.25
1010.848	2425.25
1011.065	2452.25
1011.282	2422.25
1011.5	2334.25
1011.717	2449.25
1011.934	2369.25
1012.151	2389.25
1012.368	2347.25
1012.585	2309.25
1012.801	2359.25
1013.018	2320.25
1013.235	2291.25
1013.452	2346.25
1013.669	2358.25
1013.885	2347.25
1014.102	2376.25
1014.318	2327.25
1014.535	2281.25
1014.751	2328.25
1014.968	2302.25
1015.184	2340.25
1015.401	2246.25
1015.617	2268.25
1015.833	2183.25
1016.049	2202.25
1016.266	2176.25
1016.482	2145.25
1016.698	2080.25
1016.914	2129.25
1017.13	2080.25
1017.346	2066.25
1017.562	2153.25
1017.778	2055.25
1017.993	2041.25
1018.209	2089.25
1018.425	2063.25
1018.641	2025.25
1018.856	1967.25
1019.072	2023.25
1019.288	2052.25
1019.503	2019.25
1019.719	1937.25
1019.934	1956.25
1020.149	2005.25
1020.365	1930.25
1020.58	1892.25
1020.795	1902.25
1021.011	1867.25
1021.226	1815.25
1021.441	1824.25
1021.656	1697.25
1021.871	1670.25
1022.086	1620.25
1022.301	1627.25
1022.516	1599.25
1022.731	1631.25
1022.946	1545.25
1023.16	1520.25
1023.375	1497.25
1023.59	1463.25
1023.804	1400.25
1024.019	1511.25
1024.234	1415.25
1024.448	1428.25
1024.663	1327.25
1024.877	1324.25
1025.092	1346.25
1025.306	1323.25
1025.52	1205.25
1025.734	1292.25
1025.949	1205.25
1026.163	1182.25
1026.377	1097.25
1026.591	1138.25
1026.805	1064.25
1027.019	1070.25
1027.233	1026.25
1027.447	978.25
1027.661	1046.25
1027.875	1022.25
1028.088	1012.25
1028.302	923.25
1028.516	912.25
1028.73	907.25
1028.943	879.25
1029.157	845.25
1029.37	781.25
1029.584	-3.75
1029.797	-1.75
1030.011	-0.75
1030.224	-0.75
