Data from QEP037381__261__16-13-19-902.txt Node

Date: Fri Dec 16 16:13:19 EST 2022
User: dcclab
Spectrometer: QEP03738
Trigger mode: 4
Integration Time (sec): 1.000000E1
Scans to average: 1
Electric dark correction enabled: true
Nonlinearity correction enabled: false
Boxcar width: 0
XAxis mode: Wavelengths
Number of Pixels in Spectrum: 1044
>>>>>Begin Spectral Data<<<<<
784.041	12.88
784.3	0.88
784.558	-2.12
784.817	-2.12
785.075	107245.88
785.334	18462.88
785.592	8667.88
785.851	5949.88
786.109	4467.88
786.368	3459.88
786.626	2804.88
786.884	2362.88
787.143	1967.88
787.401	1631.88
787.659	1458.88
787.917	1253.88
788.175	1151.88
788.433	1009.88
788.691	929.88
788.949	828.88
789.207	799.88
789.465	708.88
789.723	690.88
789.98	609.88
790.238	657.88
790.496	630.88
790.753	593.88
791.011	642.88
791.268	570.88
791.526	559.88
791.783	572.88
792.041	557.88
792.298	478.88
792.556	533.88
792.813	516.88
793.07	499.88
793.327	487.88
793.584	578.88
793.841	491.88
794.099	504.88
794.356	555.88
794.613	462.88
794.869	516.88
795.126	465.88
795.383	447.88
795.64	476.88
795.897	427.88
796.153	494.88
796.41	454.88
796.667	449.88
796.923	462.88
797.18	457.88
797.436	496.88
797.693	467.88
797.949	508.88
798.206	542.88
798.462	460.88
798.718	528.88
798.974	512.88
799.231	554.88
799.487	550.88
799.743	542.88
799.999	579.88
800.255	567.88
800.511	575.88
800.767	620.88
801.023	629.88
801.279	671.88
801.534	714.88
801.79	813.88
802.046	851.88
802.302	1042.88
802.557	1214.88
802.813	1546.88
803.068	1968.88
803.324	2792.88
803.579	3863.88
803.835	5398.88
804.09	7413.88
804.345	9805.88
804.601	12368.88
804.856	14947.88
805.111	17336.88
805.366	19077.88
805.621	20448.88
805.876	21426.88
806.131	22031.88
806.386	22492.88
806.641	22917.88
806.896	23352.88
807.151	23745.88
807.406	24143.88
807.661	24511.88
807.915	24955.88
808.17	25379.88
808.425	25547.88
808.679	25935.88
808.934	26125.88
809.188	26320.88
809.443	26786.88
809.697	26966.88
809.951	27223.88
810.206	27509.88
810.46	27688.88
810.714	28066.88
810.968	28295.88
811.223	28449.88
811.477	28825.88
811.731	28970.88
811.985	29121.88
812.239	29248.88
812.493	29412.88
812.747	29611.88
813	29659.88
813.254	29795.88
813.508	29978.88
813.762	30083.88
814.015	30364.88
814.269	30522.88
814.522	30691.88
814.776	31057.88
815.03	31472.88
815.283	31924.88
815.536	32429.88
815.79	32849.88
816.043	33452.88
816.296	33879.88
816.55	34297.88
816.803	34809.88
817.056	35141.88
817.309	35437.88
817.562	35819.88
817.815	36250.88
818.068	36518.88
818.321	36938.88
818.574	37349.88
818.827	37853.88
819.079	38265.88
819.332	38852.88
819.585	39504.88
819.838	39757.88
820.09	40089.88
820.343	40270.88
820.595	40568.88
820.848	40870.88
821.1	41065.88
821.353	41017.88
821.605	41130.88
821.857	41130.88
822.11	40719.88
822.362	40904.88
822.614	40762.88
822.866	40763.88
823.118	40801.88
823.37	41015.88
823.622	40990.88
823.874	41065.88
824.126	41137.88
824.378	41471.88
824.63	41432.88
824.882	41584.88
825.134	41277.88
825.385	41353.88
825.637	41447.88
825.888	41528.88
826.14	41225.88
826.392	41127.88
826.643	40812.88
826.895	40860.88
827.146	40765.88
827.397	40697.88
827.649	40569.88
827.9	40417.88
828.151	40685.88
828.402	40840.88
828.653	40831.88
828.905	40934.88
829.156	41002.88
829.407	40833.88
829.658	40985.88
829.909	41107.88
830.159	41057.88
830.41	40889.88
830.661	40746.88
830.912	40298.88
831.162	40314.88
831.413	40141.88
831.664	40260.88
831.914	40135.88
832.165	40100.88
832.415	40071.88
832.666	40081.88
832.916	40282.88
833.167	40261.88
833.417	40187.88
833.667	40094.88
833.917	40040.88
834.168	39707.88
834.418	39700.88
834.668	39524.88
834.918	39356.88
835.168	39340.88
835.418	39036.88
835.668	38919.88
835.918	38815.88
836.167	38782.88
836.417	38633.88
836.667	38693.88
836.917	38699.88
837.166	38698.88
837.416	38657.88
837.666	38720.88
837.915	38562.88
838.165	38461.88
838.414	38358.88
838.663	38342.88
838.913	38318.88
839.162	38259.88
839.411	38244.88
839.661	38141.88
839.91	37807.88
840.159	37853.88
840.408	37803.88
840.657	37725.88
840.906	37922.88
841.155	37768.88
841.404	37721.88
841.653	37816.88
841.902	37888.88
842.15	38103.88
842.399	38052.88
842.648	38030.88
842.897	37882.88
843.145	37638.88
843.394	37375.88
843.642	37210.88
843.891	37023.88
844.139	36892.88
844.388	36608.88
844.636	36381.88
844.884	36551.88
845.133	36404.88
845.381	36420.88
845.629	36546.88
845.877	36501.88
846.125	36427.88
846.373	36342.88
846.621	36251.88
846.869	36191.88
847.117	35810.88
847.365	35645.88
847.613	35490.88
847.861	35419.88
848.108	35416.88
848.356	35307.88
848.604	35205.88
848.851	35169.88
849.099	35366.88
849.346	35521.88
849.594	35612.88
849.841	35679.88
850.089	35621.88
850.336	35704.88
850.583	35531.88
850.831	35428.88
851.078	35241.88
851.325	35277.88
851.572	35294.88
851.819	35112.88
852.066	34435.88
852.313	34057.88
852.56	33842.88
852.807	33738.88
853.054	33453.88
853.301	33481.88
853.548	33496.88
853.794	33701.88
854.041	33766.88
854.288	33937.88
854.534	34064.88
854.781	34163.88
855.028	33927.88
855.274	33971.88
855.52	33722.88
855.767	33580.88
856.013	33596.88
856.26	33934.88
856.506	33253.88
856.752	33289.88
856.998	33205.88
857.244	33386.88
857.49	33519.88
857.736	33484.88
857.982	33625.88
858.228	33429.88
858.474	33236.88
858.72	33182.88
858.966	32797.88
859.212	32457.88
859.458	32158.88
859.703	31818.88
859.949	31522.88
860.195	31342.88
860.44	31186.88
860.686	31062.88
860.931	31039.88
861.177	30690.88
861.422	30684.88
861.667	30566.88
861.913	30639.88
862.158	30505.88
862.403	30877.88
862.648	30844.88
862.893	30836.88
863.138	30756.88
863.384	30632.88
863.629	30679.88
863.873	30729.88
864.118	30547.88
864.363	30466.88
864.608	30433.88
864.853	30153.88
865.098	30051.88
865.342	30042.88
865.587	29823.88
865.832	29811.88
866.076	29713.88
866.321	29733.88
866.565	29550.88
866.81	29404.88
867.054	29359.88
867.298	29236.88
867.543	29132.88
867.787	29065.88
868.031	28983.88
868.275	28943.88
868.519	28907.88
868.764	28937.88
869.008	28883.88
869.252	28852.88
869.496	28717.88
869.739	28651.88
869.983	28637.88
870.227	28718.88
870.471	28564.88
870.715	28708.88
870.958	28707.88
871.202	28826.88
871.446	28873.88
871.689	28850.88
871.933	28825.88
872.176	28747.88
872.42	28793.88
872.663	28627.88
872.906	28689.88
873.15	28431.88
873.393	28336.88
873.636	28297.88
873.879	28061.88
874.122	27771.88
874.366	27299.88
874.609	27199.88
874.852	27059.88
875.095	26884.88
875.337	26827.88
875.58	26689.88
875.823	26556.88
876.066	26498.88
876.309	26516.88
876.551	26214.88
876.794	26116.88
877.037	26027.88
877.279	25959.88
877.522	25962.88
877.764	26019.88
878.007	25905.88
878.249	25921.88
878.491	25843.88
878.734	25924.88
878.976	25712.88
879.218	25552.88
879.46	25378.88
879.702	25318.88
879.945	24937.88
880.187	24842.88
880.429	24748.88
880.671	24598.88
880.912	24551.88
881.154	24487.88
881.396	24356.88
881.638	24433.88
881.88	24415.88
882.121	24327.88
882.363	24276.88
882.605	24185.88
882.846	24223.88
883.088	24151.88
883.329	24038.88
883.571	24020.88
883.812	24143.88
884.053	24559.88
884.295	24901.88
884.536	25147.88
884.777	24930.88
885.018	24913.88
885.259	24813.88
885.5	24628.88
885.742	24771.88
885.982	24602.88
886.223	24352.88
886.464	24255.88
886.705	23959.88
886.946	23874.88
887.187	23573.88
887.428	23301.88
887.668	22922.88
887.909	22584.88
888.15	22419.88
888.39	22297.88
888.631	22141.88
888.871	21942.88
889.111	21701.88
889.352	21685.88
889.592	21509.88
889.833	21343.88
890.073	21140.88
890.313	21124.88
890.553	20968.88
890.793	20897.88
891.033	20731.88
891.273	20530.88
891.513	20526.88
891.753	20448.88
891.993	20525.88
892.233	20410.88
892.473	20549.88
892.713	20623.88
892.952	20487.88
893.192	20569.88
893.432	20450.88
893.671	20434.88
893.911	20327.88
894.15	20197.88
894.39	20014.88
894.629	19869.88
894.869	19898.88
895.108	19688.88
895.347	19618.88
895.587	19573.88
895.826	19644.88
896.065	19509.88
896.304	19582.88
896.543	19534.88
896.782	19310.88
897.021	19370.88
897.26	19258.88
897.499	19301.88
897.738	19275.88
897.977	19075.88
898.216	18916.88
898.454	18817.88
898.693	18626.88
898.932	18617.88
899.17	18657.88
899.409	18451.88
899.647	18422.88
899.886	18368.88
900.124	18412.88
900.363	18381.88
900.601	18514.88
900.839	18442.88
901.078	18476.88
901.316	18586.88
901.554	18655.88
901.792	18563.88
902.03	18602.88
902.268	18563.88
902.506	18608.88
902.744	18445.88
902.982	18303.88
903.22	18042.88
903.458	17825.88
903.695	17553.88
903.933	17308.88
904.171	17159.88
904.409	16857.88
904.646	16546.88
904.884	16407.88
905.121	16323.88
905.359	16058.88
905.596	15901.88
905.833	15782.88
906.071	15683.88
906.308	15679.88
906.545	15621.88
906.783	15395.88
907.02	15558.88
907.257	15379.88
907.494	15429.88
907.731	15317.88
907.968	15288.88
908.205	15155.88
908.442	14993.88
908.679	14967.88
908.915	14806.88
909.152	14765.88
909.389	14555.88
909.626	14508.88
909.862	14436.88
910.099	14367.88
910.335	14293.88
910.572	14104.88
910.808	14222.88
911.045	14149.88
911.281	14034.88
911.518	14068.88
911.754	13932.88
911.99	13858.88
912.226	13693.88
912.463	13577.88
912.699	13433.88
912.935	13388.88
913.171	13333.88
913.407	13179.88
913.643	13162.88
913.879	12996.88
914.114	12866.88
914.35	12736.88
914.586	12677.88
914.822	12475.88
915.057	12463.88
915.293	12334.88
915.529	12249.88
915.764	12316.88
916	12285.88
916.235	12161.88
916.471	12213.88
916.706	12138.88
916.941	12070.88
917.177	12021.88
917.412	12069.88
917.647	12068.88
917.882	12005.88
918.117	11978.88
918.352	11960.88
918.588	11895.88
918.823	11823.88
919.057	11735.88
919.292	11484.88
919.527	11522.88
919.762	11293.88
919.997	11272.88
920.232	11106.88
920.466	11063.88
920.701	10890.88
920.935	10855.88
921.17	10787.88
921.405	10780.88
921.639	10794.88
921.873	10675.88
922.108	10595.88
922.342	10572.88
922.576	10548.88
922.811	10435.88
923.045	10473.88
923.279	10515.88
923.513	10214.88
923.747	10271.88
923.981	10225.88
924.215	10087.88
924.449	9984.88
924.683	9943.88
924.917	9971.88
925.151	9888.88
925.385	9945.88
925.618	9911.88
925.852	9796.88
926.086	9766.88
926.319	9800.88
926.553	9787.88
926.786	9801.88
927.02	9776.88
927.253	9735.88
927.486	9722.88
927.72	9642.88
927.953	9601.88
928.186	9562.88
928.42	9651.88
928.653	9545.88
928.886	9478.88
929.119	9396.88
929.352	9347.88
929.585	9340.88
929.818	9180.88
930.051	9138.88
930.284	9066.88
930.516	8940.88
930.749	8904.88
930.982	8991.88
931.215	8835.88
931.447	8756.88
931.68	8772.88
931.912	8750.88
932.145	8751.88
932.377	8714.88
932.61	8877.88
932.842	8651.88
933.074	8679.88
933.307	8625.88
933.539	8663.88
933.771	8685.88
934.003	8675.88
934.236	8727.88
934.468	8713.88
934.7	8599.88
934.932	8642.88
935.164	8531.88
935.395	8500.88
935.627	8467.88
935.859	8489.88
936.091	8392.88
936.323	8380.88
936.554	8398.88
936.786	8304.88
937.017	8316.88
937.249	8260.88
937.481	8198.88
937.712	8238.88
937.943	8072.88
938.175	8196.88
938.406	8159.88
938.637	8174.88
938.869	8063.88
939.1	8149.88
939.331	8031.88
939.562	8048.88
939.793	8028.88
940.024	8006.88
940.255	7956.88
940.486	7874.88
940.717	7895.88
940.948	7830.88
941.179	7774.88
941.409	7840.88
941.64	7711.88
941.871	7774.88
942.102	7707.88
942.332	7720.88
942.563	7820.88
942.793	7718.88
943.024	7706.88
943.254	7699.88
943.484	7664.88
943.715	7726.88
943.945	7631.88
944.175	7606.88
944.405	7568.88
944.636	7608.88
944.866	7565.88
945.096	7609.88
945.326	7527.88
945.556	7494.88
945.786	7544.88
946.016	7498.88
946.245	7380.88
946.475	7334.88
946.705	7257.88
946.935	7236.88
947.164	7213.88
947.394	7081.88
947.624	7121.88
947.853	7119.88
948.083	7093.88
948.312	7031.88
948.542	6951.88
948.771	6938.88
949	6940.88
949.23	6925.88
949.459	6942.88
949.688	6943.88
949.917	6891.88
950.146	6924.88
950.375	6956.88
950.604	6835.88
950.833	6895.88
951.062	6908.88
951.291	6791.88
951.52	6748.88
951.749	6784.88
951.978	6691.88
952.206	6680.88
952.435	6671.88
952.664	6676.88
952.892	6631.88
953.121	6594.88
953.349	6638.88
953.578	6581.88
953.806	6495.88
954.035	6448.88
954.263	6454.88
954.491	6356.88
954.719	6349.88
954.948	6314.88
955.176	6331.88
955.404	6221.88
955.632	6224.88
955.86	6277.88
956.088	6224.88
956.316	6231.88
956.544	6241.88
956.772	6136.88
956.999	6089.88
957.227	6152.88
957.455	6008.88
957.683	5977.88
957.91	5935.88
958.138	5913.88
958.365	5910.88
958.593	5907.88
958.82	5798.88
959.048	5813.88
959.275	5774.88
959.502	5804.88
959.73	5790.88
959.957	5817.88
960.184	5781.88
960.411	5705.88
960.638	5745.88
960.865	5695.88
961.092	5704.88
961.319	5584.88
961.546	5703.88
961.773	5660.88
962	5602.88
962.227	5672.88
962.454	5600.88
962.68	5588.88
962.907	5585.88
963.134	5531.88
963.36	5536.88
963.587	5455.88
963.813	5340.88
964.04	5388.88
964.266	5293.88
964.493	5309.88
964.719	5320.88
964.945	5292.88
965.171	5222.88
965.398	5208.88
965.624	5200.88
965.85	5097.88
966.076	5111.88
966.302	5112.88
966.528	5044.88
966.754	5115.88
966.98	5069.88
967.206	4961.88
967.431	4919.88
967.657	5022.88
967.883	5007.88
968.109	4954.88
968.334	4857.88
968.56	4904.88
968.785	4906.88
969.011	4828.88
969.236	4929.88
969.462	4791.88
969.687	4843.88
969.912	4806.88
970.138	4836.88
970.363	4806.88
970.588	4713.88
970.813	4724.88
971.038	4685.88
971.263	4703.88
971.488	4661.88
971.713	4749.88
971.938	4691.88
972.163	4567.88
972.388	4571.88
972.613	4523.88
972.838	4554.88
973.062	4513.88
973.287	4521.88
973.512	4411.88
973.736	4463.88
973.961	4412.88
974.185	4418.88
974.41	4425.88
974.634	4268.88
974.858	4295.88
975.083	4306.88
975.307	4344.88
975.531	4222.88
975.755	4121.88
975.98	4190.88
976.204	4131.88
976.428	4078.88
976.652	4065.88
976.876	4050.88
977.1	4048.88
977.324	4004.88
977.547	4061.88
977.771	4105.88
977.995	4012.88
978.219	3941.88
978.442	4037.88
978.666	3969.88
978.89	3990.88
979.113	3949.88
979.337	3955.88
979.56	3922.88
979.783	3942.88
980.007	3821.88
980.23	3828.88
980.453	3809.88
980.677	3845.88
980.9	3821.88
981.123	3685.88
981.346	3788.88
981.569	3760.88
981.792	3761.88
982.015	3700.88
982.238	3630.88
982.461	3681.88
982.684	3633.88
982.907	3597.88
983.129	3566.88
983.352	3615.88
983.575	3540.88
983.797	3571.88
984.02	3467.88
984.242	3502.88
984.465	3465.88
984.687	3502.88
984.91	3475.88
985.132	3452.88
985.354	3457.88
985.577	3417.88
985.799	3374.88
986.021	3309.88
986.243	3332.88
986.465	3322.88
986.687	3358.88
986.909	3398.88
987.131	3291.88
987.353	3291.88
987.575	3318.88
987.797	3296.88
988.019	3194.88
988.241	3258.88
988.462	3223.88
988.684	3277.88
988.906	3286.88
989.127	3246.88
989.349	3164.88
989.57	3233.88
989.792	3185.88
990.013	3224.88
990.234	3173.88
990.456	3216.88
990.677	3184.88
990.898	3139.88
991.119	3114.88
991.341	3082.88
991.562	3045.88
991.783	3090.88
992.004	3013.88
992.225	3003.88
992.446	3050.88
992.667	2929.88
992.887	2979.88
993.108	2861.88
993.329	2999.88
993.55	2907.88
993.77	2854.88
993.991	2860.88
994.212	2918.88
994.432	2832.88
994.653	2839.88
994.873	2827.88
995.093	2749.88
995.314	2770.88
995.534	2834.88
995.754	2818.88
995.975	2867.88
996.195	2720.88
996.415	2771.88
996.635	2743.88
996.855	2755.88
997.075	2709.88
997.295	2689.88
997.515	2689.88
997.735	2728.88
997.955	2700.88
998.174	2671.88
998.394	2638.88
998.614	2721.88
998.834	2641.88
999.053	2731.88
999.273	2674.88
999.492	2735.88
999.712	2640.88
999.931	2585.88
1000.151	2603.88
1000.37	2619.88
1000.589	2629.88
1000.809	2543.88
1001.028	2630.88
1001.247	2593.88
1001.466	2465.88
1001.685	2585.88
1001.904	2491.88
1002.123	2477.88
1002.342	2498.88
1002.561	2450.88
1002.78	2468.88
1002.999	2492.88
1003.218	2441.88
1003.436	2379.88
1003.655	2453.88
1003.874	2373.88
1004.092	2382.88
1004.311	2432.88
1004.53	2345.88
1004.748	2442.88
1004.966	2378.88
1005.185	2427.88
1005.403	2418.88
1005.622	2385.88
1005.84	2395.88
1006.058	2333.88
1006.276	2325.88
1006.494	2806.88
1006.712	2331.88
1006.931	2363.88
1007.149	2325.88
1007.367	2313.88
1007.584	2361.88
1007.802	2414.88
1008.02	2320.88
1008.238	2430.88
1008.456	2462.88
1008.673	2288.88
1008.891	2432.88
1009.109	2412.88
1009.326	2440.88
1009.544	2540.88
1009.761	2468.88
1009.979	2589.88
1010.196	2646.88
1010.413	2758.88
1010.631	2860.88
1010.848	2914.88
1011.065	2909.88
1011.282	2874.88
1011.5	2774.88
1011.717	2917.88
1011.934	2819.88
1012.151	2857.88
1012.368	2836.88
1012.585	2787.88
1012.801	2842.88
1013.018	2805.88
1013.235	2751.88
1013.452	2756.88
1013.669	2834.88
1013.885	2795.88
1014.102	2837.88
1014.318	2820.88
1014.535	2777.88
1014.751	2782.88
1014.968	2798.88
1015.184	2796.88
1015.401	2692.88
1015.617	2724.88
1015.833	2640.88
1016.049	2603.88
1016.266	2604.88
1016.482	2586.88
1016.698	2513.88
1016.914	2537.88
1017.13	2476.88
1017.346	2452.88
1017.562	2521.88
1017.778	2441.88
1017.993	2411.88
1018.209	2460.88
1018.425	2481.88
1018.641	2377.88
1018.856	2365.88
1019.072	2427.88
1019.288	2452.88
1019.503	2405.88
1019.719	2345.88
1019.934	2319.88
1020.149	2394.88
1020.365	2294.88
1020.58	2261.88
1020.795	2286.88
1021.011	2165.88
1021.226	2162.88
1021.441	2146.88
1021.656	2031.88
1021.871	1958.88
1022.086	1967.88
1022.301	1914.88
1022.516	1898.88
1022.731	1928.88
1022.946	1839.88
1023.16	1828.88
1023.375	1753.88
1023.59	1764.88
1023.804	1715.88
1024.019	1783.88
1024.234	1599.88
1024.448	1637.88
1024.663	1525.88
1024.877	1581.88
1025.092	1566.88
1025.306	1570.88
1025.52	1470.88
1025.734	1521.88
1025.949	1406.88
1026.163	1374.88
1026.377	1306.88
1026.591	1352.88
1026.805	1262.88
1027.019	1236.88
1027.233	1201.88
1027.447	1148.88
1027.661	1263.88
1027.875	1181.88
1028.088	1178.88
1028.302	1069.88
1028.516	1052.88
1028.73	1052.88
1028.943	1036.88
1029.157	964.88
1029.37	923.88
1029.584	-1.12
1029.797	1.88
1030.011	-5.12
1030.224	-5.12
