Data from QEP037381__324__16-23-49-912.txt Node

Date: Fri Dec 16 16:23:49 EST 2022
User: dcclab
Spectrometer: QEP03738
Trigger mode: 4
Integration Time (sec): 1.000000E1
Scans to average: 1
Electric dark correction enabled: true
Nonlinearity correction enabled: false
Boxcar width: 0
XAxis mode: Wavelengths
Number of Pixels in Spectrum: 1044
>>>>>Begin Spectral Data<<<<<
784.041	14.5
784.3	-0.5
784.558	-5.5
784.817	-1.5
785.075	115469.5
785.334	20045.5
785.592	9332.5
785.851	6503.5
786.109	4825.5
786.368	3739.5
786.626	3021.5
786.884	2488.5
787.143	2075.5
787.401	1727.5
787.659	1528.5
787.917	1311.5
788.175	1207.5
788.433	1061.5
788.691	952.5
788.949	891.5
789.207	819.5
789.465	706.5
789.723	687.5
789.98	630.5
790.238	668.5
790.496	622.5
790.753	600.5
791.011	632.5
791.268	561.5
791.526	546.5
791.783	562.5
792.041	557.5
792.298	465.5
792.556	535.5
792.813	500.5
793.07	480.5
793.327	463.5
793.584	531.5
793.841	469.5
794.099	480.5
794.356	550.5
794.613	466.5
794.869	480.5
795.126	456.5
795.383	431.5
795.64	456.5
795.897	415.5
796.153	456.5
796.41	441.5
796.667	430.5
796.923	447.5
797.18	444.5
797.436	479.5
797.693	435.5
797.949	486.5
798.206	520.5
798.462	428.5
798.718	481.5
798.974	460.5
799.231	502.5
799.487	497.5
799.743	506.5
799.999	524.5
800.255	540.5
800.511	510.5
800.767	562.5
801.023	554.5
801.279	595.5
801.534	623.5
801.79	677.5
802.046	694.5
802.302	860.5
802.557	980.5
802.813	1234.5
803.068	1509.5
803.324	2113.5
803.579	2858.5
803.835	3953.5
804.09	5378.5
804.345	7046.5
804.601	8825.5
804.856	10671.5
805.111	12302.5
805.366	13603.5
805.621	14597.5
805.876	15132.5
806.131	15541.5
806.386	15918.5
806.641	16174.5
806.896	16413.5
807.151	16771.5
807.406	16857.5
807.661	17298.5
807.915	17568.5
808.17	17855.5
808.425	18083.5
808.679	18075.5
808.934	18483.5
809.188	18565.5
809.443	18789.5
809.697	18910.5
809.951	19136.5
810.206	19331.5
810.46	19450.5
810.714	19723.5
810.968	19820.5
811.223	19940.5
811.477	20114.5
811.731	20345.5
811.985	20347.5
812.239	20437.5
812.493	20531.5
812.747	20684.5
813	20672.5
813.254	20814.5
813.508	20844.5
813.762	21050.5
814.015	21074.5
814.269	21183.5
814.522	21412.5
814.776	21706.5
815.03	21971.5
815.283	22163.5
815.536	22532.5
815.79	22822.5
816.043	23232.5
816.296	23522.5
816.55	23867.5
816.803	24037.5
817.056	24406.5
817.309	24599.5
817.562	24837.5
817.815	25089.5
818.068	25275.5
818.321	25555.5
818.574	25767.5
818.827	26134.5
819.079	26524.5
819.332	26965.5
819.585	27282.5
819.838	27586.5
820.09	27751.5
820.343	27937.5
820.595	27885.5
820.848	28204.5
821.1	28331.5
821.353	28309.5
821.605	28302.5
821.857	28382.5
822.11	28241.5
822.362	28181.5
822.614	28056.5
822.866	28131.5
823.118	28084.5
823.37	28167.5
823.622	28228.5
823.874	28421.5
824.126	28343.5
824.378	28500.5
824.63	28503.5
824.882	28665.5
825.134	28595.5
825.385	28436.5
825.637	28482.5
825.888	28374.5
826.14	28283.5
826.392	28260.5
826.643	28076.5
826.895	28055.5
827.146	27950.5
827.397	27932.5
827.649	27845.5
827.9	27794.5
828.151	27866.5
828.402	27909.5
828.653	28025.5
828.905	27988.5
829.156	28161.5
829.407	28156.5
829.658	28188.5
829.909	28117.5
830.159	28241.5
830.41	28196.5
830.661	27896.5
830.912	27659.5
831.162	27589.5
831.413	27518.5
831.664	27628.5
831.914	27580.5
832.165	27441.5
832.415	27403.5
832.666	27449.5
832.916	27403.5
833.167	27378.5
833.417	27471.5
833.667	27403.5
833.917	27273.5
834.168	27238.5
834.418	27132.5
834.668	27059.5
834.918	26799.5
835.168	26836.5
835.418	26664.5
835.668	26490.5
835.918	26486.5
836.167	26508.5
836.417	26425.5
836.667	26423.5
836.917	26356.5
837.166	26376.5
837.416	26366.5
837.666	26376.5
837.915	26326.5
838.165	26244.5
838.414	26232.5
838.663	26232.5
838.913	26130.5
839.162	26045.5
839.411	26242.5
839.661	25936.5
839.91	25859.5
840.159	25860.5
840.408	25832.5
840.657	25763.5
840.906	25758.5
841.155	25951.5
841.404	25873.5
841.653	25944.5
841.902	25837.5
842.15	26064.5
842.399	25965.5
842.648	25886.5
842.897	25831.5
843.145	25563.5
843.394	25493.5
843.642	25451.5
843.891	25210.5
844.139	25118.5
844.388	24923.5
844.636	24879.5
844.884	24889.5
845.133	24805.5
845.381	24727.5
845.629	24850.5
845.877	24700.5
846.125	24731.5
846.373	24720.5
846.621	24563.5
846.869	24574.5
847.117	24320.5
847.365	24119.5
847.613	24134.5
847.861	24186.5
848.108	23989.5
848.356	24025.5
848.604	23932.5
848.851	23964.5
849.099	24077.5
849.346	24076.5
849.594	24126.5
849.841	24214.5
850.089	24215.5
850.336	24323.5
850.583	24097.5
850.831	24100.5
851.078	24072.5
851.325	23977.5
851.572	24094.5
851.819	23895.5
852.066	23414.5
852.313	23122.5
852.56	22942.5
852.807	22892.5
853.054	22795.5
853.301	22697.5
853.548	22692.5
853.794	22924.5
854.041	23007.5
854.288	23009.5
854.534	23385.5
854.781	23275.5
855.028	23066.5
855.274	23181.5
855.52	22925.5
855.767	22978.5
856.013	23035.5
856.26	23138.5
856.506	22719.5
856.752	22664.5
856.998	22623.5
857.244	22737.5
857.49	22862.5
857.736	22898.5
857.982	22909.5
858.228	22844.5
858.474	22662.5
858.72	22528.5
858.966	22314.5
859.212	22068.5
859.458	21803.5
859.703	21706.5
859.949	21466.5
860.195	21378.5
860.44	21184.5
860.686	21034.5
860.931	21158.5
861.177	20937.5
861.422	20956.5
861.667	20771.5
861.913	20752.5
862.158	20827.5
862.403	20866.5
862.648	20811.5
862.893	20909.5
863.138	20831.5
863.384	20837.5
863.629	20800.5
863.873	20766.5
864.118	20705.5
864.363	20664.5
864.608	20536.5
864.853	20458.5
865.098	20414.5
865.342	20324.5
865.587	20211.5
865.832	20219.5
866.076	20116.5
866.321	20182.5
866.565	19998.5
866.81	19946.5
867.054	19930.5
867.298	19868.5
867.543	19726.5
867.787	19792.5
868.031	19670.5
868.275	19684.5
868.519	19565.5
868.764	19601.5
869.008	19550.5
869.252	19554.5
869.496	19442.5
869.739	19423.5
869.983	19489.5
870.227	19472.5
870.471	19492.5
870.715	19535.5
870.958	19621.5
871.202	19568.5
871.446	19702.5
871.689	19590.5
871.933	19621.5
872.176	19644.5
872.42	19513.5
872.663	19551.5
872.906	19585.5
873.15	19509.5
873.393	19419.5
873.636	19479.5
873.879	19260.5
874.122	19136.5
874.366	18788.5
874.609	18658.5
874.852	18440.5
875.095	18403.5
875.337	18261.5
875.58	18132.5
875.823	18161.5
876.066	18102.5
876.309	18068.5
876.551	17866.5
876.794	17857.5
877.037	17786.5
877.279	17722.5
877.522	17756.5
877.764	17775.5
878.007	17597.5
878.249	17657.5
878.491	17598.5
878.734	17631.5
878.976	17558.5
879.218	17280.5
879.46	17284.5
879.702	17223.5
879.945	17088.5
880.187	16870.5
880.429	16843.5
880.671	16685.5
880.912	16637.5
881.154	16554.5
881.396	16533.5
881.638	16552.5
881.88	16565.5
882.121	16542.5
882.363	16589.5
882.605	16580.5
882.846	16368.5
883.088	16456.5
883.329	16415.5
883.571	16519.5
883.812	16617.5
884.053	16964.5
884.295	17254.5
884.536	17469.5
884.777	17363.5
885.018	17273.5
885.259	17153.5
885.5	17061.5
885.742	17172.5
885.982	16928.5
886.223	16712.5
886.464	16732.5
886.705	16480.5
886.946	16370.5
887.187	16030.5
887.428	15897.5
887.668	15622.5
887.909	15382.5
888.15	15197.5
888.39	15162.5
888.631	15067.5
888.871	14905.5
889.111	14772.5
889.352	14737.5
889.592	14565.5
889.833	14468.5
890.073	14452.5
890.313	14451.5
890.553	14215.5
890.793	14072.5
891.033	14047.5
891.273	13958.5
891.513	13983.5
891.753	14046.5
891.993	13884.5
892.233	13893.5
892.473	14006.5
892.713	13887.5
892.952	13991.5
893.192	13970.5
893.432	13909.5
893.671	13887.5
893.911	13783.5
894.15	13744.5
894.39	13576.5
894.629	13591.5
894.869	13514.5
895.108	13506.5
895.347	13348.5
895.587	13454.5
895.826	13338.5
896.065	13283.5
896.304	13358.5
896.543	13369.5
896.782	13200.5
897.021	13254.5
897.26	13214.5
897.499	13257.5
897.738	13201.5
897.977	12971.5
898.216	12885.5
898.454	12821.5
898.693	12689.5
898.932	12822.5
899.17	12700.5
899.409	12687.5
899.647	12652.5
899.886	12624.5
900.124	12608.5
900.363	12566.5
900.601	12689.5
900.839	12718.5
901.078	12679.5
901.316	12835.5
901.554	12839.5
901.792	12955.5
902.03	12875.5
902.268	12862.5
902.506	12885.5
902.744	12765.5
902.982	12682.5
903.22	12442.5
903.458	12368.5
903.695	12158.5
903.933	11943.5
904.171	11711.5
904.409	11587.5
904.646	11431.5
904.884	11271.5
905.121	11187.5
905.359	10964.5
905.596	10936.5
905.833	10878.5
906.071	10738.5
906.308	10759.5
906.545	10677.5
906.783	10645.5
907.02	10649.5
907.257	10488.5
907.494	10515.5
907.731	10555.5
907.968	10481.5
908.205	10338.5
908.442	10330.5
908.679	10318.5
908.915	10223.5
909.152	10144.5
909.389	10026.5
909.626	9968.5
909.862	9872.5
910.099	9885.5
910.335	9860.5
910.572	9694.5
910.808	9755.5
911.045	9741.5
911.281	9613.5
911.518	9692.5
911.754	9576.5
911.99	9566.5
912.226	9424.5
912.463	9379.5
912.699	9341.5
912.935	9235.5
913.171	9210.5
913.407	9023.5
913.643	9042.5
913.879	8987.5
914.114	8890.5
914.35	8731.5
914.586	8741.5
914.822	8600.5
915.057	8682.5
915.293	8495.5
915.529	8435.5
915.764	8512.5
916	8461.5
916.235	8452.5
916.471	8441.5
916.706	8320.5
916.941	8330.5
917.177	8373.5
917.412	8395.5
917.647	8372.5
917.882	8245.5
918.117	8351.5
918.352	8275.5
918.588	8307.5
918.823	8176.5
919.057	8105.5
919.292	8034.5
919.527	7937.5
919.762	7866.5
919.997	7814.5
920.232	7720.5
920.466	7764.5
920.701	7508.5
920.935	7602.5
921.17	7520.5
921.405	7387.5
921.639	7439.5
921.873	7377.5
922.108	7422.5
922.342	7384.5
922.576	7319.5
922.811	7290.5
923.045	7279.5
923.279	7227.5
923.513	7144.5
923.747	7173.5
923.981	7074.5
924.215	7054.5
924.449	7031.5
924.683	6956.5
924.917	6906.5
925.151	6831.5
925.385	6954.5
925.618	6894.5
925.852	6850.5
926.086	6748.5
926.319	6805.5
926.553	6804.5
926.786	6815.5
927.02	6791.5
927.253	6772.5
927.486	6780.5
927.72	6686.5
927.953	6707.5
928.186	6704.5
928.42	6727.5
928.653	6655.5
928.886	6555.5
929.119	6654.5
929.352	6546.5
929.585	6471.5
929.818	6440.5
930.051	6408.5
930.284	6355.5
930.516	6282.5
930.749	6249.5
930.982	6273.5
931.215	6236.5
931.447	6159.5
931.68	6185.5
931.912	6101.5
932.145	6129.5
932.377	6155.5
932.61	6318.5
932.842	6081.5
933.074	6127.5
933.307	6070.5
933.539	6201.5
933.771	6179.5
934.003	6114.5
934.236	6178.5
934.468	6160.5
934.7	6038.5
934.932	6116.5
935.164	6017.5
935.395	6010.5
935.627	5967.5
935.859	5997.5
936.091	5883.5
936.323	5889.5
936.554	5919.5
936.786	5865.5
937.017	5819.5
937.249	5827.5
937.481	5776.5
937.712	5842.5
937.943	5730.5
938.175	5767.5
938.406	5737.5
938.637	5744.5
938.869	5669.5
939.1	5711.5
939.331	5711.5
939.562	5687.5
939.793	5699.5
940.024	5661.5
940.255	5694.5
940.486	5543.5
940.717	5598.5
940.948	5566.5
941.179	5467.5
941.409	5495.5
941.64	5499.5
941.871	5477.5
942.102	5440.5
942.332	5468.5
942.563	5522.5
942.793	5479.5
943.024	5419.5
943.254	5479.5
943.484	5505.5
943.715	5443.5
943.945	5461.5
944.175	5394.5
944.405	5338.5
944.636	5361.5
944.866	5356.5
945.096	5392.5
945.326	5320.5
945.556	5331.5
945.786	5379.5
946.016	5264.5
946.245	5218.5
946.475	5157.5
946.705	5165.5
946.935	5119.5
947.164	5137.5
947.394	5113.5
947.624	5102.5
947.853	5091.5
948.083	5017.5
948.312	4974.5
948.542	4904.5
948.771	4916.5
949	4974.5
949.23	4918.5
949.459	4911.5
949.688	4999.5
949.917	4902.5
950.146	4942.5
950.375	4970.5
950.604	4851.5
950.833	4921.5
951.062	4924.5
951.291	4860.5
951.52	4812.5
951.749	4852.5
951.978	4756.5
952.206	4727.5
952.435	4751.5
952.664	4803.5
952.892	4757.5
953.121	4737.5
953.349	4726.5
953.578	4685.5
953.806	4701.5
954.035	4600.5
954.263	4631.5
954.491	4524.5
954.719	4566.5
954.948	4516.5
955.176	4481.5
955.404	4486.5
955.632	4485.5
955.86	4473.5
956.088	4418.5
956.316	4426.5
956.544	4452.5
956.772	4371.5
956.999	4343.5
957.227	4434.5
957.455	4314.5
957.683	4335.5
957.91	4227.5
958.138	4265.5
958.365	4236.5
958.593	4241.5
958.82	4211.5
959.048	4172.5
959.275	4210.5
959.502	4208.5
959.73	4119.5
959.957	4166.5
960.184	4135.5
960.411	4079.5
960.638	4149.5
960.865	4083.5
961.092	4083.5
961.319	3995.5
961.546	4105.5
961.773	4088.5
962	4034.5
962.227	4077.5
962.454	4080.5
962.68	4013.5
962.907	4041.5
963.134	3973.5
963.36	3979.5
963.587	3986.5
963.813	3882.5
964.04	3910.5
964.266	3859.5
964.493	3914.5
964.719	3812.5
964.945	3879.5
965.171	3759.5
965.398	3806.5
965.624	3840.5
965.85	3720.5
966.076	3690.5
966.302	3721.5
966.528	3701.5
966.754	3720.5
966.98	3669.5
967.206	3626.5
967.431	3609.5
967.657	3696.5
967.883	3651.5
968.109	3632.5
968.334	3568.5
968.56	3511.5
968.785	3592.5
969.011	3521.5
969.236	3535.5
969.462	3518.5
969.687	3533.5
969.912	3519.5
970.138	3553.5
970.363	3438.5
970.588	3523.5
970.813	3480.5
971.038	3422.5
971.263	3445.5
971.488	3435.5
971.713	3461.5
971.938	3424.5
972.163	3327.5
972.388	3335.5
972.613	3315.5
972.838	3345.5
973.062	3311.5
973.287	3307.5
973.512	3206.5
973.736	3241.5
973.961	3254.5
974.185	3203.5
974.41	3228.5
974.634	3153.5
974.858	3143.5
975.083	3175.5
975.307	3172.5
975.531	3072.5
975.755	3013.5
975.98	3104.5
976.204	3015.5
976.428	3005.5
976.652	2988.5
976.876	2962.5
977.1	3034.5
977.324	2952.5
977.547	3009.5
977.771	2986.5
977.995	2947.5
978.219	2901.5
978.442	2995.5
978.666	2948.5
978.89	2904.5
979.113	2908.5
979.337	2876.5
979.56	2852.5
979.783	2954.5
980.007	2863.5
980.23	2881.5
980.453	2798.5
980.677	2815.5
980.9	2867.5
981.123	2735.5
981.346	2791.5
981.569	2826.5
981.792	2808.5
982.015	2780.5
982.238	2710.5
982.461	2725.5
982.684	2680.5
982.907	2648.5
983.129	2642.5
983.352	2714.5
983.575	2682.5
983.797	2633.5
984.02	2606.5
984.242	2603.5
984.465	2608.5
984.687	2634.5
984.91	2630.5
985.132	2583.5
985.354	2598.5
985.577	2589.5
985.799	2544.5
986.021	2471.5
986.243	2494.5
986.465	2495.5
986.687	2551.5
986.909	2561.5
987.131	2520.5
987.353	2445.5
987.575	2477.5
987.797	2444.5
988.019	2393.5
988.241	2428.5
988.462	2405.5
988.684	2499.5
988.906	2469.5
989.127	2509.5
989.349	2344.5
989.57	2406.5
989.792	2451.5
990.013	2440.5
990.234	2456.5
990.456	2443.5
990.677	2425.5
990.898	2356.5
991.119	2363.5
991.341	2391.5
991.562	2357.5
991.783	2345.5
992.004	2310.5
992.225	2276.5
992.446	2308.5
992.667	2232.5
992.887	2304.5
993.108	2186.5
993.329	2302.5
993.55	2237.5
993.77	2179.5
993.991	2151.5
994.212	2182.5
994.432	2166.5
994.653	2181.5
994.873	2142.5
995.093	2062.5
995.314	2114.5
995.534	2170.5
995.754	2170.5
995.975	2194.5
996.195	2065.5
996.415	2126.5
996.635	2090.5
996.855	2149.5
997.075	2076.5
997.295	2093.5
997.515	2068.5
997.735	2107.5
997.955	2109.5
998.174	2076.5
998.394	2038.5
998.614	2081.5
998.834	2023.5
999.053	2107.5
999.273	2088.5
999.492	2118.5
999.712	2052.5
999.931	2003.5
1000.151	2032.5
1000.37	2004.5
1000.589	2061.5
1000.809	1945.5
1001.028	2102.5
1001.247	2010.5
1001.466	1907.5
1001.685	2066.5
1001.904	1963.5
1002.123	1967.5
1002.342	1966.5
1002.561	1903.5
1002.78	1941.5
1002.999	1994.5
1003.218	1907.5
1003.436	1899.5
1003.655	1930.5
1003.874	1871.5
1004.092	1927.5
1004.311	1933.5
1004.53	1893.5
1004.748	1953.5
1004.966	1833.5
1005.185	1946.5
1005.403	1914.5
1005.622	1872.5
1005.84	1962.5
1006.058	1846.5
1006.276	1876.5
1006.494	2366.5
1006.712	1868.5
1006.931	1945.5
1007.149	1848.5
1007.367	1833.5
1007.584	1895.5
1007.802	1941.5
1008.02	1881.5
1008.238	1954.5
1008.456	1955.5
1008.673	1826.5
1008.891	1940.5
1009.109	1926.5
1009.326	1979.5
1009.544	2053.5
1009.761	1975.5
1009.979	2086.5
1010.196	2108.5
1010.413	2265.5
1010.631	2278.5
1010.848	2381.5
1011.065	2376.5
1011.282	2338.5
1011.5	2268.5
1011.717	2405.5
1011.934	2323.5
1012.151	2346.5
1012.368	2293.5
1012.585	2264.5
1012.801	2358.5
1013.018	2283.5
1013.235	2255.5
1013.452	2272.5
1013.669	2279.5
1013.885	2249.5
1014.102	2331.5
1014.318	2260.5
1014.535	2198.5
1014.751	2262.5
1014.968	2237.5
1015.184	2272.5
1015.401	2146.5
1015.617	2203.5
1015.833	2138.5
1016.049	2141.5
1016.266	2090.5
1016.482	2110.5
1016.698	2016.5
1016.914	2065.5
1017.13	2002.5
1017.346	2005.5
1017.562	2040.5
1017.778	2011.5
1017.993	1965.5
1018.209	2014.5
1018.425	1970.5
1018.641	1965.5
1018.856	1934.5
1019.072	1935.5
1019.288	1993.5
1019.503	1950.5
1019.719	1844.5
1019.934	1872.5
1020.149	1961.5
1020.365	1877.5
1020.58	1802.5
1020.795	1880.5
1021.011	1774.5
1021.226	1726.5
1021.441	1777.5
1021.656	1659.5
1021.871	1559.5
1022.086	1594.5
1022.301	1545.5
1022.516	1567.5
1022.731	1557.5
1022.946	1519.5
1023.16	1485.5
1023.375	1442.5
1023.59	1415.5
1023.804	1370.5
1024.019	1491.5
1024.234	1334.5
1024.448	1369.5
1024.663	1247.5
1024.877	1287.5
1025.092	1292.5
1025.306	1260.5
1025.52	1175.5
1025.734	1238.5
1025.949	1161.5
1026.163	1151.5
1026.377	1077.5
1026.591	1124.5
1026.805	1016.5
1027.019	1017.5
1027.233	972.5
1027.447	942.5
1027.661	1034.5
1027.875	972.5
1028.088	982.5
1028.302	908.5
1028.516	887.5
1028.73	859.5
1028.943	842.5
1029.157	798.5
1029.37	751.5
1029.584	-2.5
1029.797	0.5
1030.011	-2.5
1030.224	-2.5
