Data from QEP037381__320__16-23-09-911.txt Node

Date: Fri Dec 16 16:23:09 EST 2022
User: dcclab
Spectrometer: QEP03738
Trigger mode: 4
Integration Time (sec): 1.000000E1
Scans to average: 1
Electric dark correction enabled: true
Nonlinearity correction enabled: false
Boxcar width: 0
XAxis mode: Wavelengths
Number of Pixels in Spectrum: 1044
>>>>>Begin Spectral Data<<<<<
784.041	12.38
784.3	3.38
784.558	-0.62
784.817	-3.62
785.075	113488.38
785.334	19455.38
785.592	8985.38
785.851	6215.38
786.109	4629.38
786.368	3587.38
786.626	2905.38
786.884	2435.38
787.143	2031.38
787.401	1673.38
787.659	1505.38
787.917	1310.38
788.175	1173.38
788.433	1057.38
788.691	929.38
788.949	838.38
789.207	829.38
789.465	719.38
789.723	696.38
789.98	642.38
790.238	668.38
790.496	610.38
790.753	603.38
791.011	654.38
791.268	582.38
791.526	556.38
791.783	551.38
792.041	566.38
792.298	464.38
792.556	540.38
792.813	517.38
793.07	488.38
793.327	477.38
793.584	567.38
793.841	491.38
794.099	503.38
794.356	560.38
794.613	461.38
794.869	480.38
795.126	464.38
795.383	453.38
795.64	471.38
795.897	423.38
796.153	470.38
796.41	460.38
796.667	440.38
796.923	451.38
797.18	455.38
797.436	494.38
797.693	453.38
797.949	519.38
798.206	534.38
798.462	451.38
798.718	507.38
798.974	486.38
799.231	526.38
799.487	513.38
799.743	520.38
799.999	568.38
800.255	563.38
800.511	540.38
800.767	595.38
801.023	585.38
801.279	636.38
801.534	684.38
801.79	756.38
802.046	793.38
802.302	964.38
802.557	1096.38
802.813	1403.38
803.068	1758.38
803.324	2491.38
803.579	3387.38
803.835	4682.38
804.09	6472.38
804.345	8463.38
804.601	10646.38
804.856	13023.38
805.111	14970.38
805.366	16633.38
805.621	17694.38
805.876	18521.38
806.131	19210.38
806.386	19564.38
806.641	19812.38
806.896	20210.38
807.151	20562.38
807.406	20820.38
807.661	21279.38
807.915	21680.38
808.17	22025.38
808.425	22206.38
808.679	22352.38
808.934	22683.38
809.188	22937.38
809.443	23142.38
809.697	23434.38
809.951	23621.38
810.206	23861.38
810.46	23986.38
810.714	24216.38
810.968	24508.38
811.223	24651.38
811.477	24887.38
811.731	25049.38
811.985	25267.38
812.239	25314.38
812.493	25417.38
812.747	25591.38
813	25651.38
813.254	25851.38
813.508	25844.38
813.762	25990.38
814.015	26146.38
814.269	26451.38
814.522	26493.38
814.776	26839.38
815.03	27198.38
815.283	27564.38
815.536	28014.38
815.79	28351.38
816.043	28887.38
816.296	29187.38
816.55	29671.38
816.803	30045.38
817.056	30212.38
817.309	30616.38
817.562	30911.38
817.815	31253.38
818.068	31427.38
818.321	31804.38
818.574	32149.38
818.827	32588.38
819.079	32914.38
819.332	33612.38
819.585	33911.38
819.838	34351.38
820.09	34508.38
820.343	34756.38
820.595	34798.38
820.848	35197.38
821.1	35396.38
821.353	35275.38
821.605	35231.38
821.857	35215.38
822.11	35156.38
822.362	35113.38
822.614	35036.38
822.866	35072.38
823.118	35046.38
823.37	35243.38
823.622	35335.38
823.874	35226.38
824.126	35535.38
824.378	35491.38
824.63	35770.38
824.882	35863.38
825.134	35725.38
825.385	35607.38
825.637	35566.38
825.888	35372.38
826.14	35402.38
826.392	35334.38
826.643	35184.38
826.895	34947.38
827.146	34751.38
827.397	34854.38
827.649	34916.38
827.9	34810.38
828.151	34797.38
828.402	34845.38
828.653	35029.38
828.905	35197.38
829.156	35228.38
829.407	35134.38
829.658	35134.38
829.909	35316.38
830.159	35318.38
830.41	35285.38
830.661	34876.38
830.912	34634.38
831.162	34625.38
831.413	34613.38
831.664	34552.38
831.914	34554.38
832.165	34398.38
832.415	34276.38
832.666	34401.38
832.916	34451.38
833.167	34461.38
833.417	34517.38
833.667	34399.38
833.917	34274.38
834.168	34176.38
834.418	34100.38
834.668	33914.38
834.918	33835.38
835.168	33762.38
835.418	33514.38
835.668	33427.38
835.918	33389.38
836.167	33296.38
836.417	33072.38
836.667	33260.38
836.917	33219.38
837.166	33088.38
837.416	33061.38
837.666	32980.38
837.915	32949.38
838.165	32975.38
838.414	32842.38
838.663	32710.38
838.913	32817.38
839.162	32829.38
839.411	32773.38
839.661	32524.38
839.91	32406.38
840.159	32467.38
840.408	32404.38
840.657	32440.38
840.906	32497.38
841.155	32477.38
841.404	32351.38
841.653	32392.38
841.902	32420.38
842.15	32486.38
842.399	32552.38
842.648	32508.38
842.897	32357.38
843.145	32178.38
843.394	31923.38
843.642	31780.38
843.891	31624.38
844.139	31644.38
844.388	31416.38
844.636	31150.38
844.884	31125.38
845.133	31224.38
845.381	31124.38
845.629	31206.38
845.877	31019.38
846.125	31044.38
846.373	31090.38
846.621	30898.38
846.869	30738.38
847.117	30638.38
847.365	30495.38
847.613	30410.38
847.861	30168.38
848.108	30301.38
848.356	30002.38
848.604	30014.38
848.851	30165.38
849.099	30126.38
849.346	30334.38
849.594	30247.38
849.841	30566.38
850.089	30406.38
850.336	30394.38
850.583	30381.38
850.831	30189.38
851.078	30082.38
851.325	30068.38
851.572	30230.38
851.819	29810.38
852.066	29352.38
852.313	28919.38
852.56	28696.38
852.807	28723.38
853.054	28486.38
853.301	28445.38
853.548	28431.38
853.794	28660.38
854.041	28670.38
854.288	28792.38
854.534	28981.38
854.781	28926.38
855.028	28954.38
855.274	28829.38
855.52	28708.38
855.767	28501.38
856.013	28598.38
856.26	28859.38
856.506	28177.38
856.752	28164.38
856.998	28346.38
857.244	28419.38
857.49	28584.38
857.736	28582.38
857.982	28656.38
858.228	28362.38
858.474	28134.38
858.72	28148.38
858.966	27823.38
859.212	27626.38
859.458	27422.38
859.703	27018.38
859.949	26764.38
860.195	26590.38
860.44	26426.38
860.686	26338.38
860.931	26347.38
861.177	26199.38
861.422	26002.38
861.667	25914.38
861.913	25925.38
862.158	26036.38
862.403	25984.38
862.648	26204.38
862.893	26148.38
863.138	25961.38
863.384	25874.38
863.629	25871.38
863.873	25835.38
864.118	25855.38
864.363	25785.38
864.608	25668.38
864.853	25605.38
865.098	25333.38
865.342	25214.38
865.587	25055.38
865.832	25077.38
866.076	25046.38
866.321	25063.38
866.565	24919.38
866.81	24863.38
867.054	24854.38
867.298	24590.38
867.543	24487.38
867.787	24650.38
868.031	24622.38
868.275	24434.38
868.519	24377.38
868.764	24446.38
869.008	24296.38
869.252	24295.38
869.496	24107.38
869.739	24127.38
869.983	24195.38
870.227	24003.38
870.471	23944.38
870.715	24117.38
870.958	24228.38
871.202	24055.38
871.446	24251.38
871.689	24175.38
871.933	24251.38
872.176	24150.38
872.42	24066.38
872.663	24057.38
872.906	23993.38
873.15	23998.38
873.393	23828.38
873.636	23885.38
873.879	23534.38
874.122	23279.38
874.366	22994.38
874.609	22929.38
874.852	22650.38
875.095	22572.38
875.337	22453.38
875.58	22249.38
875.823	22317.38
876.066	22229.38
876.309	22148.38
876.551	21991.38
876.794	22013.38
877.037	21871.38
877.279	21809.38
877.522	21782.38
877.764	21861.38
878.007	21578.38
878.249	21638.38
878.491	21545.38
878.734	21580.38
878.976	21528.38
879.218	21320.38
879.46	21247.38
879.702	21067.38
879.945	20893.38
880.187	20759.38
880.429	20741.38
880.671	20515.38
880.912	20482.38
881.154	20369.38
881.396	20329.38
881.638	20338.38
881.88	20232.38
882.121	20195.38
882.363	20249.38
882.605	20247.38
882.846	20102.38
883.088	20166.38
883.329	20016.38
883.571	20038.38
883.812	20203.38
884.053	20360.38
884.295	20720.38
884.536	20887.38
884.777	20843.38
885.018	20708.38
885.259	20550.38
885.5	20528.38
885.742	20594.38
885.982	20384.38
886.223	20170.38
886.464	20146.38
886.705	19875.38
886.946	19721.38
887.187	19362.38
887.428	19310.38
887.668	18907.38
887.909	18693.38
888.15	18491.38
888.39	18405.38
888.631	18317.38
888.871	18188.38
889.111	18039.38
889.352	17847.38
889.592	17771.38
889.833	17583.38
890.073	17449.38
890.313	17430.38
890.553	17202.38
890.793	17235.38
891.033	16950.38
891.273	16953.38
891.513	16922.38
891.753	16997.38
891.993	16919.38
892.233	16890.38
892.473	16950.38
892.713	16966.38
892.952	16981.38
893.192	16947.38
893.432	16879.38
893.671	16860.38
893.911	16847.38
894.15	16707.38
894.39	16550.38
894.629	16460.38
894.869	16342.38
895.108	16277.38
895.347	16199.38
895.587	16198.38
895.826	16072.38
896.065	16063.38
896.304	16042.38
896.543	16031.38
896.782	16032.38
897.021	15921.38
897.26	15896.38
897.499	15967.38
897.738	15871.38
897.977	15721.38
898.216	15565.38
898.454	15514.38
898.693	15354.38
898.932	15344.38
899.17	15194.38
899.409	15301.38
899.647	15185.38
899.886	15079.38
900.124	15111.38
900.363	15087.38
900.601	15162.38
900.839	15140.38
901.078	15150.38
901.316	15165.38
901.554	15267.38
901.792	15260.38
902.03	15265.38
902.268	15287.38
902.506	15212.38
902.744	15100.38
902.982	15035.38
903.22	14743.38
903.458	14576.38
903.695	14369.38
903.933	14247.38
904.171	13948.38
904.409	13766.38
904.646	13690.38
904.884	13355.38
905.121	13326.38
905.359	13131.38
905.596	13026.38
905.833	12866.38
906.071	12771.38
906.308	12797.38
906.545	12677.38
906.783	12673.38
907.02	12636.38
907.257	12594.38
907.494	12560.38
907.731	12432.38
907.968	12465.38
908.205	12318.38
908.442	12277.38
908.679	12194.38
908.915	12073.38
909.152	12050.38
909.389	11818.38
909.626	11798.38
909.862	11602.38
910.099	11578.38
910.335	11668.38
910.572	11533.38
910.808	11521.38
911.045	11485.38
911.281	11357.38
911.518	11426.38
911.754	11270.38
911.99	11203.38
912.226	11147.38
912.463	10993.38
912.699	10953.38
912.935	10966.38
913.171	10835.38
913.407	10702.38
913.643	10700.38
913.879	10552.38
914.114	10514.38
914.35	10369.38
914.586	10263.38
914.822	10166.38
915.057	10188.38
915.293	10020.38
915.529	9895.38
915.764	10034.38
916	9985.38
916.235	9916.38
916.471	9911.38
916.706	9803.38
916.941	9823.38
917.177	9727.38
917.412	9832.38
917.647	9832.38
917.882	9648.38
918.117	9731.38
918.352	9662.38
918.588	9611.38
918.823	9501.38
919.057	9419.38
919.292	9289.38
919.527	9283.38
919.762	9196.38
919.997	9133.38
920.232	8980.38
920.466	8950.38
920.701	8900.38
920.935	8736.38
921.17	8743.38
921.405	8656.38
921.639	8645.38
921.873	8594.38
922.108	8588.38
922.342	8664.38
922.576	8501.38
922.811	8377.38
923.045	8516.38
923.279	8431.38
923.513	8329.38
923.747	8339.38
923.981	8294.38
924.215	8157.38
924.449	8128.38
924.683	8051.38
924.917	8076.38
925.151	8028.38
925.385	7985.38
925.618	7945.38
925.852	7964.38
926.086	7839.38
926.319	7907.38
926.553	7878.38
926.786	7901.38
927.02	7837.38
927.253	7922.38
927.486	7890.38
927.72	7723.38
927.953	7783.38
928.186	7743.38
928.42	7778.38
928.653	7657.38
928.886	7576.38
929.119	7617.38
929.352	7570.38
929.585	7565.38
929.818	7481.38
930.051	7425.38
930.284	7350.38
930.516	7268.38
930.749	7233.38
930.982	7243.38
931.215	7257.38
931.447	7037.38
931.68	7055.38
931.912	7066.38
932.145	7051.38
932.377	7053.38
932.61	7165.38
932.842	6939.38
933.074	7046.38
933.307	6936.38
933.539	7048.38
933.771	6992.38
934.003	6903.38
934.236	7066.38
934.468	7079.38
934.7	6903.38
934.932	7015.38
935.164	6864.38
935.395	6844.38
935.627	6865.38
935.859	6777.38
936.091	6793.38
936.323	6805.38
936.554	6796.38
936.786	6759.38
937.017	6596.38
937.249	6711.38
937.481	6592.38
937.712	6694.38
937.943	6619.38
938.175	6592.38
938.406	6549.38
938.637	6647.38
938.869	6528.38
939.1	6578.38
939.331	6549.38
939.562	6508.38
939.793	6436.38
940.024	6464.38
940.255	6425.38
940.486	6352.38
940.717	6318.38
940.948	6304.38
941.179	6238.38
941.409	6194.38
941.64	6247.38
941.871	6254.38
942.102	6207.38
942.332	6262.38
942.563	6282.38
942.793	6267.38
943.024	6132.38
943.254	6239.38
943.484	6219.38
943.715	6222.38
943.945	6220.38
944.175	6138.38
944.405	6090.38
944.636	6090.38
944.866	6185.38
945.096	6151.38
945.326	6059.38
945.556	6162.38
945.786	6070.38
946.016	6038.38
946.245	5915.38
946.475	5904.38
946.705	5914.38
946.935	5824.38
947.164	5800.38
947.394	5793.38
947.624	5739.38
947.853	5777.38
948.083	5668.38
948.312	5698.38
948.542	5617.38
948.771	5588.38
949	5588.38
949.23	5566.38
949.459	5623.38
949.688	5626.38
949.917	5594.38
950.146	5572.38
950.375	5594.38
950.604	5532.38
950.833	5562.38
951.062	5524.38
951.291	5487.38
951.52	5452.38
951.749	5431.38
951.978	5411.38
952.206	5400.38
952.435	5403.38
952.664	5420.38
952.892	5400.38
953.121	5338.38
953.349	5352.38
953.578	5312.38
953.806	5289.38
954.035	5205.38
954.263	5202.38
954.491	5151.38
954.719	5173.38
954.948	5096.38
955.176	5075.38
955.404	5035.38
955.632	5124.38
955.86	5054.38
956.088	5060.38
956.316	5033.38
956.544	5012.38
956.772	4925.38
956.999	4913.38
957.227	4994.38
957.455	4825.38
957.683	4928.38
957.91	4803.38
958.138	4752.38
958.365	4782.38
958.593	4747.38
958.82	4661.38
959.048	4727.38
959.275	4699.38
959.502	4649.38
959.73	4604.38
959.957	4701.38
960.184	4630.38
960.411	4616.38
960.638	4645.38
960.865	4608.38
961.092	4662.38
961.319	4501.38
961.546	4645.38
961.773	4621.38
962	4588.38
962.227	4606.38
962.454	4551.38
962.68	4520.38
962.907	4536.38
963.134	4454.38
963.36	4425.38
963.587	4432.38
963.813	4366.38
964.04	4405.38
964.266	4295.38
964.493	4380.38
964.719	4328.38
964.945	4339.38
965.171	4173.38
965.398	4201.38
965.624	4256.38
965.85	4133.38
966.076	4177.38
966.302	4164.38
966.528	4064.38
966.754	4139.38
966.98	4102.38
967.206	4121.38
967.431	3998.38
967.657	4090.38
967.883	4063.38
968.109	4079.38
968.334	3962.38
968.56	3944.38
968.785	3991.38
969.011	3935.38
969.236	3978.38
969.462	3931.38
969.687	3929.38
969.912	3948.38
970.138	3963.38
970.363	3883.38
970.588	3897.38
970.813	3855.38
971.038	3826.38
971.263	3845.38
971.488	3830.38
971.713	3864.38
971.938	3798.38
972.163	3733.38
972.388	3695.38
972.613	3720.38
972.838	3712.38
973.062	3666.38
973.287	3693.38
973.512	3555.38
973.736	3619.38
973.961	3617.38
974.185	3582.38
974.41	3594.38
974.634	3476.38
974.858	3461.38
975.083	3517.38
975.307	3514.38
975.531	3475.38
975.755	3358.38
975.98	3373.38
976.204	3321.38
976.428	3329.38
976.652	3295.38
976.876	3289.38
977.1	3330.38
977.324	3266.38
977.547	3315.38
977.771	3300.38
977.995	3258.38
978.219	3204.38
978.442	3327.38
978.666	3251.38
978.89	3208.38
979.113	3220.38
979.337	3215.38
979.56	3188.38
979.783	3268.38
980.007	3130.38
980.23	3196.38
980.453	3121.38
980.677	3161.38
980.9	3109.38
981.123	3047.38
981.346	3052.38
981.569	3044.38
981.792	3123.38
982.015	3055.38
982.238	3025.38
982.461	3030.38
982.684	2958.38
982.907	2941.38
983.129	2950.38
983.352	2955.38
983.575	2934.38
983.797	2933.38
984.02	2846.38
984.242	2844.38
984.465	2868.38
984.687	2863.38
984.91	2919.38
985.132	2850.38
985.354	2868.38
985.577	2812.38
985.799	2795.38
986.021	2721.38
986.243	2780.38
986.465	2737.38
986.687	2755.38
986.909	2786.38
987.131	2760.38
987.353	2701.38
987.575	2739.38
987.797	2666.38
988.019	2635.38
988.241	2667.38
988.462	2651.38
988.684	2706.38
988.906	2682.38
989.127	2762.38
989.349	2611.38
989.57	2633.38
989.792	2664.38
990.013	2662.38
990.234	2651.38
990.456	2662.38
990.677	2627.38
990.898	2592.38
991.119	2576.38
991.341	2644.38
991.562	2511.38
991.783	2599.38
992.004	2497.38
992.225	2463.38
992.446	2528.38
992.667	2436.38
992.887	2545.38
993.108	2344.38
993.329	2495.38
993.55	2437.38
993.77	2357.38
993.991	2384.38
994.212	2409.38
994.432	2388.38
994.653	2377.38
994.873	2372.38
995.093	2248.38
995.314	2314.38
995.534	2378.38
995.754	2382.38
995.975	2360.38
996.195	2272.38
996.415	2312.38
996.635	2263.38
996.855	2306.38
997.075	2274.38
997.295	2249.38
997.515	2259.38
997.735	2295.38
997.955	2265.38
998.174	2243.38
998.394	2233.38
998.614	2263.38
998.834	2203.38
999.053	2276.38
999.273	2259.38
999.492	2286.38
999.712	2232.38
999.931	2154.38
1000.151	2209.38
1000.37	2162.38
1000.589	2228.38
1000.809	2128.38
1001.028	2241.38
1001.247	2172.38
1001.466	2079.38
1001.685	2228.38
1001.904	2111.38
1002.123	2110.38
1002.342	2121.38
1002.561	2076.38
1002.78	2063.38
1002.999	2118.38
1003.218	2088.38
1003.436	2051.38
1003.655	2093.38
1003.874	2016.38
1004.092	2041.38
1004.311	2090.38
1004.53	2019.38
1004.748	2086.38
1004.966	1988.38
1005.185	2072.38
1005.403	2028.38
1005.622	2016.38
1005.84	2102.38
1006.058	2026.38
1006.276	2027.38
1006.494	2486.38
1006.712	2003.38
1006.931	2068.38
1007.149	1991.38
1007.367	1957.38
1007.584	2042.38
1007.802	2072.38
1008.02	1992.38
1008.238	2084.38
1008.456	2098.38
1008.673	1977.38
1008.891	2091.38
1009.109	2047.38
1009.326	2076.38
1009.544	2158.38
1009.761	2122.38
1009.979	2235.38
1010.196	2249.38
1010.413	2360.38
1010.631	2408.38
1010.848	2487.38
1011.065	2487.38
1011.282	2419.38
1011.5	2393.38
1011.717	2448.38
1011.934	2398.38
1012.151	2467.38
1012.368	2426.38
1012.585	2348.38
1012.801	2387.38
1013.018	2366.38
1013.235	2340.38
1013.452	2365.38
1013.669	2403.38
1013.885	2347.38
1014.102	2441.38
1014.318	2384.38
1014.535	2335.38
1014.751	2366.38
1014.968	2345.38
1015.184	2374.38
1015.401	2298.38
1015.617	2308.38
1015.833	2236.38
1016.049	2254.38
1016.266	2217.38
1016.482	2224.38
1016.698	2139.38
1016.914	2215.38
1017.13	2103.38
1017.346	2117.38
1017.562	2142.38
1017.778	2080.38
1017.993	2061.38
1018.209	2092.38
1018.425	2093.38
1018.641	2057.38
1018.856	2010.38
1019.072	2065.38
1019.288	2109.38
1019.503	2043.38
1019.719	1976.38
1019.934	1984.38
1020.149	2038.38
1020.365	1979.38
1020.58	1942.38
1020.795	1959.38
1021.011	1868.38
1021.226	1817.38
1021.441	1845.38
1021.656	1752.38
1021.871	1688.38
1022.086	1694.38
1022.301	1645.38
1022.516	1654.38
1022.731	1658.38
1022.946	1607.38
1023.16	1562.38
1023.375	1514.38
1023.59	1481.38
1023.804	1443.38
1024.019	1563.38
1024.234	1412.38
1024.448	1440.38
1024.663	1355.38
1024.877	1346.38
1025.092	1381.38
1025.306	1374.38
1025.52	1245.38
1025.734	1338.38
1025.949	1232.38
1026.163	1216.38
1026.377	1118.38
1026.591	1175.38
1026.805	1105.38
1027.019	1100.38
1027.233	1038.38
1027.447	1012.38
1027.661	1083.38
1027.875	1045.38
1028.088	1032.38
1028.302	953.38
1028.516	935.38
1028.73	927.38
1028.943	904.38
1029.157	835.38
1029.37	803.38
1029.584	-2.62
1029.797	-4.62
1030.011	-2.62
1030.224	-1.62
