Data from QEP037381__332__16-25-09-913.txt Node

Date: Fri Dec 16 16:25:09 EST 2022
User: dcclab
Spectrometer: QEP03738
Trigger mode: 4
Integration Time (sec): 1.000000E1
Scans to average: 1
Electric dark correction enabled: true
Nonlinearity correction enabled: false
Boxcar width: 0
XAxis mode: Wavelengths
Number of Pixels in Spectrum: 1044
>>>>>Begin Spectral Data<<<<<
784.041	13
784.3	1
784.558	-2
784.817	-5
785.075	115293
785.334	19620
785.592	9148
785.851	6297
786.109	4705
786.368	3660
786.626	2954
786.884	2465
787.143	2031
787.401	1713
787.659	1531
787.917	1319
788.175	1184
788.433	1053
788.691	950
788.949	880
789.207	816
789.465	712
789.723	682
789.98	643
790.238	659
790.496	637
790.753	610
791.011	632
791.268	567
791.526	572
791.783	559
792.041	558
792.298	465
792.556	526
792.813	501
793.07	498
793.327	466
793.584	559
793.841	458
794.099	488
794.356	552
794.613	460
794.869	486
795.126	444
795.383	435
795.64	457
795.897	406
796.153	460
796.41	442
796.667	434
796.923	448
797.18	445
797.436	469
797.693	420
797.949	485
798.206	534
798.462	439
798.718	484
798.974	464
799.231	491
799.487	502
799.743	484
799.999	512
800.255	535
800.511	512
800.767	564
801.023	559
801.279	579
801.534	618
801.79	676
802.046	684
802.302	867
802.557	975
802.813	1223
803.068	1491
803.324	2060
803.579	2879
803.835	3963
804.09	5390
804.345	7061
804.601	8875
804.856	10680
805.111	12368
805.366	13688
805.621	14640
805.876	15284
806.131	15732
806.386	16049
806.641	16294
806.896	16716
807.151	16958
807.406	17136
807.661	17480
807.915	17813
808.17	17995
808.425	18240
808.679	18304
808.934	18681
809.188	18731
809.443	18894
809.697	19190
809.951	19338
810.206	19430
810.46	19664
810.714	19839
810.968	20094
811.223	20112
811.477	20330
811.731	20527
811.985	20549
812.239	20626
812.493	20891
812.747	20925
813	20768
813.254	21014
813.508	21125
813.762	21276
814.015	21301
814.269	21490
814.522	21601
814.776	21811
815.03	22159
815.283	22412
815.536	22802
815.79	23179
816.043	23574
816.296	23874
816.55	24138
816.803	24259
817.056	24594
817.309	24765
817.562	24995
817.815	25343
818.068	25452
818.321	25754
818.574	26070
818.827	26420
819.079	26560
819.332	27265
819.585	27387
819.838	27842
820.09	27988
820.343	28165
820.595	28236
820.848	28488
821.1	28664
821.353	28581
821.605	28592
821.857	28515
822.11	28356
822.362	28340
822.614	28258
822.866	28446
823.118	28282
823.37	28419
823.622	28513
823.874	28450
824.126	28720
824.378	28592
824.63	28782
824.882	28783
825.134	28782
825.385	28744
825.637	28637
825.888	28597
826.14	28669
826.392	28357
826.643	28358
826.895	28122
827.146	27963
827.397	28066
827.649	27952
827.9	27799
828.151	27992
828.402	28055
828.653	28158
828.905	28204
829.156	28312
829.407	28389
829.658	28405
829.909	28360
830.159	28412
830.41	28221
830.661	27999
830.912	27758
831.162	27711
831.413	27864
831.664	27753
831.914	27569
832.165	27505
832.415	27577
832.666	27610
832.916	27703
833.167	27587
833.417	27616
833.667	27495
833.917	27439
834.168	27349
834.418	27288
834.668	27182
834.918	27078
835.168	26903
835.418	26720
835.668	26617
835.918	26668
836.167	26656
836.417	26433
836.667	26619
836.917	26470
837.166	26409
837.416	26525
837.666	26369
837.915	26364
838.165	26405
838.414	26187
838.663	26256
838.913	26179
839.162	26226
839.411	26122
839.661	26079
839.91	25944
840.159	25902
840.408	25825
840.657	25860
840.906	25892
841.155	25987
841.404	25924
841.653	25832
841.902	25917
842.15	26039
842.399	25923
842.648	25843
842.897	25748
843.145	25645
843.394	25647
843.642	25351
843.891	25289
844.139	25097
844.388	24867
844.636	24893
844.884	24870
845.133	24791
845.381	24780
845.629	24923
845.877	24626
846.125	24667
846.373	24723
846.621	24498
846.869	24390
847.117	24325
847.365	24124
847.613	24024
847.861	24054
848.108	24074
848.356	23858
848.604	23766
848.851	23898
849.099	23835
849.346	23876
849.594	24001
849.841	24071
850.089	24164
850.336	24155
850.583	24160
850.831	24052
851.078	23886
851.325	23886
851.572	23963
851.819	23782
852.066	23161
852.313	23020
852.56	22695
852.807	22676
853.054	22589
853.301	22651
853.548	22662
853.794	22796
854.041	22726
854.288	22876
854.534	22991
854.781	22977
855.028	23098
855.274	22852
855.52	22845
855.767	22733
856.013	22792
856.26	23013
856.506	22577
856.752	22557
856.998	22459
857.244	22527
857.49	22664
857.736	22672
857.982	22719
858.228	22557
858.474	22351
858.72	22264
858.966	22034
859.212	21977
859.458	21543
859.703	21268
859.949	21145
860.195	21096
860.44	20987
860.686	20874
860.931	20934
861.177	20676
861.422	20596
861.667	20495
861.913	20573
862.158	20597
862.403	20642
862.648	20719
862.893	20565
863.138	20586
863.384	20522
863.629	20443
863.873	20436
864.118	20372
864.363	20373
864.608	20246
864.853	20258
865.098	20051
865.342	19877
865.587	19860
865.832	19934
866.076	19755
866.321	19698
866.565	19734
866.81	19529
867.054	19499
867.298	19441
867.543	19309
867.787	19427
868.031	19390
868.275	19256
868.519	19272
868.764	19166
869.008	19175
869.252	19211
869.496	19169
869.739	19111
869.983	19093
870.227	19079
870.471	19045
870.715	19216
870.958	19212
871.202	19142
871.446	19217
871.689	19235
871.933	19250
872.176	19154
872.42	19028
872.663	19124
872.906	19118
873.15	18955
873.393	19092
873.636	19054
873.879	18853
874.122	18568
874.366	18236
874.609	18165
874.852	18017
875.095	17859
875.337	17817
875.58	17767
875.823	17684
876.066	17540
876.309	17461
876.551	17372
876.794	17320
877.037	17338
877.279	17164
877.522	17239
877.764	17165
878.007	17146
878.249	17079
878.491	17119
878.734	17049
878.976	16969
879.218	16885
879.46	16769
879.702	16611
879.945	16574
880.187	16341
880.429	16234
880.671	16167
880.912	16015
881.154	16067
881.396	15978
881.638	16014
881.88	16074
882.121	15955
882.363	15948
882.605	16001
882.846	15909
883.088	15905
883.329	15864
883.571	15911
883.812	16105
884.053	16419
884.295	16819
884.536	16948
884.777	16905
885.018	16704
885.259	16584
885.5	16509
885.742	16673
885.982	16391
886.223	16177
886.464	16035
886.705	15876
886.946	15777
887.187	15458
887.428	15360
887.668	14984
887.909	14770
888.15	14589
888.39	14616
888.631	14449
888.871	14284
889.111	14211
889.352	14125
889.592	13963
889.833	13830
890.073	13817
890.313	13795
890.553	13518
890.793	13541
891.033	13472
891.273	13355
891.513	13362
891.753	13360
891.993	13252
892.233	13289
892.473	13488
892.713	13456
892.952	13341
893.192	13322
893.432	13346
893.671	13333
893.911	13220
894.15	13160
894.39	12936
894.629	12985
894.869	12934
895.108	12931
895.347	12781
895.587	12809
895.826	12624
896.065	12613
896.304	12758
896.543	12714
896.782	12575
897.021	12574
897.26	12499
897.499	12566
897.738	12521
897.977	12440
898.216	12355
898.454	12176
898.693	12162
898.932	12201
899.17	11976
899.409	12042
899.647	12016
899.886	11944
900.124	11965
900.363	11984
900.601	12053
900.839	12004
901.078	12034
901.316	12076
901.554	12215
901.792	12206
902.03	12206
902.268	12287
902.506	12251
902.744	12074
902.982	12055
903.22	11830
903.458	11656
903.695	11550
903.933	11310
904.171	11095
904.409	10969
904.646	10803
904.884	10644
905.121	10564
905.359	10397
905.596	10312
905.833	10148
906.071	10159
906.308	10144
906.545	10043
906.783	9941
907.02	9955
907.257	9897
907.494	9933
907.731	9878
907.968	9818
908.205	9734
908.442	9788
908.679	9714
908.915	9547
909.152	9529
909.389	9423
909.626	9393
909.862	9291
910.099	9215
910.335	9259
910.572	9131
910.808	9093
911.045	9092
911.281	9041
911.518	9088
911.754	8980
911.99	8896
912.226	8857
912.463	8779
912.699	8770
912.935	8672
913.171	8599
913.407	8523
913.643	8508
913.879	8429
914.114	8255
914.35	8211
914.586	8172
914.822	8049
915.057	8038
915.293	7934
915.529	7849
915.764	8001
916	7965
916.235	7916
916.471	7903
916.706	7777
916.941	7840
917.177	7760
917.412	7811
917.647	7738
917.882	7668
918.117	7796
918.352	7736
918.588	7764
918.823	7575
919.057	7484
919.292	7392
919.527	7438
919.762	7336
919.997	7281
920.232	7134
920.466	7173
920.701	6993
920.935	7013
921.17	7001
921.405	6890
921.639	6917
921.873	6874
922.108	6853
922.342	6811
922.576	6783
922.811	6725
923.045	6764
923.279	6761
923.513	6609
923.747	6709
923.981	6590
924.215	6536
924.449	6531
924.683	6465
924.917	6415
925.151	6395
925.385	6412
925.618	6317
925.852	6365
926.086	6283
926.319	6349
926.553	6294
926.786	6308
927.02	6231
927.253	6312
927.486	6313
927.72	6204
927.953	6269
928.186	6216
928.42	6212
928.653	6083
928.886	6065
929.119	6121
929.352	6083
929.585	6021
929.818	5927
930.051	5964
930.284	5937
930.516	5803
930.749	5806
930.982	5830
931.215	5791
931.447	5643
931.68	5656
931.912	5632
932.145	5623
932.377	5693
932.61	5765
932.842	5564
933.074	5602
933.307	5562
933.539	5685
933.771	5643
934.003	5581
934.236	5628
934.468	5639
934.7	5575
934.932	5560
935.164	5519
935.395	5554
935.627	5530
935.859	5484
936.091	5454
936.323	5539
936.554	5470
936.786	5420
937.017	5333
937.249	5333
937.481	5324
937.712	5358
937.943	5322
938.175	5258
938.406	5271
938.637	5329
938.869	5230
939.1	5281
939.331	5243
939.562	5239
939.793	5238
940.024	5216
940.255	5206
940.486	5102
940.717	5108
940.948	5075
941.179	5036
941.409	5051
941.64	5044
941.871	5050
942.102	5022
942.332	5042
942.563	5051
942.793	5062
943.024	4922
943.254	5030
943.484	5058
943.715	5022
943.945	5004
944.175	4916
944.405	4906
944.636	4913
944.866	4944
945.096	4969
945.326	4827
945.556	4916
945.786	4893
946.016	4780
946.245	4764
946.475	4741
946.705	4688
946.935	4720
947.164	4723
947.394	4656
947.624	4650
947.853	4702
948.083	4610
948.312	4576
948.542	4558
948.771	4510
949	4508
949.23	4502
949.459	4506
949.688	4544
949.917	4486
950.146	4456
950.375	4611
950.604	4422
950.833	4527
951.062	4540
951.291	4394
951.52	4398
951.749	4460
951.978	4351
952.206	4337
952.435	4335
952.664	4363
952.892	4338
953.121	4328
953.349	4357
953.578	4333
953.806	4258
954.035	4190
954.263	4195
954.491	4172
954.719	4213
954.948	4134
955.176	4130
955.404	4028
955.632	4113
955.86	4076
956.088	4049
956.316	4084
956.544	4063
956.772	4020
956.999	3960
957.227	4031
957.455	3931
957.683	3966
957.91	3888
958.138	3842
958.365	3861
958.593	3805
958.82	3798
959.048	3853
959.275	3802
959.502	3767
959.73	3723
959.957	3771
960.184	3795
960.411	3726
960.638	3797
960.865	3728
961.092	3769
961.319	3663
961.546	3726
961.773	3767
962	3739
962.227	3739
962.454	3627
962.68	3687
962.907	3714
963.134	3615
963.36	3626
963.587	3599
963.813	3544
964.04	3587
964.266	3531
964.493	3598
964.719	3528
964.945	3505
965.171	3375
965.398	3442
965.624	3487
965.85	3345
966.076	3393
966.302	3419
966.528	3345
966.754	3387
966.98	3398
967.206	3337
967.431	3273
967.657	3305
967.883	3378
968.109	3306
968.334	3267
968.56	3235
968.785	3261
969.011	3233
969.236	3260
969.462	3182
969.687	3175
969.912	3238
970.138	3231
970.363	3124
970.588	3176
970.813	3081
971.038	3122
971.263	3174
971.488	3152
971.713	3163
971.938	3129
972.163	3040
972.388	3072
972.613	2974
972.838	3072
973.062	3013
973.287	3013
973.512	2950
973.736	2935
973.961	2904
974.185	2919
974.41	2940
974.634	2859
974.858	2853
975.083	2904
975.307	2897
975.531	2817
975.755	2814
975.98	2778
976.204	2701
976.428	2710
976.652	2735
976.876	2678
977.1	2698
977.324	2689
977.547	2787
977.771	2738
977.995	2719
978.219	2612
978.442	2730
978.666	2682
978.89	2684
979.113	2643
979.337	2617
979.56	2631
979.783	2679
980.007	2566
980.23	2618
980.453	2534
980.677	2594
980.9	2584
981.123	2509
981.346	2588
981.569	2539
981.792	2568
982.015	2501
982.238	2472
982.461	2493
982.684	2457
982.907	2434
983.129	2417
983.352	2472
983.575	2442
983.797	2425
984.02	2355
984.242	2401
984.465	2364
984.687	2395
984.91	2412
985.132	2353
985.354	2364
985.577	2365
985.799	2364
986.021	2250
986.243	2309
986.465	2268
986.687	2362
986.909	2368
987.131	2291
987.353	2264
987.575	2251
987.797	2255
988.019	2174
988.241	2237
988.462	2191
988.684	2242
988.906	2275
989.127	2275
989.349	2199
989.57	2204
989.792	2232
990.013	2204
990.234	2237
990.456	2251
990.677	2230
990.898	2148
991.119	2164
991.341	2198
991.562	2132
991.783	2166
992.004	2088
992.225	2076
992.446	2125
992.667	2021
992.887	2084
993.108	2008
993.329	2110
993.55	2051
993.77	2000
993.991	1997
994.212	2014
994.432	1980
994.653	2016
994.873	1999
995.093	1897
995.314	1939
995.534	2012
995.754	1993
995.975	2026
996.195	1925
996.415	1966
996.635	1939
996.855	1964
997.075	1938
997.295	1924
997.515	1868
997.735	1988
997.955	1916
998.174	1912
998.394	1898
998.614	1956
998.834	1868
999.053	1967
999.273	1902
999.492	1950
999.712	1868
999.931	1841
1000.151	1881
1000.37	1875
1000.589	1924
1000.809	1843
1001.028	1943
1001.247	1852
1001.466	1732
1001.685	1896
1001.904	1854
1002.123	1819
1002.342	1821
1002.561	1774
1002.78	1812
1002.999	1858
1003.218	1789
1003.436	1743
1003.655	1822
1003.874	1749
1004.092	1773
1004.311	1780
1004.53	1765
1004.748	1844
1004.966	1748
1005.185	1848
1005.403	1783
1005.622	1772
1005.84	1844
1006.058	1743
1006.276	1765
1006.494	2244
1006.712	1750
1006.931	1826
1007.149	1725
1007.367	1721
1007.584	1753
1007.802	1814
1008.02	1749
1008.238	1868
1008.456	1834
1008.673	1704
1008.891	1838
1009.109	1800
1009.326	1842
1009.544	1961
1009.761	1882
1009.979	1997
1010.196	2028
1010.413	2160
1010.631	2198
1010.848	2268
1011.065	2320
1011.282	2216
1011.5	2151
1011.717	2261
1011.934	2178
1012.151	2240
1012.368	2227
1012.585	2123
1012.801	2203
1013.018	2182
1013.235	2139
1013.452	2152
1013.669	2179
1013.885	2166
1014.102	2190
1014.318	2176
1014.535	2142
1014.751	2195
1014.968	2144
1015.184	2177
1015.401	2105
1015.617	2091
1015.833	2044
1016.049	2045
1016.266	2027
1016.482	2039
1016.698	1914
1016.914	1968
1017.13	1932
1017.346	1928
1017.562	1969
1017.778	1892
1017.993	1874
1018.209	1918
1018.425	1904
1018.641	1854
1018.856	1829
1019.072	1887
1019.288	1915
1019.503	1877
1019.719	1785
1019.934	1771
1020.149	1870
1020.365	1826
1020.58	1735
1020.795	1757
1021.011	1688
1021.226	1650
1021.441	1652
1021.656	1593
1021.871	1515
1022.086	1503
1022.301	1502
1022.516	1470
1022.731	1515
1022.946	1445
1023.16	1425
1023.375	1359
1023.59	1370
1023.804	1294
1024.019	1404
1024.234	1260
1024.448	1297
1024.663	1216
1024.877	1210
1025.092	1229
1025.306	1221
1025.52	1122
1025.734	1205
1025.949	1132
1026.163	1070
1026.377	1020
1026.591	1050
1026.805	1013
1027.019	990
1027.233	948
1027.447	888
1027.661	1005
1027.875	917
1028.088	917
1028.302	853
1028.516	814
1028.73	831
1028.943	802
1029.157	757
1029.37	709
1029.584	1
1029.797	-5
1030.011	0
1030.224	-3
