Data from QEP037381__253__16-11-59-902.txt Node

Date: Fri Dec 16 16:11:59 EST 2022
User: dcclab
Spectrometer: QEP03738
Trigger mode: 4
Integration Time (sec): 1.000000E1
Scans to average: 1
Electric dark correction enabled: true
Nonlinearity correction enabled: false
Boxcar width: 0
XAxis mode: Wavelengths
Number of Pixels in Spectrum: 1044
>>>>>Begin Spectral Data<<<<<
784.041	9.75
784.3	-1.25
784.558	-0.25
784.817	-5.25
785.075	109136.75
785.334	19039.75
785.592	8982.75
785.851	6183.75
786.109	4678.75
786.368	3614.75
786.626	2938.75
786.884	2409.75
787.143	2049.75
787.401	1724.75
787.659	1515.75
787.917	1305.75
788.175	1174.75
788.433	1056.75
788.691	931.75
788.949	865.75
789.207	827.75
789.465	738.75
789.723	694.75
789.98	664.75
790.238	676.75
790.496	663.75
790.753	618.75
791.011	676.75
791.268	603.75
791.526	586.75
791.783	608.75
792.041	579.75
792.298	514.75
792.556	565.75
792.813	536.75
793.07	529.75
793.327	505.75
793.584	593.75
793.841	499.75
794.099	524.75
794.356	586.75
794.613	500.75
794.869	526.75
795.126	495.75
795.383	477.75
795.64	481.75
795.897	460.75
796.153	508.75
796.41	497.75
796.667	478.75
796.923	492.75
797.18	485.75
797.436	531.75
797.693	494.75
797.949	543.75
798.206	586.75
798.462	490.75
798.718	555.75
798.974	546.75
799.231	583.75
799.487	589.75
799.743	600.75
799.999	623.75
800.255	644.75
800.511	631.75
800.767	701.75
801.023	707.75
801.279	756.75
801.534	822.75
801.79	932.75
802.046	1000.75
802.302	1234.75
802.557	1482.75
802.813	1898.75
803.068	2511.75
803.324	3518.75
803.579	4926.75
803.835	6929.75
804.09	9569.75
804.345	12603.75
804.601	15965.75
804.856	19446.75
805.111	22456.75
805.366	24935.75
805.621	26731.75
805.876	28034.75
806.131	28937.75
806.386	29487.75
806.641	30053.75
806.896	30568.75
807.151	31199.75
807.406	31762.75
807.661	32303.75
807.915	32818.75
808.17	33342.75
808.425	33693.75
808.679	34046.75
808.934	34513.75
809.188	34684.75
809.443	35118.75
809.697	35569.75
809.951	35899.75
810.206	36286.75
810.46	36482.75
810.714	36883.75
810.968	37236.75
811.223	37453.75
811.477	37845.75
811.731	38169.75
811.985	38216.75
812.239	38564.75
812.493	38601.75
812.747	39002.75
813	38952.75
813.254	39169.75
813.508	39345.75
813.762	39572.75
814.015	39714.75
814.269	40020.75
814.522	40461.75
814.776	40749.75
815.03	41549.75
815.283	42057.75
815.536	42802.75
815.79	43340.75
816.043	44053.75
816.296	44503.75
816.55	45193.75
816.803	45743.75
817.056	46259.75
817.309	46708.75
817.562	47219.75
817.815	47482.75
818.068	47950.75
818.321	48444.75
818.574	48993.75
818.827	49653.75
819.079	50187.75
819.332	51018.75
819.585	51817.75
819.838	52292.75
820.09	52765.75
820.343	53162.75
820.595	53398.75
820.848	53684.75
821.1	54083.75
821.353	54034.75
821.605	53904.75
821.857	54009.75
822.11	53688.75
822.362	53513.75
822.614	53394.75
822.866	53507.75
823.118	53479.75
823.37	53697.75
823.622	53948.75
823.874	53928.75
824.126	54044.75
824.378	54395.75
824.63	54293.75
824.882	54488.75
825.134	54526.75
825.385	54365.75
825.637	54401.75
825.888	54247.75
826.14	54035.75
826.392	54005.75
826.643	53652.75
826.895	53405.75
827.146	53247.75
827.397	53140.75
827.649	53363.75
827.9	53285.75
828.151	53168.75
828.402	53151.75
828.653	53435.75
828.905	53718.75
829.156	53813.75
829.407	53727.75
829.658	53594.75
829.909	53730.75
830.159	53612.75
830.41	53405.75
830.661	53194.75
830.912	52563.75
831.162	52621.75
831.413	52476.75
831.664	52419.75
831.914	52283.75
832.165	52301.75
832.415	52268.75
832.666	52326.75
832.916	52351.75
833.167	52226.75
833.417	52212.75
833.667	52221.75
833.917	52048.75
834.168	51698.75
834.418	51677.75
834.668	51440.75
834.918	51313.75
835.168	51060.75
835.418	50690.75
835.668	50714.75
835.918	50509.75
836.167	50562.75
836.417	50228.75
836.667	50221.75
836.917	50247.75
837.166	50100.75
837.416	50227.75
837.666	50144.75
837.915	50013.75
838.165	49945.75
838.414	49866.75
838.663	49628.75
838.913	49607.75
839.162	49380.75
839.411	49399.75
839.661	49124.75
839.91	48958.75
840.159	48845.75
840.408	48802.75
840.657	48780.75
840.906	48883.75
841.155	48708.75
841.404	48642.75
841.653	48938.75
841.902	48878.75
842.15	49112.75
842.399	48970.75
842.648	48988.75
842.897	48692.75
843.145	48400.75
843.394	48152.75
843.642	47852.75
843.891	47642.75
844.139	47379.75
844.388	47138.75
844.636	47060.75
844.884	46999.75
845.133	46887.75
845.381	46820.75
845.629	46812.75
845.877	46718.75
846.125	46487.75
846.373	46515.75
846.621	46440.75
846.869	46280.75
847.117	45802.75
847.365	45659.75
847.613	45482.75
847.861	45400.75
848.108	45391.75
848.356	45263.75
848.604	45051.75
848.851	44998.75
849.099	45008.75
849.346	45210.75
849.594	45411.75
849.841	45602.75
850.089	45490.75
850.336	45656.75
850.583	45512.75
850.831	45313.75
851.078	44941.75
851.325	45097.75
851.572	44931.75
851.819	44386.75
852.066	43831.75
852.313	43293.75
852.56	43011.75
852.807	42919.75
853.054	42765.75
853.301	42462.75
853.548	42525.75
853.794	42765.75
854.041	42795.75
854.288	43119.75
854.534	43362.75
854.781	43172.75
855.028	43059.75
855.274	43014.75
855.52	42765.75
855.767	42506.75
856.013	42575.75
856.26	42675.75
856.506	42122.75
856.752	42014.75
856.998	42035.75
857.244	42183.75
857.49	42354.75
857.736	42411.75
857.982	42421.75
858.228	42121.75
858.474	41892.75
858.72	41687.75
858.966	41275.75
859.212	40964.75
859.458	40515.75
859.703	40228.75
859.949	39765.75
860.195	39579.75
860.44	39313.75
860.686	39186.75
860.931	38905.75
861.177	38822.75
861.422	38820.75
861.667	38650.75
861.913	38646.75
862.158	38625.75
862.403	38851.75
862.648	38867.75
862.893	38825.75
863.138	38727.75
863.384	38828.75
863.629	38603.75
863.873	38520.75
864.118	38452.75
864.363	38240.75
864.608	38068.75
864.853	37946.75
865.098	37794.75
865.342	37639.75
865.587	37612.75
865.832	37512.75
866.076	37414.75
866.321	37212.75
866.565	37112.75
866.81	36830.75
867.054	36778.75
867.298	36628.75
867.543	36519.75
867.787	36517.75
868.031	36385.75
868.275	36216.75
868.519	36192.75
868.764	36068.75
869.008	36084.75
869.252	35889.75
869.496	35848.75
869.739	35575.75
869.983	35800.75
870.227	35516.75
870.471	35565.75
870.715	35607.75
870.958	35680.75
871.202	35622.75
871.446	35738.75
871.689	35750.75
871.933	35702.75
872.176	35646.75
872.42	35531.75
872.663	35509.75
872.906	35318.75
873.15	35312.75
873.393	34979.75
873.636	35008.75
873.879	34510.75
874.122	34246.75
874.366	33862.75
874.609	33668.75
874.852	33361.75
875.095	33277.75
875.337	33162.75
875.58	32824.75
875.823	32812.75
876.066	32686.75
876.309	32674.75
876.551	32317.75
876.794	32229.75
877.037	32153.75
877.279	32041.75
877.522	32091.75
877.764	32156.75
878.007	32015.75
878.249	32026.75
878.491	31927.75
878.734	31905.75
878.976	31812.75
879.218	31681.75
879.46	31425.75
879.702	31291.75
879.945	30967.75
880.187	30816.75
880.429	30604.75
880.671	30369.75
880.912	30318.75
881.154	30167.75
881.396	30137.75
881.638	30061.75
881.88	30035.75
882.121	29964.75
882.363	29956.75
882.605	29771.75
882.846	29639.75
883.088	29676.75
883.329	29496.75
883.571	29550.75
883.812	29544.75
884.053	29798.75
884.295	30219.75
884.536	30460.75
884.777	30162.75
885.018	29933.75
885.259	29886.75
885.5	29681.75
885.742	29824.75
885.982	29589.75
886.223	29564.75
886.464	29407.75
886.705	29110.75
886.946	28899.75
887.187	28594.75
887.428	28424.75
887.668	28141.75
887.909	27630.75
888.15	27421.75
888.39	27246.75
888.631	27098.75
888.871	26825.75
889.111	26744.75
889.352	26534.75
889.592	26283.75
889.833	26077.75
890.073	26054.75
890.313	25991.75
890.553	25538.75
890.793	25514.75
891.033	25408.75
891.273	25216.75
891.513	25128.75
891.753	25183.75
891.993	24940.75
892.233	24984.75
892.473	25259.75
892.713	25085.75
892.952	25052.75
893.192	25240.75
893.432	24997.75
893.671	25021.75
893.911	24803.75
894.15	24612.75
894.39	24522.75
894.629	24263.75
894.869	24229.75
895.108	24053.75
895.347	24017.75
895.587	23898.75
895.826	23813.75
896.065	23640.75
896.304	23788.75
896.543	23690.75
896.782	23504.75
897.021	23323.75
897.26	23405.75
897.499	23340.75
897.738	23303.75
897.977	23073.75
898.216	22851.75
898.454	22666.75
898.693	22514.75
898.932	22616.75
899.17	22192.75
899.409	22280.75
899.647	22206.75
899.886	22223.75
900.124	22218.75
900.363	22104.75
900.601	22223.75
900.839	22108.75
901.078	22216.75
901.316	22218.75
901.554	22150.75
901.792	22405.75
902.03	22274.75
902.268	22219.75
902.506	22156.75
902.744	22070.75
902.982	21967.75
903.22	21640.75
903.458	21348.75
903.695	21124.75
903.933	20909.75
904.171	20580.75
904.409	20301.75
904.646	19955.75
904.884	19828.75
905.121	19685.75
905.359	19406.75
905.596	19248.75
905.833	18969.75
906.071	19041.75
906.308	18937.75
906.545	18761.75
906.783	18659.75
907.02	18789.75
907.257	18696.75
907.494	18609.75
907.731	18617.75
907.968	18399.75
908.205	18331.75
908.442	18176.75
908.679	18101.75
908.915	17969.75
909.152	17739.75
909.389	17634.75
909.626	17596.75
909.862	17406.75
910.099	17350.75
910.335	17256.75
910.572	17041.75
910.808	17126.75
911.045	17141.75
911.281	16888.75
911.518	16981.75
911.754	16797.75
911.99	16782.75
912.226	16632.75
912.463	16492.75
912.699	16352.75
912.935	16156.75
913.171	16146.75
913.407	15998.75
913.643	15880.75
913.879	15694.75
914.114	15555.75
914.35	15406.75
914.586	15235.75
914.822	15112.75
915.057	15031.75
915.293	14859.75
915.529	14744.75
915.764	14879.75
916	14838.75
916.235	14735.75
916.471	14768.75
916.706	14577.75
916.941	14630.75
917.177	14505.75
917.412	14596.75
917.647	14530.75
917.882	14387.75
918.117	14493.75
918.352	14248.75
918.588	14398.75
918.823	14224.75
919.057	14013.75
919.292	13844.75
919.527	13850.75
919.762	13614.75
919.997	13563.75
920.232	13334.75
920.466	13262.75
920.701	13041.75
920.935	13043.75
921.17	12884.75
921.405	12854.75
921.639	12922.75
921.873	12738.75
922.108	12830.75
922.342	12716.75
922.576	12599.75
922.811	12571.75
923.045	12552.75
923.279	12488.75
923.513	12349.75
923.747	12404.75
923.981	12255.75
924.215	12138.75
924.449	12077.75
924.683	11947.75
924.917	11918.75
925.151	11822.75
925.385	11876.75
925.618	11752.75
925.852	11727.75
926.086	11616.75
926.319	11685.75
926.553	11632.75
926.786	11674.75
927.02	11555.75
927.253	11626.75
927.486	11599.75
927.72	11456.75
927.953	11502.75
928.186	11456.75
928.42	11469.75
928.653	11330.75
928.886	11201.75
929.119	11269.75
929.352	11138.75
929.585	11097.75
929.818	11020.75
930.051	10960.75
930.284	10895.75
930.516	10684.75
930.749	10605.75
930.982	10622.75
931.215	10560.75
931.447	10429.75
931.68	10448.75
931.912	10422.75
932.145	10380.75
932.377	10434.75
932.61	10497.75
932.842	10338.75
933.074	10398.75
933.307	10316.75
933.539	10384.75
933.771	10307.75
934.003	10217.75
934.236	10333.75
934.468	10269.75
934.7	10261.75
934.932	10289.75
935.164	10142.75
935.395	10043.75
935.627	10145.75
935.859	10049.75
936.091	9995.75
936.323	9927.75
936.554	9975.75
936.786	9881.75
937.017	9749.75
937.249	9773.75
937.481	9744.75
937.712	9809.75
937.943	9781.75
938.175	9729.75
938.406	9651.75
938.637	9641.75
938.869	9587.75
939.1	9567.75
939.331	9518.75
939.562	9541.75
939.793	9451.75
940.024	9429.75
940.255	9368.75
940.486	9376.75
940.717	9278.75
940.948	9190.75
941.179	9181.75
941.409	9170.75
941.64	9115.75
941.871	9171.75
942.102	9140.75
942.332	9081.75
942.563	9205.75
942.793	9079.75
943.024	9077.75
943.254	9088.75
943.484	9088.75
943.715	9112.75
943.945	9053.75
944.175	8993.75
944.405	8964.75
944.636	8959.75
944.866	8939.75
945.096	8982.75
945.326	8827.75
945.556	8926.75
945.786	8837.75
946.016	8739.75
946.245	8701.75
946.475	8686.75
946.705	8574.75
946.935	8513.75
947.164	8428.75
947.394	8369.75
947.624	8347.75
947.853	8360.75
948.083	8300.75
948.312	8302.75
948.542	8199.75
948.771	8179.75
949	8190.75
949.23	8147.75
949.459	8196.75
949.688	8160.75
949.917	8116.75
950.146	8103.75
950.375	8127.75
950.604	8045.75
950.833	8082.75
951.062	8077.75
951.291	8004.75
951.52	7928.75
951.749	7925.75
951.978	7893.75
952.206	7832.75
952.435	7831.75
952.664	7859.75
952.892	7847.75
953.121	7782.75
953.349	7734.75
953.578	7679.75
953.806	7614.75
954.035	7580.75
954.263	7559.75
954.491	7470.75
954.719	7497.75
954.948	7486.75
955.176	7375.75
955.404	7297.75
955.632	7351.75
955.86	7355.75
956.088	7263.75
956.316	7293.75
956.544	7216.75
956.772	7178.75
956.999	7005.75
957.227	7129.75
957.455	7091.75
957.683	6961.75
957.91	6907.75
958.138	6868.75
958.365	6854.75
958.593	6825.75
958.82	6800.75
959.048	6788.75
959.275	6789.75
959.502	6718.75
959.73	6653.75
959.957	6701.75
960.184	6707.75
960.411	6619.75
960.638	6683.75
960.865	6672.75
961.092	6644.75
961.319	6547.75
961.546	6615.75
961.773	6647.75
962	6552.75
962.227	6589.75
962.454	6552.75
962.68	6492.75
962.907	6484.75
963.134	6398.75
963.36	6389.75
963.587	6358.75
963.813	6267.75
964.04	6274.75
964.266	6160.75
964.493	6230.75
964.719	6160.75
964.945	6114.75
965.171	6047.75
965.398	6073.75
965.624	6095.75
965.85	5947.75
966.076	5950.75
966.302	5940.75
966.528	5883.75
966.754	5883.75
966.98	5930.75
967.206	5867.75
967.431	5772.75
967.657	5772.75
967.883	5772.75
968.109	5811.75
968.334	5683.75
968.56	5658.75
968.785	5653.75
969.011	5588.75
969.236	5670.75
969.462	5621.75
969.687	5567.75
969.912	5624.75
970.138	5566.75
970.363	5513.75
970.588	5520.75
970.813	5468.75
971.038	5447.75
971.263	5486.75
971.488	5484.75
971.713	5438.75
971.938	5387.75
972.163	5300.75
972.388	5303.75
972.613	5294.75
972.838	5237.75
973.062	5209.75
973.287	5191.75
973.512	5109.75
973.736	5176.75
973.961	5139.75
974.185	5040.75
974.41	5054.75
974.634	4973.75
974.858	4945.75
975.083	4953.75
975.307	4931.75
975.531	4893.75
975.755	4781.75
975.98	4819.75
976.204	4727.75
976.428	4697.75
976.652	4683.75
976.876	4683.75
977.1	4700.75
977.324	4645.75
977.547	4664.75
977.771	4672.75
977.995	4647.75
978.219	4552.75
978.442	4648.75
978.666	4525.75
978.89	4556.75
979.113	4526.75
979.337	4486.75
979.56	4470.75
979.783	4540.75
980.007	4428.75
980.23	4438.75
980.453	4381.75
980.677	4418.75
980.9	4405.75
981.123	4310.75
981.346	4319.75
981.569	4355.75
981.792	4271.75
982.015	4219.75
982.238	4217.75
982.461	4195.75
982.684	4149.75
982.907	4129.75
983.129	4099.75
983.352	4176.75
983.575	4038.75
983.797	4054.75
984.02	4040.75
984.242	3979.75
984.465	3978.75
984.687	4037.75
984.91	3997.75
985.132	3957.75
985.354	3946.75
985.577	3927.75
985.799	3861.75
986.021	3806.75
986.243	3787.75
986.465	3827.75
986.687	3819.75
986.909	3839.75
987.131	3753.75
987.353	3686.75
987.575	3788.75
987.797	3662.75
988.019	3639.75
988.241	3713.75
988.462	3666.75
988.684	3691.75
988.906	3724.75
989.127	3710.75
989.349	3580.75
989.57	3630.75
989.792	3625.75
990.013	3628.75
990.234	3592.75
990.456	3681.75
990.677	3559.75
990.898	3529.75
991.119	3481.75
991.341	3545.75
991.562	3438.75
991.783	3485.75
992.004	3375.75
992.225	3358.75
992.446	3442.75
992.667	3326.75
992.887	3374.75
993.108	3245.75
993.329	3339.75
993.55	3306.75
993.77	3195.75
993.991	3213.75
994.212	3292.75
994.432	3179.75
994.653	3221.75
994.873	3186.75
995.093	3061.75
995.314	3096.75
995.534	3143.75
995.754	3163.75
995.975	3199.75
996.195	3060.75
996.415	3133.75
996.635	3089.75
996.855	3074.75
997.075	3006.75
997.295	2991.75
997.515	3004.75
997.735	3077.75
997.955	3008.75
998.174	3041.75
998.394	2993.75
998.614	3006.75
998.834	2960.75
999.053	3015.75
999.273	3005.75
999.492	2994.75
999.712	2938.75
999.931	2895.75
1000.151	2911.75
1000.37	2890.75
1000.589	2926.75
1000.809	2863.75
1001.028	2922.75
1001.247	2880.75
1001.466	2698.75
1001.685	2874.75
1001.904	2806.75
1002.123	2769.75
1002.342	2738.75
1002.561	2687.75
1002.78	2713.75
1002.999	2736.75
1003.218	2678.75
1003.436	2659.75
1003.655	2701.75
1003.874	2631.75
1004.092	2630.75
1004.311	2662.75
1004.53	2625.75
1004.748	2670.75
1004.966	2585.75
1005.185	2647.75
1005.403	2620.75
1005.622	2609.75
1005.84	2642.75
1006.058	2523.75
1006.276	2564.75
1006.494	3082.75
1006.712	2562.75
1006.931	2602.75
1007.149	2530.75
1007.367	2557.75
1007.584	2550.75
1007.802	2621.75
1008.02	2563.75
1008.238	2636.75
1008.456	2646.75
1008.673	2510.75
1008.891	2621.75
1009.109	2592.75
1009.326	2618.75
1009.544	2721.75
1009.761	2676.75
1009.979	2749.75
1010.196	2776.75
1010.413	2839.75
1010.631	2994.75
1010.848	2997.75
1011.065	3036.75
1011.282	2969.75
1011.5	2908.75
1011.717	3017.75
1011.934	2958.75
1012.151	2960.75
1012.368	2904.75
1012.585	2861.75
1012.801	2922.75
1013.018	2860.75
1013.235	2879.75
1013.452	2826.75
1013.669	2910.75
1013.885	2845.75
1014.102	2882.75
1014.318	2851.75
1014.535	2836.75
1014.751	2856.75
1014.968	2848.75
1015.184	2828.75
1015.401	2772.75
1015.617	2760.75
1015.833	2697.75
1016.049	2665.75
1016.266	2588.75
1016.482	2628.75
1016.698	2568.75
1016.914	2591.75
1017.13	2524.75
1017.346	2532.75
1017.562	2573.75
1017.778	2486.75
1017.993	2479.75
1018.209	2486.75
1018.425	2476.75
1018.641	2459.75
1018.856	2434.75
1019.072	2480.75
1019.288	2516.75
1019.503	2429.75
1019.719	2363.75
1019.934	2341.75
1020.149	2446.75
1020.365	2367.75
1020.58	2296.75
1020.795	2306.75
1021.011	2228.75
1021.226	2181.75
1021.441	2193.75
1021.656	2100.75
1021.871	2009.75
1022.086	2002.75
1022.301	1978.75
1022.516	1962.75
1022.731	2003.75
1022.946	1893.75
1023.16	1898.75
1023.375	1833.75
1023.59	1821.75
1023.804	1768.75
1024.019	1839.75
1024.234	1716.75
1024.448	1712.75
1024.663	1636.75
1024.877	1643.75
1025.092	1643.75
1025.306	1642.75
1025.52	1493.75
1025.734	1595.75
1025.949	1523.75
1026.163	1429.75
1026.377	1389.75
1026.591	1422.75
1026.805	1341.75
1027.019	1327.75
1027.233	1290.75
1027.447	1229.75
1027.661	1321.75
1027.875	1220.75
1028.088	1235.75
1028.302	1147.75
1028.516	1137.75
1028.73	1084.75
1028.943	1094.75
1029.157	1013.75
1029.37	951.75
1029.584	-0.25
1029.797	-2.25
1030.011	-0.25
1030.224	-0.25
