Data from QEP037381__342__16-26-49-915.txt Node

Date: Fri Dec 16 16:26:49 EST 2022
User: dcclab
Spectrometer: QEP03738
Trigger mode: 4
Integration Time (sec): 1.000000E1
Scans to average: 1
Electric dark correction enabled: true
Nonlinearity correction enabled: false
Boxcar width: 0
XAxis mode: Wavelengths
Number of Pixels in Spectrum: 1044
>>>>>Begin Spectral Data<<<<<
784.041	11.88
784.3	-3.12
784.558	-2.12
784.817	-3.12
785.075	113597.88
785.334	19618.88
785.592	9170.88
785.851	6419.88
786.109	4797.88
786.368	3688.88
786.626	3034.88
786.884	2493.88
787.143	2079.88
787.401	1742.88
787.659	1556.88
787.917	1324.88
788.175	1237.88
788.433	1058.88
788.691	942.88
788.949	871.88
789.207	836.88
789.465	735.88
789.723	692.88
789.98	643.88
790.238	666.88
790.496	641.88
790.753	617.88
791.011	666.88
791.268	596.88
791.526	563.88
791.783	580.88
792.041	576.88
792.298	471.88
792.556	540.88
792.813	521.88
793.07	488.88
793.327	498.88
793.584	557.88
793.841	495.88
794.099	533.88
794.356	574.88
794.613	451.88
794.869	502.88
795.126	471.88
795.383	451.88
795.64	466.88
795.897	428.88
796.153	469.88
796.41	475.88
796.667	452.88
796.923	483.88
797.18	452.88
797.436	482.88
797.693	461.88
797.949	502.88
798.206	544.88
798.462	467.88
798.718	531.88
798.974	502.88
799.231	546.88
799.487	545.88
799.743	536.88
799.999	578.88
800.255	557.88
800.511	547.88
800.767	615.88
801.023	616.88
801.279	666.88
801.534	711.88
801.79	794.88
802.046	813.88
802.302	1019.88
802.557	1173.88
802.813	1515.88
803.068	1917.88
803.324	2674.88
803.579	3665.88
803.835	5061.88
804.09	7086.88
804.345	9312.88
804.601	11751.88
804.856	14300.88
805.111	16468.88
805.366	18271.88
805.621	19566.88
805.876	20513.88
806.131	21140.88
806.386	21522.88
806.641	21936.88
806.896	22278.88
807.151	22845.88
807.406	23126.88
807.661	23579.88
807.915	23980.88
808.17	24392.88
808.425	24724.88
808.679	24800.88
808.934	25090.88
809.188	25412.88
809.443	25717.88
809.697	26011.88
809.951	26098.88
810.206	26452.88
810.46	26648.88
810.714	26861.88
810.968	27070.88
811.223	27295.88
811.477	27541.88
811.731	27886.88
811.985	28015.88
812.239	28002.88
812.493	28193.88
812.747	28429.88
813	28351.88
813.254	28690.88
813.508	28825.88
813.762	28982.88
814.015	28930.88
814.269	29269.88
814.522	29427.88
814.776	29824.88
815.03	30255.88
815.283	30692.88
815.536	31086.88
815.79	31807.88
816.043	32222.88
816.296	32483.88
816.55	32995.88
816.803	33397.88
817.056	33797.88
817.309	34122.88
817.562	34477.88
817.815	34645.88
818.068	35147.88
818.321	35445.88
818.574	35845.88
818.827	36348.88
819.079	36649.88
819.332	37498.88
819.585	37779.88
819.838	38372.88
820.09	38485.88
820.343	38804.88
820.595	38979.88
820.848	39317.88
821.1	39487.88
821.353	39461.88
821.605	39628.88
821.857	39527.88
822.11	39372.88
822.362	39237.88
822.614	39292.88
822.866	39257.88
823.118	39263.88
823.37	39279.88
823.622	39473.88
823.874	39450.88
824.126	39802.88
824.378	39760.88
824.63	39809.88
824.882	40078.88
825.134	39853.88
825.385	40004.88
825.637	39806.88
825.888	39715.88
826.14	39855.88
826.392	39459.88
826.643	39352.88
826.895	39272.88
827.146	38995.88
827.397	38935.88
827.649	39041.88
827.9	38862.88
828.151	39058.88
828.402	39211.88
828.653	39315.88
828.905	39402.88
829.156	39583.88
829.407	39463.88
829.658	39443.88
829.909	39574.88
830.159	39567.88
830.41	39403.88
830.661	39003.88
830.912	38863.88
831.162	38818.88
831.413	38716.88
831.664	38669.88
831.914	38776.88
832.165	38639.88
832.415	38546.88
832.666	38688.88
832.916	38638.88
833.167	38716.88
833.417	38697.88
833.667	38556.88
833.917	38479.88
834.168	38307.88
834.418	38221.88
834.668	38054.88
834.918	37972.88
835.168	37726.88
835.418	37569.88
835.668	37482.88
835.918	37305.88
836.167	37407.88
836.417	37285.88
836.667	37124.88
836.917	37187.88
837.166	37089.88
837.416	37197.88
837.666	37175.88
837.915	37105.88
838.165	36928.88
838.414	36986.88
838.663	36857.88
838.913	36840.88
839.162	36763.88
839.411	36671.88
839.661	36547.88
839.91	36557.88
840.159	36397.88
840.408	36491.88
840.657	36450.88
840.906	36426.88
841.155	36513.88
841.404	36353.88
841.653	36414.88
841.902	36354.88
842.15	36579.88
842.399	36599.88
842.648	36640.88
842.897	36350.88
843.145	36217.88
843.394	36001.88
843.642	35672.88
843.891	35600.88
844.139	35522.88
844.388	35169.88
844.636	35180.88
844.884	35162.88
845.133	35110.88
845.381	35144.88
845.629	35123.88
845.877	35042.88
846.125	35011.88
846.373	34963.88
846.621	34731.88
846.869	34653.88
847.117	34463.88
847.365	34300.88
847.613	34072.88
847.861	34078.88
848.108	34018.88
848.356	33928.88
848.604	33929.88
848.851	33855.88
849.099	33903.88
849.346	33945.88
849.594	34151.88
849.841	34375.88
850.089	34259.88
850.336	34373.88
850.583	34291.88
850.831	34153.88
851.078	33995.88
851.325	33858.88
851.572	33870.88
851.819	33683.88
852.066	33107.88
852.313	32889.88
852.56	32427.88
852.807	32489.88
853.054	32255.88
853.301	32233.88
853.548	32291.88
853.794	32454.88
854.041	32539.88
854.288	32747.88
854.534	32917.88
854.781	32949.88
855.028	32733.88
855.274	32631.88
855.52	32503.88
855.767	32380.88
856.013	32349.88
856.26	32642.88
856.506	32099.88
856.752	32102.88
856.998	32134.88
857.244	32071.88
857.49	32231.88
857.736	32285.88
857.982	32218.88
858.228	32145.88
858.474	32001.88
858.72	31771.88
858.966	31516.88
859.212	31370.88
859.458	30974.88
859.703	30617.88
859.949	30286.88
860.195	30186.88
860.44	30033.88
860.686	29977.88
860.931	30095.88
861.177	29704.88
861.422	29596.88
861.667	29575.88
861.913	29684.88
862.158	29608.88
862.403	29611.88
862.648	29633.88
862.893	29718.88
863.138	29843.88
863.384	29671.88
863.629	29605.88
863.873	29545.88
864.118	29512.88
864.363	29261.88
864.608	29158.88
864.853	29180.88
865.098	29079.88
865.342	28916.88
865.587	28798.88
865.832	28762.88
866.076	28615.88
866.321	28707.88
866.565	28503.88
866.81	28366.88
867.054	28444.88
867.298	28192.88
867.543	28163.88
867.787	28109.88
868.031	28130.88
868.275	27875.88
868.519	27939.88
868.764	27877.88
869.008	27887.88
869.252	27778.88
869.496	27638.88
869.739	27685.88
869.983	27620.88
870.227	27610.88
870.471	27471.88
870.715	27713.88
870.958	27745.88
871.202	27850.88
871.446	27797.88
871.689	27796.88
871.933	27814.88
872.176	27732.88
872.42	27744.88
872.663	27749.88
872.906	27589.88
873.15	27447.88
873.393	27486.88
873.636	27438.88
873.879	27022.88
874.122	26789.88
874.366	26454.88
874.609	26277.88
874.852	26175.88
875.095	26032.88
875.337	25898.88
875.58	25710.88
875.823	25672.88
876.066	25625.88
876.309	25563.88
876.551	25465.88
876.794	25260.88
877.037	25232.88
877.279	25140.88
877.522	25102.88
877.764	25239.88
878.007	25137.88
878.249	25075.88
878.491	24993.88
878.734	25093.88
878.976	24964.88
879.218	24792.88
879.46	24662.88
879.702	24526.88
879.945	24351.88
880.187	24131.88
880.429	24000.88
880.671	23947.88
880.912	23760.88
881.154	23683.88
881.396	23603.88
881.638	23632.88
881.88	23588.88
882.121	23575.88
882.363	23599.88
882.605	23472.88
882.846	23356.88
883.088	23365.88
883.329	23354.88
883.571	23308.88
883.812	23388.88
884.053	23782.88
884.295	24076.88
884.536	24292.88
884.777	24211.88
885.018	23966.88
885.259	23990.88
885.5	23840.88
885.742	23811.88
885.982	23663.88
886.223	23593.88
886.464	23439.88
886.705	23326.88
886.946	23130.88
887.187	22796.88
887.428	22539.88
887.668	22132.88
887.909	21931.88
888.15	21732.88
888.39	21603.88
888.631	21531.88
888.871	21294.88
889.111	21120.88
889.352	21020.88
889.592	20770.88
889.833	20705.88
890.073	20450.88
890.313	20507.88
890.553	20284.88
890.793	20151.88
891.033	20153.88
891.273	20028.88
891.513	19979.88
891.753	19990.88
891.993	19911.88
892.233	19897.88
892.473	19987.88
892.713	19977.88
892.952	19941.88
893.192	19957.88
893.432	19972.88
893.671	19895.88
893.911	19842.88
894.15	19718.88
894.39	19445.88
894.629	19475.88
894.869	19275.88
895.108	19207.88
895.347	19120.88
895.587	19138.88
895.826	19120.88
896.065	19005.88
896.304	18996.88
896.543	18970.88
896.782	18820.88
897.021	18865.88
897.26	18836.88
897.499	18848.88
897.738	18695.88
897.977	18467.88
898.216	18389.88
898.454	18412.88
898.693	18210.88
898.932	18117.88
899.17	18015.88
899.409	17988.88
899.647	17950.88
899.886	17886.88
900.124	17898.88
900.363	17917.88
900.601	17942.88
900.839	17909.88
901.078	18000.88
901.316	18010.88
901.554	18022.88
901.792	18182.88
902.03	18114.88
902.268	18046.88
902.506	18119.88
902.744	17985.88
902.982	17793.88
903.22	17532.88
903.458	17361.88
903.695	17184.88
903.933	17012.88
904.171	16557.88
904.409	16364.88
904.646	16330.88
904.884	15966.88
905.121	15881.88
905.359	15672.88
905.596	15613.88
905.833	15382.88
906.071	15308.88
906.308	15353.88
906.545	15216.88
906.783	15237.88
907.02	15102.88
907.257	15078.88
907.494	15054.88
907.731	14977.88
907.968	14855.88
908.205	14777.88
908.442	14748.88
908.679	14677.88
908.915	14512.88
909.152	14464.88
909.389	14206.88
909.626	14150.88
909.862	14135.88
910.099	14024.88
910.335	14005.88
910.572	13802.88
910.808	13819.88
911.045	13739.88
911.281	13654.88
911.518	13783.88
911.754	13636.88
911.99	13553.88
912.226	13407.88
912.463	13353.88
912.699	13190.88
912.935	13091.88
913.171	12945.88
913.407	12876.88
913.643	12848.88
913.879	12786.88
914.114	12590.88
914.35	12409.88
914.586	12427.88
914.822	12309.88
915.057	12233.88
915.293	12095.88
915.529	11970.88
915.764	12059.88
916	12016.88
916.235	11988.88
916.471	11912.88
916.706	11824.88
916.941	11926.88
917.177	11879.88
917.412	11904.88
917.647	11766.88
917.882	11674.88
918.117	11803.88
918.352	11741.88
918.588	11647.88
918.823	11547.88
919.057	11381.88
919.292	11324.88
919.527	11240.88
919.762	11145.88
919.997	11074.88
920.232	10861.88
920.466	10830.88
920.701	10585.88
920.935	10677.88
921.17	10645.88
921.405	10489.88
921.639	10546.88
921.873	10503.88
922.108	10490.88
922.342	10414.88
922.576	10286.88
922.811	10244.88
923.045	10315.88
923.279	10293.88
923.513	10099.88
923.747	10118.88
923.981	10077.88
924.215	9922.88
924.449	9903.88
924.683	9827.88
924.917	9767.88
925.151	9679.88
925.385	9683.88
925.618	9707.88
925.852	9650.88
926.086	9592.88
926.319	9578.88
926.553	9512.88
926.786	9542.88
927.02	9535.88
927.253	9549.88
927.486	9588.88
927.72	9509.88
927.953	9465.88
928.186	9458.88
928.42	9376.88
928.653	9349.88
928.886	9258.88
929.119	9275.88
929.352	9216.88
929.585	9149.88
929.818	9056.88
930.051	9003.88
930.284	8998.88
930.516	8838.88
930.749	8835.88
930.982	8822.88
931.215	8762.88
931.447	8620.88
931.68	8656.88
931.912	8534.88
932.145	8583.88
932.377	8600.88
932.61	8707.88
932.842	8537.88
933.074	8560.88
933.307	8473.88
933.539	8575.88
933.771	8528.88
934.003	8497.88
934.236	8550.88
934.468	8569.88
934.7	8444.88
934.932	8408.88
935.164	8408.88
935.395	8366.88
935.627	8359.88
935.859	8328.88
936.091	8226.88
936.323	8291.88
936.554	8286.88
936.786	8186.88
937.017	8130.88
937.249	8132.88
937.481	8076.88
937.712	8123.88
937.943	8100.88
938.175	8013.88
938.406	8021.88
938.637	8022.88
938.869	7961.88
939.1	8006.88
939.331	7908.88
939.562	7961.88
939.793	7858.88
940.024	7885.88
940.255	7897.88
940.486	7740.88
940.717	7747.88
940.948	7704.88
941.179	7638.88
941.409	7639.88
941.64	7597.88
941.871	7634.88
942.102	7627.88
942.332	7689.88
942.563	7619.88
942.793	7638.88
943.024	7495.88
943.254	7601.88
943.484	7626.88
943.715	7644.88
943.945	7571.88
944.175	7445.88
944.405	7481.88
944.636	7437.88
944.866	7480.88
945.096	7491.88
945.326	7428.88
945.556	7431.88
945.786	7460.88
946.016	7324.88
946.245	7224.88
946.475	7194.88
946.705	7210.88
946.935	7148.88
947.164	7083.88
947.394	7002.88
947.624	6980.88
947.853	7010.88
948.083	7017.88
948.312	6960.88
948.542	6853.88
948.771	6836.88
949	6825.88
949.23	6764.88
949.459	6865.88
949.688	6917.88
949.917	6764.88
950.146	6769.88
950.375	6842.88
950.604	6749.88
950.833	6814.88
951.062	6739.88
951.291	6719.88
951.52	6750.88
951.749	6648.88
951.978	6604.88
952.206	6607.88
952.435	6573.88
952.664	6604.88
952.892	6559.88
953.121	6518.88
953.349	6507.88
953.578	6522.88
953.806	6427.88
954.035	6384.88
954.263	6364.88
954.491	6280.88
954.719	6344.88
954.948	6273.88
955.176	6217.88
955.404	6106.88
955.632	6168.88
955.86	6170.88
956.088	6160.88
956.316	6121.88
956.544	6086.88
956.772	6013.88
956.999	6019.88
957.227	6040.88
957.455	5969.88
957.683	5897.88
957.91	5916.88
958.138	5879.88
958.365	5836.88
958.593	5794.88
958.82	5736.88
959.048	5733.88
959.275	5700.88
959.502	5701.88
959.73	5671.88
959.957	5685.88
960.184	5671.88
960.411	5649.88
960.638	5680.88
960.865	5612.88
961.092	5625.88
961.319	5562.88
961.546	5642.88
961.773	5631.88
962	5575.88
962.227	5598.88
962.454	5517.88
962.68	5498.88
962.907	5450.88
963.134	5421.88
963.36	5443.88
963.587	5445.88
963.813	5293.88
964.04	5354.88
964.266	5272.88
964.493	5330.88
964.719	5282.88
964.945	5307.88
965.171	5106.88
965.398	5159.88
965.624	5208.88
965.85	5087.88
966.076	5063.88
966.302	5027.88
966.528	5046.88
966.754	5044.88
966.98	5010.88
967.206	4993.88
967.431	4914.88
967.657	5013.88
967.883	4964.88
968.109	4972.88
968.334	4802.88
968.56	4878.88
968.785	4883.88
969.011	4785.88
969.236	4789.88
969.462	4731.88
969.687	4740.88
969.912	4819.88
970.138	4791.88
970.363	4735.88
970.588	4719.88
970.813	4616.88
971.038	4636.88
971.263	4669.88
971.488	4630.88
971.713	4668.88
971.938	4631.88
972.163	4527.88
972.388	4540.88
972.613	4509.88
972.838	4464.88
973.062	4443.88
973.287	4494.88
973.512	4385.88
973.736	4389.88
973.961	4363.88
974.185	4342.88
974.41	4342.88
974.634	4280.88
974.858	4238.88
975.083	4302.88
975.307	4228.88
975.531	4194.88
975.755	4118.88
975.98	4170.88
976.204	4053.88
976.428	4017.88
976.652	4002.88
976.876	3992.88
977.1	4041.88
977.324	3988.88
977.547	4057.88
977.771	3980.88
977.995	3990.88
978.219	3890.88
978.442	3998.88
978.666	3983.88
978.89	3944.88
979.113	3932.88
979.337	3900.88
979.56	3820.88
979.783	3897.88
980.007	3800.88
980.23	3802.88
980.453	3776.88
980.677	3804.88
980.9	3802.88
981.123	3692.88
981.346	3744.88
981.569	3745.88
981.792	3733.88
982.015	3674.88
982.238	3642.88
982.461	3615.88
982.684	3573.88
982.907	3531.88
983.129	3553.88
983.352	3583.88
983.575	3545.88
983.797	3548.88
984.02	3514.88
984.242	3434.88
984.465	3449.88
984.687	3497.88
984.91	3467.88
985.132	3422.88
985.354	3449.88
985.577	3430.88
985.799	3407.88
986.021	3287.88
986.243	3317.88
986.465	3337.88
986.687	3346.88
986.909	3389.88
987.131	3302.88
987.353	3225.88
987.575	3272.88
987.797	3237.88
988.019	3189.88
988.241	3254.88
988.462	3174.88
988.684	3235.88
988.906	3272.88
989.127	3266.88
989.349	3144.88
989.57	3152.88
989.792	3133.88
990.013	3188.88
990.234	3190.88
990.456	3186.88
990.677	3193.88
990.898	3088.88
991.119	3095.88
991.341	3068.88
991.562	3047.88
991.783	3048.88
992.004	2991.88
992.225	2974.88
992.446	3006.88
992.667	2906.88
992.887	2955.88
993.108	2866.88
993.329	2962.88
993.55	2914.88
993.77	2837.88
993.991	2823.88
994.212	2840.88
994.432	2802.88
994.653	2818.88
994.873	2843.88
995.093	2694.88
995.314	2759.88
995.534	2784.88
995.754	2805.88
995.975	2815.88
996.195	2699.88
996.415	2736.88
996.635	2734.88
996.855	2734.88
997.075	2703.88
997.295	2690.88
997.515	2673.88
997.735	2671.88
997.955	2660.88
998.174	2657.88
998.394	2628.88
998.614	2700.88
998.834	2639.88
999.053	2674.88
999.273	2633.88
999.492	2700.88
999.712	2579.88
999.931	2583.88
1000.151	2579.88
1000.37	2584.88
1000.589	2621.88
1000.809	2543.88
1001.028	2613.88
1001.247	2551.88
1001.466	2451.88
1001.685	2533.88
1001.904	2488.88
1002.123	2466.88
1002.342	2471.88
1002.561	2405.88
1002.78	2427.88
1002.999	2457.88
1003.218	2459.88
1003.436	2388.88
1003.655	2428.88
1003.874	2375.88
1004.092	2361.88
1004.311	2407.88
1004.53	2392.88
1004.748	2426.88
1004.966	2355.88
1005.185	2405.88
1005.403	2393.88
1005.622	2308.88
1005.84	2411.88
1006.058	2294.88
1006.276	2339.88
1006.494	2800.88
1006.712	2324.88
1006.931	2377.88
1007.149	2285.88
1007.367	2324.88
1007.584	2313.88
1007.802	2384.88
1008.02	2308.88
1008.238	2376.88
1008.456	2396.88
1008.673	2267.88
1008.891	2411.88
1009.109	2377.88
1009.326	2417.88
1009.544	2471.88
1009.761	2395.88
1009.979	2514.88
1010.196	2551.88
1010.413	2652.88
1010.631	2736.88
1010.848	2798.88
1011.065	2802.88
1011.282	2775.88
1011.5	2706.88
1011.717	2774.88
1011.934	2714.88
1012.151	2723.88
1012.368	2726.88
1012.585	2640.88
1012.801	2724.88
1013.018	2679.88
1013.235	2626.88
1013.452	2673.88
1013.669	2693.88
1013.885	2659.88
1014.102	2733.88
1014.318	2690.88
1014.535	2610.88
1014.751	2619.88
1014.968	2659.88
1015.184	2614.88
1015.401	2538.88
1015.617	2557.88
1015.833	2517.88
1016.049	2467.88
1016.266	2444.88
1016.482	2475.88
1016.698	2404.88
1016.914	2420.88
1017.13	2418.88
1017.346	2346.88
1017.562	2430.88
1017.778	2342.88
1017.993	2297.88
1018.209	2372.88
1018.425	2332.88
1018.641	2315.88
1018.856	2303.88
1019.072	2276.88
1019.288	2369.88
1019.503	2292.88
1019.719	2229.88
1019.934	2210.88
1020.149	2304.88
1020.365	2201.88
1020.58	2146.88
1020.795	2144.88
1021.011	2121.88
1021.226	2063.88
1021.441	2069.88
1021.656	1976.88
1021.871	1913.88
1022.086	1876.88
1022.301	1850.88
1022.516	1831.88
1022.731	1865.88
1022.946	1778.88
1023.16	1771.88
1023.375	1743.88
1023.59	1728.88
1023.804	1657.88
1024.019	1731.88
1024.234	1596.88
1024.448	1601.88
1024.663	1520.88
1024.877	1538.88
1025.092	1542.88
1025.306	1540.88
1025.52	1423.88
1025.734	1472.88
1025.949	1390.88
1026.163	1343.88
1026.377	1287.88
1026.591	1318.88
1026.805	1265.88
1027.019	1214.88
1027.233	1184.88
1027.447	1114.88
1027.661	1220.88
1027.875	1150.88
1028.088	1144.88
1028.302	1058.88
1028.516	1047.88
1028.73	1017.88
1028.943	1033.88
1029.157	952.88
1029.37	901.88
1029.584	-1.12
1029.797	-3.12
1030.011	-0.12
1030.224	0.88
