Data from QEP037381__338__16-26-09-913.txt Node

Date: Fri Dec 16 16:26:09 EST 2022
User: dcclab
Spectrometer: QEP03738
Trigger mode: 4
Integration Time (sec): 1.000000E1
Scans to average: 1
Electric dark correction enabled: true
Nonlinearity correction enabled: false
Boxcar width: 0
XAxis mode: Wavelengths
Number of Pixels in Spectrum: 1044
>>>>>Begin Spectral Data<<<<<
784.041	9.5
784.3	0.5
784.558	-0.5
784.817	-2.5
785.075	116286.5
785.334	20241.5
785.592	9525.5
785.851	6505.5
786.109	4897.5
786.368	3835.5
786.626	3124.5
786.884	2564.5
787.143	2143.5
787.401	1774.5
787.659	1614.5
787.917	1362.5
788.175	1235.5
788.433	1095.5
788.691	967.5
788.949	908.5
789.207	861.5
789.465	752.5
789.723	719.5
789.98	659.5
790.238	696.5
790.496	664.5
790.753	623.5
791.011	682.5
791.268	596.5
791.526	580.5
791.783	594.5
792.041	569.5
792.298	498.5
792.556	562.5
792.813	533.5
793.07	525.5
793.327	504.5
793.584	592.5
793.841	498.5
794.099	512.5
794.356	564.5
794.613	488.5
794.869	516.5
795.126	481.5
795.383	472.5
795.64	488.5
795.897	437.5
796.153	502.5
796.41	503.5
796.667	474.5
796.923	481.5
797.18	484.5
797.436	509.5
797.693	496.5
797.949	537.5
798.206	576.5
798.462	488.5
798.718	548.5
798.974	536.5
799.231	578.5
799.487	565.5
799.743	579.5
799.999	609.5
800.255	635.5
800.511	632.5
800.767	672.5
801.023	670.5
801.279	710.5
801.534	776.5
801.79	861.5
802.046	938.5
802.302	1139.5
802.557	1361.5
802.813	1708.5
803.068	2216.5
803.324	3085.5
803.579	4318.5
803.835	6067.5
804.09	8326.5
804.345	11090.5
804.601	14086.5
804.856	17232.5
805.111	19943.5
805.366	22080.5
805.621	23723.5
805.876	24721.5
806.131	25574.5
806.386	26155.5
806.641	26579.5
806.896	27111.5
807.151	27624.5
807.406	28045.5
807.661	28625.5
807.915	29124.5
808.17	29646.5
808.425	29864.5
808.679	30261.5
808.934	30625.5
809.188	30899.5
809.443	31260.5
809.697	31529.5
809.951	31852.5
810.206	32202.5
810.46	32421.5
810.714	32705.5
810.968	33047.5
811.223	33270.5
811.477	33591.5
811.731	33998.5
811.985	34026.5
812.239	34273.5
812.493	34555.5
812.747	34719.5
813	34686.5
813.254	34893.5
813.508	35070.5
813.762	35269.5
814.015	35361.5
814.269	35622.5
814.522	36085.5
814.776	36464.5
815.03	36909.5
815.283	37508.5
815.536	38086.5
815.79	38826.5
816.043	39363.5
816.296	39888.5
816.55	40407.5
816.803	40878.5
817.056	41496.5
817.309	41860.5
817.562	42256.5
817.815	42665.5
818.068	42992.5
818.321	43520.5
818.574	44023.5
818.827	44668.5
819.079	45096.5
819.332	45718.5
819.585	46463.5
819.838	47116.5
820.09	47390.5
820.343	47720.5
820.595	48017.5
820.848	48265.5
821.1	48610.5
821.353	48620.5
821.605	48675.5
821.857	48681.5
822.11	48370.5
822.362	48261.5
822.614	48309.5
822.866	48432.5
823.118	48206.5
823.37	48293.5
823.622	48592.5
823.874	48840.5
824.126	48872.5
824.378	48964.5
824.63	49154.5
824.882	49251.5
825.134	49301.5
825.385	49343.5
825.637	49275.5
825.888	48999.5
826.14	48996.5
826.392	49015.5
826.643	48721.5
826.895	48365.5
827.146	48375.5
827.397	48159.5
827.649	48442.5
827.9	48233.5
828.151	48319.5
828.402	48522.5
828.653	48695.5
828.905	48503.5
829.156	49001.5
829.407	48749.5
829.658	48802.5
829.909	48993.5
830.159	48895.5
830.41	48715.5
830.661	48404.5
830.912	48143.5
831.162	48077.5
831.413	47934.5
831.664	48072.5
831.914	47871.5
832.165	47927.5
832.415	47861.5
832.666	47717.5
832.916	48033.5
833.167	47933.5
833.417	47849.5
833.667	47801.5
833.917	47678.5
834.168	47444.5
834.418	47468.5
834.668	47362.5
834.918	47074.5
835.168	46984.5
835.418	46665.5
835.668	46547.5
835.918	46485.5
836.167	46402.5
836.417	46168.5
836.667	46236.5
836.917	46124.5
837.166	46083.5
837.416	46159.5
837.666	46278.5
837.915	46182.5
838.165	46089.5
838.414	45840.5
838.663	45949.5
838.913	45829.5
839.162	45684.5
839.411	45640.5
839.661	45520.5
839.91	45281.5
840.159	45303.5
840.408	45109.5
840.657	45391.5
840.906	45414.5
841.155	45279.5
841.404	45418.5
841.653	45465.5
841.902	45414.5
842.15	45444.5
842.399	45495.5
842.648	45490.5
842.897	45329.5
843.145	44946.5
843.394	44792.5
843.642	44526.5
843.891	44370.5
844.139	44128.5
844.388	43977.5
844.636	43916.5
844.884	43842.5
845.133	43644.5
845.381	43645.5
845.629	43725.5
845.877	43686.5
846.125	43674.5
846.373	43527.5
846.621	43404.5
846.869	43261.5
847.117	43033.5
847.365	42887.5
847.613	42587.5
847.861	42378.5
848.108	42356.5
848.356	42258.5
848.604	42221.5
848.851	42464.5
849.099	42385.5
849.346	42503.5
849.594	42736.5
849.841	42736.5
850.089	43028.5
850.336	42910.5
850.583	42874.5
850.831	42628.5
851.078	42406.5
851.325	42254.5
851.572	42246.5
851.819	41897.5
852.066	41284.5
852.313	40803.5
852.56	40659.5
852.807	40456.5
853.054	40220.5
853.301	40441.5
853.548	40284.5
853.794	40357.5
854.041	40458.5
854.288	40805.5
854.534	41105.5
854.781	41022.5
855.028	40985.5
855.274	40781.5
855.52	40722.5
855.767	40469.5
856.013	40383.5
856.26	40730.5
856.506	40078.5
856.752	39925.5
856.998	40128.5
857.244	40116.5
857.49	40295.5
857.736	40378.5
857.982	40422.5
858.228	40259.5
858.474	39961.5
858.72	39717.5
858.966	39467.5
859.212	38994.5
859.458	38761.5
859.703	38305.5
859.949	37928.5
860.195	37719.5
860.44	37591.5
860.686	37472.5
860.931	37417.5
861.177	37098.5
861.422	36998.5
861.667	36926.5
861.913	37005.5
862.158	37144.5
862.403	37139.5
862.648	37353.5
862.893	37358.5
863.138	37318.5
863.384	37202.5
863.629	37161.5
863.873	37065.5
864.118	36858.5
864.363	36868.5
864.608	36742.5
864.853	36534.5
865.098	36153.5
865.342	36166.5
865.587	36091.5
865.832	35969.5
866.076	35975.5
866.321	36026.5
866.565	35786.5
866.81	35560.5
867.054	35516.5
867.298	35388.5
867.543	35137.5
867.787	35288.5
868.031	35306.5
868.275	35026.5
868.519	34970.5
868.764	35015.5
869.008	34897.5
869.252	34767.5
869.496	34779.5
869.739	34489.5
869.983	34495.5
870.227	34501.5
870.471	34417.5
870.715	34642.5
870.958	34635.5
871.202	34652.5
871.446	34780.5
871.689	34694.5
871.933	34795.5
872.176	34651.5
872.42	34628.5
872.663	34568.5
872.906	34609.5
873.15	34247.5
873.393	34235.5
873.636	34165.5
873.879	33817.5
874.122	33360.5
874.366	32993.5
874.609	32832.5
874.852	32659.5
875.095	32620.5
875.337	32372.5
875.58	32210.5
875.823	31999.5
876.066	32027.5
876.309	31868.5
876.551	31697.5
876.794	31611.5
877.037	31619.5
877.279	31334.5
877.522	31481.5
877.764	31516.5
878.007	31450.5
878.249	31291.5
878.491	31469.5
878.734	31344.5
878.976	31282.5
879.218	31008.5
879.46	30911.5
879.702	30699.5
879.945	30473.5
880.187	30191.5
880.429	30032.5
880.671	29932.5
880.912	29799.5
881.154	29784.5
881.396	29474.5
881.638	29609.5
881.88	29582.5
882.121	29523.5
882.363	29485.5
882.605	29372.5
882.846	29264.5
883.088	29283.5
883.329	29138.5
883.571	29136.5
883.812	29289.5
884.053	29463.5
884.295	29873.5
884.536	30134.5
884.777	29844.5
885.018	29657.5
885.259	29602.5
885.5	29368.5
885.742	29573.5
885.982	29481.5
886.223	29163.5
886.464	29053.5
886.705	28810.5
886.946	28702.5
887.187	28379.5
887.428	28098.5
887.668	27743.5
887.909	27459.5
888.15	27134.5
888.39	26961.5
888.631	26903.5
888.871	26577.5
889.111	26619.5
889.352	26436.5
889.592	26140.5
889.833	25907.5
890.073	25768.5
890.313	25717.5
890.553	25534.5
890.793	25332.5
891.033	25352.5
891.273	25085.5
891.513	25024.5
891.753	24922.5
891.993	24957.5
892.233	24979.5
892.473	25068.5
892.713	25017.5
892.952	24985.5
893.192	25028.5
893.432	24838.5
893.671	24843.5
893.911	24722.5
894.15	24709.5
894.39	24463.5
894.629	24317.5
894.869	24228.5
895.108	23989.5
895.347	23921.5
895.587	23974.5
895.826	23819.5
896.065	23621.5
896.304	23632.5
896.543	23708.5
896.782	23501.5
897.021	23479.5
897.26	23529.5
897.499	23427.5
897.738	23345.5
897.977	23083.5
898.216	22974.5
898.454	22708.5
898.693	22581.5
898.932	22465.5
899.17	22339.5
899.409	22270.5
899.647	22273.5
899.886	22158.5
900.124	22190.5
900.363	22256.5
900.601	22179.5
900.839	22201.5
901.078	22174.5
901.316	22240.5
901.554	22308.5
901.792	22233.5
902.03	22215.5
902.268	22175.5
902.506	22218.5
902.744	22102.5
902.982	22071.5
903.22	21741.5
903.458	21559.5
903.695	21160.5
903.933	20921.5
904.171	20705.5
904.409	20450.5
904.646	20205.5
904.884	19887.5
905.121	19695.5
905.359	19488.5
905.596	19351.5
905.833	19171.5
906.071	19143.5
906.308	19001.5
906.545	18991.5
906.783	18962.5
907.02	19006.5
907.257	18868.5
907.494	18805.5
907.731	18762.5
907.968	18573.5
908.205	18432.5
908.442	18298.5
908.679	18241.5
908.915	18142.5
909.152	17947.5
909.389	17808.5
909.626	17695.5
909.862	17584.5
910.099	17545.5
910.335	17440.5
910.572	17356.5
910.808	17321.5
911.045	17333.5
911.281	17215.5
911.518	17184.5
911.754	16957.5
911.99	16852.5
912.226	16810.5
912.463	16659.5
912.699	16503.5
912.935	16438.5
913.171	16315.5
913.407	16164.5
913.643	16087.5
913.879	15906.5
914.114	15702.5
914.35	15609.5
914.586	15441.5
914.822	15264.5
915.057	15284.5
915.293	15075.5
915.529	14961.5
915.764	14964.5
916	14896.5
916.235	14863.5
916.471	14803.5
916.706	14732.5
916.941	14766.5
917.177	14743.5
917.412	14701.5
917.647	14730.5
917.882	14637.5
918.117	14686.5
918.352	14574.5
918.588	14625.5
918.823	14337.5
919.057	14355.5
919.292	14130.5
919.527	14049.5
919.762	13865.5
919.997	13769.5
920.232	13578.5
920.466	13456.5
920.701	13248.5
920.935	13252.5
921.17	13241.5
921.405	13067.5
921.639	13084.5
921.873	12986.5
922.108	12910.5
922.342	12882.5
922.576	12875.5
922.811	12684.5
923.045	12669.5
923.279	12644.5
923.513	12525.5
923.747	12617.5
923.981	12369.5
924.215	12352.5
924.449	12226.5
924.683	12151.5
924.917	12074.5
925.151	11963.5
925.385	12117.5
925.618	11995.5
925.852	11911.5
926.086	11832.5
926.319	11832.5
926.553	11828.5
926.786	11810.5
927.02	11870.5
927.253	11846.5
927.486	11800.5
927.72	11680.5
927.953	11765.5
928.186	11637.5
928.42	11661.5
928.653	11584.5
928.886	11456.5
929.119	11478.5
929.352	11308.5
929.585	11286.5
929.818	11213.5
930.051	11142.5
930.284	11043.5
930.516	10909.5
930.749	10911.5
930.982	10841.5
931.215	10738.5
931.447	10671.5
931.68	10644.5
931.912	10541.5
932.145	10573.5
932.377	10634.5
932.61	10746.5
932.842	10544.5
933.074	10578.5
933.307	10508.5
933.539	10570.5
933.771	10538.5
934.003	10510.5
934.236	10575.5
934.468	10515.5
934.7	10421.5
934.932	10434.5
935.164	10334.5
935.395	10329.5
935.627	10294.5
935.859	10275.5
936.091	10251.5
936.323	10211.5
936.554	10137.5
936.786	10141.5
937.017	9987.5
937.249	10048.5
937.481	9952.5
937.712	9974.5
937.943	9961.5
938.175	9931.5
938.406	9910.5
938.637	9961.5
938.869	9756.5
939.1	9899.5
939.331	9753.5
939.562	9766.5
939.793	9739.5
940.024	9731.5
940.255	9649.5
940.486	9554.5
940.717	9465.5
940.948	9483.5
941.179	9385.5
941.409	9408.5
941.64	9364.5
941.871	9391.5
942.102	9368.5
942.332	9319.5
942.563	9355.5
942.793	9386.5
943.024	9255.5
943.254	9285.5
943.484	9336.5
943.715	9333.5
943.945	9270.5
944.175	9134.5
944.405	9211.5
944.636	9224.5
944.866	9232.5
945.096	9209.5
945.326	9060.5
945.556	9146.5
945.786	9098.5
946.016	8954.5
946.245	8865.5
946.475	8857.5
946.705	8740.5
946.935	8821.5
947.164	8745.5
947.394	8683.5
947.624	8635.5
947.853	8629.5
948.083	8614.5
948.312	8533.5
948.542	8417.5
948.771	8435.5
949	8411.5
949.23	8383.5
949.459	8363.5
949.688	8408.5
949.917	8311.5
950.146	8367.5
950.375	8399.5
950.604	8271.5
950.833	8322.5
951.062	8330.5
951.291	8171.5
951.52	8170.5
951.749	8162.5
951.978	8097.5
952.206	8110.5
952.435	8060.5
952.664	8057.5
952.892	8040.5
953.121	7997.5
953.349	8022.5
953.578	7972.5
953.806	7863.5
954.035	7796.5
954.263	7814.5
954.491	7721.5
954.719	7801.5
954.948	7719.5
955.176	7613.5
955.404	7557.5
955.632	7620.5
955.86	7554.5
956.088	7545.5
956.316	7510.5
956.544	7496.5
956.772	7373.5
956.999	7308.5
957.227	7360.5
957.455	7243.5
957.683	7183.5
957.91	7123.5
958.138	7096.5
958.365	7077.5
958.593	7051.5
958.82	6933.5
959.048	7057.5
959.275	7022.5
959.502	6851.5
959.73	6896.5
959.957	6956.5
960.184	6925.5
960.411	6840.5
960.638	6933.5
960.865	6863.5
961.092	6908.5
961.319	6782.5
961.546	6876.5
961.773	6852.5
962	6769.5
962.227	6818.5
962.454	6725.5
962.68	6700.5
962.907	6676.5
963.134	6637.5
963.36	6591.5
963.587	6590.5
963.813	6449.5
964.04	6491.5
964.266	6396.5
964.493	6446.5
964.719	6381.5
964.945	6399.5
965.171	6257.5
965.398	6311.5
965.624	6250.5
965.85	6177.5
966.076	6192.5
966.302	6117.5
966.528	6057.5
966.754	6132.5
966.98	6050.5
967.206	6049.5
967.431	5957.5
967.657	6045.5
967.883	6030.5
968.109	5934.5
968.334	5896.5
968.56	5840.5
968.785	5862.5
969.011	5853.5
969.236	5850.5
969.462	5812.5
969.687	5865.5
969.912	5818.5
970.138	5799.5
970.363	5723.5
970.588	5681.5
970.813	5678.5
971.038	5615.5
971.263	5698.5
971.488	5697.5
971.713	5664.5
971.938	5567.5
972.163	5510.5
972.388	5496.5
972.613	5461.5
972.838	5393.5
973.062	5455.5
973.287	5427.5
973.512	5257.5
973.736	5316.5
973.961	5339.5
974.185	5263.5
974.41	5274.5
974.634	5159.5
974.858	5123.5
975.083	5177.5
975.307	5179.5
975.531	5064.5
975.755	4992.5
975.98	4984.5
976.204	4917.5
976.428	4877.5
976.652	4854.5
976.876	4834.5
977.1	4888.5
977.324	4820.5
977.547	4844.5
977.771	4867.5
977.995	4778.5
978.219	4747.5
978.442	4860.5
978.666	4774.5
978.89	4755.5
979.113	4690.5
979.337	4656.5
979.56	4648.5
979.783	4720.5
980.007	4618.5
980.23	4603.5
980.453	4549.5
980.677	4610.5
980.9	4555.5
981.123	4472.5
981.346	4489.5
981.569	4493.5
981.792	4472.5
982.015	4391.5
982.238	4340.5
982.461	4362.5
982.684	4316.5
982.907	4282.5
983.129	4249.5
983.352	4280.5
983.575	4241.5
983.797	4168.5
984.02	4138.5
984.242	4124.5
984.465	4109.5
984.687	4132.5
984.91	4152.5
985.132	4114.5
985.354	4167.5
985.577	4035.5
985.799	4035.5
986.021	3962.5
986.243	3956.5
986.465	3978.5
986.687	3966.5
986.909	3999.5
987.131	3983.5
987.353	3897.5
987.575	3882.5
987.797	3888.5
988.019	3821.5
988.241	3888.5
988.462	3805.5
988.684	3843.5
988.906	3832.5
989.127	3874.5
989.349	3692.5
989.57	3780.5
989.792	3789.5
990.013	3774.5
990.234	3738.5
990.456	3755.5
990.677	3747.5
990.898	3685.5
991.119	3642.5
991.341	3686.5
991.562	3607.5
991.783	3616.5
992.004	3568.5
992.225	3523.5
992.446	3566.5
992.667	3421.5
992.887	3502.5
993.108	3383.5
993.329	3503.5
993.55	3434.5
993.77	3366.5
993.991	3347.5
994.212	3362.5
994.432	3358.5
994.653	3331.5
994.873	3304.5
995.093	3210.5
995.314	3217.5
995.534	3295.5
995.754	3273.5
995.975	3306.5
996.195	3178.5
996.415	3216.5
996.635	3190.5
996.855	3168.5
997.075	3137.5
997.295	3129.5
997.515	3126.5
997.735	3174.5
997.955	3141.5
998.174	3134.5
998.394	3129.5
998.614	3135.5
998.834	3072.5
999.053	3133.5
999.273	3077.5
999.492	3145.5
999.712	3062.5
999.931	2995.5
1000.151	3040.5
1000.37	2999.5
1000.589	3023.5
1000.809	2977.5
1001.028	3056.5
1001.247	2957.5
1001.466	2838.5
1001.685	2964.5
1001.904	2903.5
1002.123	2868.5
1002.342	2880.5
1002.561	2837.5
1002.78	2803.5
1002.999	2888.5
1003.218	2811.5
1003.436	2800.5
1003.655	2775.5
1003.874	2735.5
1004.092	2721.5
1004.311	2744.5
1004.53	2689.5
1004.748	2758.5
1004.966	2669.5
1005.185	2706.5
1005.403	2708.5
1005.622	2671.5
1005.84	2745.5
1006.058	2636.5
1006.276	2699.5
1006.494	3184.5
1006.712	2675.5
1006.931	2723.5
1007.149	2633.5
1007.367	2611.5
1007.584	2685.5
1007.802	2659.5
1008.02	2612.5
1008.238	2728.5
1008.456	2723.5
1008.673	2579.5
1008.891	2714.5
1009.109	2631.5
1009.326	2701.5
1009.544	2786.5
1009.761	2750.5
1009.979	2827.5
1010.196	2824.5
1010.413	2990.5
1010.631	3013.5
1010.848	3062.5
1011.065	3083.5
1011.282	3040.5
1011.5	2980.5
1011.717	3076.5
1011.934	2975.5
1012.151	3022.5
1012.368	3021.5
1012.585	2934.5
1012.801	2978.5
1013.018	2937.5
1013.235	2893.5
1013.452	2910.5
1013.669	2960.5
1013.885	2927.5
1014.102	2960.5
1014.318	2923.5
1014.535	2911.5
1014.751	2908.5
1014.968	2892.5
1015.184	2875.5
1015.401	2806.5
1015.617	2816.5
1015.833	2717.5
1016.049	2755.5
1016.266	2690.5
1016.482	2685.5
1016.698	2590.5
1016.914	2627.5
1017.13	2561.5
1017.346	2530.5
1017.562	2591.5
1017.778	2541.5
1017.993	2485.5
1018.209	2555.5
1018.425	2519.5
1018.641	2506.5
1018.856	2457.5
1019.072	2481.5
1019.288	2519.5
1019.503	2451.5
1019.719	2400.5
1019.934	2404.5
1020.149	2444.5
1020.365	2387.5
1020.58	2313.5
1020.795	2358.5
1021.011	2251.5
1021.226	2231.5
1021.441	2238.5
1021.656	2128.5
1021.871	2064.5
1022.086	2058.5
1022.301	2043.5
1022.516	1996.5
1022.731	1988.5
1022.946	1903.5
1023.16	1933.5
1023.375	1863.5
1023.59	1824.5
1023.804	1811.5
1024.019	1847.5
1024.234	1699.5
1024.448	1737.5
1024.663	1667.5
1024.877	1667.5
1025.092	1672.5
1025.306	1661.5
1025.52	1546.5
1025.734	1622.5
1025.949	1514.5
1026.163	1474.5
1026.377	1391.5
1026.591	1407.5
1026.805	1350.5
1027.019	1320.5
1027.233	1276.5
1027.447	1241.5
1027.661	1340.5
1027.875	1277.5
1028.088	1244.5
1028.302	1154.5
1028.516	1138.5
1028.73	1125.5
1028.943	1084.5
1029.157	1039.5
1029.37	973.5
1029.584	-4.5
1029.797	-0.5
1030.011	-0.5
1030.224	-1.5
