Data from QEP037381__340__16-26-29-915.txt Node

Date: Fri Dec 16 16:26:29 EST 2022
User: dcclab
Spectrometer: QEP03738
Trigger mode: 4
Integration Time (sec): 1.000000E1
Scans to average: 1
Electric dark correction enabled: true
Nonlinearity correction enabled: false
Boxcar width: 0
XAxis mode: Wavelengths
Number of Pixels in Spectrum: 1044
>>>>>Begin Spectral Data<<<<<
784.041	13.25
784.3	0.25
784.558	-1.75
784.817	-2.75
785.075	112412.25
785.334	19269.25
785.592	9009.25
785.851	6179.25
786.109	4663.25
786.368	3611.25
786.626	2921.25
786.884	2441.25
787.143	2021.25
787.401	1667.25
787.659	1536.25
787.917	1291.25
788.175	1183.25
788.433	1042.25
788.691	922.25
788.949	857.25
789.207	830.25
789.465	728.25
789.723	692.25
789.98	619.25
790.238	669.25
790.496	648.25
790.753	601.25
791.011	638.25
791.268	582.25
791.526	565.25
791.783	561.25
792.041	562.25
792.298	472.25
792.556	544.25
792.813	523.25
793.07	482.25
793.327	479.25
793.584	576.25
793.841	489.25
794.099	495.25
794.356	544.25
794.613	457.25
794.869	489.25
795.126	464.25
795.383	435.25
795.64	452.25
795.897	417.25
796.153	481.25
796.41	459.25
796.667	445.25
796.923	449.25
797.18	460.25
797.436	481.25
797.693	446.25
797.949	495.25
798.206	518.25
798.462	447.25
798.718	512.25
798.974	477.25
799.231	540.25
799.487	524.25
799.743	521.25
799.999	553.25
800.255	551.25
800.511	541.25
800.767	579.25
801.023	595.25
801.279	621.25
801.534	664.25
801.79	730.25
802.046	772.25
802.302	948.25
802.557	1069.25
802.813	1336.25
803.068	1682.25
803.324	2335.25
803.579	3255.25
803.835	4476.25
804.09	6133.25
804.345	8001.25
804.601	10142.25
804.856	12289.25
805.111	14283.25
805.366	15691.25
805.621	16781.25
805.876	17575.25
806.131	18094.25
806.386	18538.25
806.641	18809.25
806.896	19162.25
807.151	19583.25
807.406	19765.25
807.661	20143.25
807.915	20548.25
808.17	20812.25
808.425	21105.25
808.679	21223.25
808.934	21464.25
809.188	21654.25
809.443	21956.25
809.697	22170.25
809.951	22375.25
810.206	22467.25
810.46	22763.25
810.714	22949.25
810.968	23125.25
811.223	23345.25
811.477	23604.25
811.731	23770.25
811.985	23865.25
812.239	23912.25
812.493	24079.25
812.747	24099.25
813	24242.25
813.254	24395.25
813.508	24535.25
813.762	24625.25
814.015	24581.25
814.269	24918.25
814.522	25231.25
814.776	25509.25
815.03	25720.25
815.283	26084.25
815.536	26615.25
815.79	27020.25
816.043	27318.25
816.296	27666.25
816.55	27946.25
816.803	28338.25
817.056	28743.25
817.309	28944.25
817.562	29255.25
817.815	29430.25
818.068	29906.25
818.321	29982.25
818.574	30321.25
818.827	30861.25
819.079	31205.25
819.332	31871.25
819.585	32085.25
819.838	32459.25
820.09	32681.25
820.343	32874.25
820.595	33134.25
820.848	33388.25
821.1	33412.25
821.353	33427.25
821.605	33489.25
821.857	33385.25
822.11	33320.25
822.362	33245.25
822.614	33170.25
822.866	33169.25
823.118	33275.25
823.37	33410.25
823.622	33448.25
823.874	33614.25
824.126	33630.25
824.378	33724.25
824.63	33795.25
824.882	33819.25
825.134	33866.25
825.385	33717.25
825.637	33711.25
825.888	33728.25
826.14	33664.25
826.392	33510.25
826.643	33235.25
826.895	33181.25
827.146	33029.25
827.397	33044.25
827.649	33091.25
827.9	33064.25
828.151	33048.25
828.402	33195.25
828.653	33317.25
828.905	33287.25
829.156	33352.25
829.407	33382.25
829.658	33292.25
829.909	33487.25
830.159	33340.25
830.41	33277.25
830.661	33123.25
830.912	32755.25
831.162	32801.25
831.413	32746.25
831.664	32875.25
831.914	32661.25
832.165	32666.25
832.415	32784.25
832.666	32792.25
832.916	32692.25
833.167	32689.25
833.417	32621.25
833.667	32564.25
833.917	32542.25
834.168	32406.25
834.418	32326.25
834.668	32211.25
834.918	32132.25
835.168	32006.25
835.418	31838.25
835.668	31665.25
835.918	31676.25
836.167	31569.25
836.417	31441.25
836.667	31577.25
836.917	31492.25
837.166	31536.25
837.416	31433.25
837.666	31377.25
837.915	31381.25
838.165	31349.25
838.414	31171.25
838.663	31266.25
838.913	31258.25
839.162	30994.25
839.411	31129.25
839.661	30891.25
839.91	30896.25
840.159	30906.25
840.408	30799.25
840.657	30861.25
840.906	30829.25
841.155	30881.25
841.404	30843.25
841.653	30826.25
841.902	30883.25
842.15	31002.25
842.399	31095.25
842.648	30841.25
842.897	30835.25
843.145	30566.25
843.394	30439.25
843.642	30335.25
843.891	30054.25
844.139	30012.25
844.388	29797.25
844.636	29772.25
844.884	29709.25
845.133	29686.25
845.381	29535.25
845.629	29556.25
845.877	29569.25
846.125	29602.25
846.373	29609.25
846.621	29477.25
846.869	29292.25
847.117	29167.25
847.365	28919.25
847.613	28841.25
847.861	28814.25
848.108	28905.25
848.356	28695.25
848.604	28801.25
848.851	28681.25
849.099	28755.25
849.346	28860.25
849.594	28937.25
849.841	29061.25
850.089	29159.25
850.336	29056.25
850.583	28923.25
850.831	28908.25
851.078	28832.25
851.325	28731.25
851.572	28824.25
851.819	28511.25
852.066	28020.25
852.313	27801.25
852.56	27544.25
852.807	27369.25
853.054	27355.25
853.301	27247.25
853.548	27219.25
853.794	27407.25
854.041	27509.25
854.288	27568.25
854.534	27805.25
854.781	27907.25
855.028	27672.25
855.274	27625.25
855.52	27542.25
855.767	27428.25
856.013	27522.25
856.26	27607.25
856.506	27137.25
856.752	27062.25
856.998	27192.25
857.244	27277.25
857.49	27449.25
857.736	27447.25
857.982	27501.25
858.228	27287.25
858.474	27071.25
858.72	26924.25
858.966	26757.25
859.212	26430.25
859.458	26224.25
859.703	26012.25
859.949	25695.25
860.195	25576.25
860.44	25454.25
860.686	25431.25
860.931	25336.25
861.177	25097.25
861.422	25053.25
861.667	24938.25
861.913	24962.25
862.158	25040.25
862.403	25013.25
862.648	25116.25
862.893	25142.25
863.138	25206.25
863.384	24920.25
863.629	25181.25
863.873	24963.25
864.118	25020.25
864.363	24772.25
864.608	24781.25
864.853	24627.25
865.098	24615.25
865.342	24381.25
865.587	24343.25
865.832	24478.25
866.076	24262.25
866.321	24170.25
866.565	24166.25
866.81	23985.25
867.054	24008.25
867.298	23994.25
867.543	23891.25
867.787	23861.25
868.031	23751.25
868.275	23667.25
868.519	23679.25
868.764	23677.25
869.008	23539.25
869.252	23495.25
869.496	23500.25
869.739	23420.25
869.983	23411.25
870.227	23453.25
870.471	23342.25
870.715	23457.25
870.958	23594.25
871.202	23570.25
871.446	23753.25
871.689	23662.25
871.933	23674.25
872.176	23652.25
872.42	23611.25
872.663	23410.25
872.906	23459.25
873.15	23288.25
873.393	23294.25
873.636	23161.25
873.879	23048.25
874.122	22864.25
874.366	22454.25
874.609	22344.25
874.852	22209.25
875.095	22114.25
875.337	21902.25
875.58	21916.25
875.823	21836.25
876.066	21854.25
876.309	21804.25
876.551	21528.25
876.794	21414.25
877.037	21431.25
877.279	21359.25
877.522	21331.25
877.764	21394.25
878.007	21304.25
878.249	21305.25
878.491	21304.25
878.734	21236.25
878.976	21265.25
879.218	21010.25
879.46	20850.25
879.702	20761.25
879.945	20658.25
880.187	20413.25
880.429	20280.25
880.671	20267.25
880.912	20265.25
881.154	20231.25
881.396	20046.25
881.638	20092.25
881.88	19948.25
882.121	19915.25
882.363	19987.25
882.605	19989.25
882.846	19913.25
883.088	19920.25
883.329	19795.25
883.571	19888.25
883.812	19999.25
884.053	20237.25
884.295	20612.25
884.536	20840.25
884.777	20730.25
885.018	20506.25
885.259	20483.25
885.5	20404.25
885.742	20544.25
885.982	20188.25
886.223	20229.25
886.464	20041.25
886.705	19803.25
886.946	19616.25
887.187	19286.25
887.428	19210.25
887.668	18923.25
887.909	18755.25
888.15	18494.25
888.39	18357.25
888.631	18250.25
888.871	18080.25
889.111	17938.25
889.352	17915.25
889.592	17665.25
889.833	17511.25
890.073	17521.25
890.313	17430.25
890.553	17169.25
890.793	17213.25
891.033	17059.25
891.273	17062.25
891.513	16970.25
891.753	16960.25
891.993	16871.25
892.233	16917.25
892.473	16924.25
892.713	16957.25
892.952	16950.25
893.192	16967.25
893.432	16914.25
893.671	16890.25
893.911	16823.25
894.15	16730.25
894.39	16672.25
894.629	16395.25
894.869	16414.25
895.108	16365.25
895.347	16190.25
895.587	16197.25
895.826	16233.25
896.065	16142.25
896.304	16169.25
896.543	16243.25
896.782	15943.25
897.021	16089.25
897.26	16048.25
897.499	16045.25
897.738	15907.25
897.977	15760.25
898.216	15707.25
898.454	15670.25
898.693	15443.25
898.932	15536.25
899.17	15442.25
899.409	15322.25
899.647	15289.25
899.886	15247.25
900.124	15326.25
900.363	15186.25
900.601	15446.25
900.839	15340.25
901.078	15364.25
901.316	15440.25
901.554	15428.25
901.792	15515.25
902.03	15590.25
902.268	15562.25
902.506	15511.25
902.744	15429.25
902.982	15274.25
903.22	15060.25
903.458	14939.25
903.695	14667.25
903.933	14433.25
904.171	14210.25
904.409	14012.25
904.646	13909.25
904.884	13656.25
905.121	13535.25
905.359	13381.25
905.596	13390.25
905.833	13137.25
906.071	13127.25
906.308	13150.25
906.545	12913.25
906.783	12944.25
907.02	12965.25
907.257	12815.25
907.494	12919.25
907.731	12850.25
907.968	12728.25
908.205	12690.25
908.442	12564.25
908.679	12594.25
908.915	12452.25
909.152	12277.25
909.389	12136.25
909.626	12068.25
909.862	12030.25
910.099	11994.25
910.335	11942.25
910.572	11812.25
910.808	11823.25
911.045	11778.25
911.281	11844.25
911.518	11821.25
911.754	11629.25
911.99	11549.25
912.226	11459.25
912.463	11395.25
912.699	11300.25
912.935	11211.25
913.171	11184.25
913.407	11106.25
913.643	11064.25
913.879	10908.25
914.114	10818.25
914.35	10727.25
914.586	10507.25
914.822	10524.25
915.057	10506.25
915.293	10369.25
915.529	10286.25
915.764	10247.25
916	10312.25
916.235	10321.25
916.471	10292.25
916.706	10101.25
916.941	10250.25
917.177	10208.25
917.412	10232.25
917.647	10159.25
917.882	10070.25
918.117	10061.25
918.352	10070.25
918.588	10017.25
918.823	9921.25
919.057	9841.25
919.292	9676.25
919.527	9832.25
919.762	9568.25
919.997	9525.25
920.232	9400.25
920.466	9352.25
920.701	9141.25
920.935	9198.25
921.17	9138.25
921.405	9087.25
921.639	9018.25
921.873	8942.25
922.108	8945.25
922.342	9003.25
922.576	8857.25
922.811	8893.25
923.045	8908.25
923.279	8819.25
923.513	8713.25
923.747	8683.25
923.981	8708.25
924.215	8598.25
924.449	8574.25
924.683	8394.25
924.917	8352.25
925.151	8365.25
925.385	8444.25
925.618	8337.25
925.852	8352.25
926.086	8287.25
926.319	8280.25
926.553	8299.25
926.786	8332.25
927.02	8241.25
927.253	8294.25
927.486	8227.25
927.72	8146.25
927.953	8211.25
928.186	8156.25
928.42	8177.25
928.653	8082.25
928.886	7979.25
929.119	8007.25
929.352	7961.25
929.585	7964.25
929.818	7811.25
930.051	7844.25
930.284	7757.25
930.516	7589.25
930.749	7636.25
930.982	7644.25
931.215	7572.25
931.447	7500.25
931.68	7403.25
931.912	7435.25
932.145	7454.25
932.377	7455.25
932.61	7498.25
932.842	7402.25
933.074	7439.25
933.307	7347.25
933.539	7440.25
933.771	7472.25
934.003	7313.25
934.236	7425.25
934.468	7455.25
934.7	7332.25
934.932	7389.25
935.164	7314.25
935.395	7293.25
935.627	7326.25
935.859	7274.25
936.091	7162.25
936.323	7181.25
936.554	7161.25
936.786	7093.25
937.017	6993.25
937.249	7130.25
937.481	6958.25
937.712	7060.25
937.943	7004.25
938.175	6986.25
938.406	6933.25
938.637	7085.25
938.869	6904.25
939.1	6955.25
939.331	6865.25
939.562	6936.25
939.793	6880.25
940.024	6868.25
940.255	6856.25
940.486	6765.25
940.717	6791.25
940.948	6682.25
941.179	6617.25
941.409	6623.25
941.64	6622.25
941.871	6639.25
942.102	6556.25
942.332	6647.25
942.563	6697.25
942.793	6668.25
943.024	6496.25
943.254	6608.25
943.484	6651.25
943.715	6649.25
943.945	6556.25
944.175	6508.25
944.405	6494.25
944.636	6505.25
944.866	6477.25
945.096	6514.25
945.326	6418.25
945.556	6430.25
945.786	6511.25
946.016	6410.25
946.245	6296.25
946.475	6290.25
946.705	6191.25
946.935	6232.25
947.164	6226.25
947.394	6087.25
947.624	6093.25
947.853	6114.25
948.083	6063.25
948.312	6072.25
948.542	6052.25
948.771	5930.25
949	5929.25
949.23	5951.25
949.459	5986.25
949.688	5973.25
949.917	5955.25
950.146	5912.25
950.375	5947.25
950.604	5912.25
950.833	5949.25
951.062	5874.25
951.291	5866.25
951.52	5832.25
951.749	5863.25
951.978	5764.25
952.206	5778.25
952.435	5735.25
952.664	5737.25
952.892	5756.25
953.121	5688.25
953.349	5767.25
953.578	5701.25
953.806	5585.25
954.035	5563.25
954.263	5598.25
954.491	5485.25
954.719	5544.25
954.948	5456.25
955.176	5434.25
955.404	5337.25
955.632	5444.25
955.86	5418.25
956.088	5409.25
956.316	5367.25
956.544	5358.25
956.772	5260.25
956.999	5239.25
957.227	5290.25
957.455	5189.25
957.683	5200.25
957.91	5105.25
958.138	5098.25
958.365	5089.25
958.593	5034.25
958.82	4990.25
959.048	5040.25
959.275	5059.25
959.502	5021.25
959.73	4950.25
959.957	5034.25
960.184	5027.25
960.411	4939.25
960.638	4954.25
960.865	4976.25
961.092	4945.25
961.319	4851.25
961.546	4941.25
961.773	4962.25
962	4911.25
962.227	4931.25
962.454	4882.25
962.68	4878.25
962.907	4822.25
963.134	4791.25
963.36	4712.25
963.587	4761.25
963.813	4722.25
964.04	4673.25
964.266	4567.25
964.493	4688.25
964.719	4615.25
964.945	4579.25
965.171	4516.25
965.398	4563.25
965.624	4590.25
965.85	4465.25
966.076	4474.25
966.302	4466.25
966.528	4441.25
966.754	4433.25
966.98	4425.25
967.206	4367.25
967.431	4335.25
967.657	4402.25
967.883	4380.25
968.109	4347.25
968.334	4235.25
968.56	4254.25
968.785	4282.25
969.011	4200.25
969.236	4308.25
969.462	4236.25
969.687	4217.25
969.912	4244.25
970.138	4238.25
970.363	4095.25
970.588	4170.25
970.813	4131.25
971.038	4129.25
971.263	4120.25
971.488	4129.25
971.713	4141.25
971.938	4079.25
972.163	3969.25
972.388	4002.25
972.613	3981.25
972.838	3918.25
973.062	3962.25
973.287	3990.25
973.512	3861.25
973.736	3896.25
973.961	3886.25
974.185	3818.25
974.41	3861.25
974.634	3777.25
974.858	3830.25
975.083	3807.25
975.307	3767.25
975.531	3772.25
975.755	3632.25
975.98	3665.25
976.204	3613.25
976.428	3575.25
976.652	3569.25
976.876	3529.25
977.1	3541.25
977.324	3530.25
977.547	3582.25
977.771	3560.25
977.995	3575.25
978.219	3455.25
978.442	3565.25
978.666	3490.25
978.89	3461.25
979.113	3480.25
979.337	3478.25
979.56	3407.25
979.783	3531.25
980.007	3361.25
980.23	3394.25
980.453	3386.25
980.677	3374.25
980.9	3354.25
981.123	3270.25
981.346	3363.25
981.569	3301.25
981.792	3342.25
982.015	3269.25
982.238	3218.25
982.461	3253.25
982.684	3193.25
982.907	3158.25
983.129	3131.25
983.352	3164.25
983.575	3145.25
983.797	3137.25
984.02	3107.25
984.242	3117.25
984.465	3091.25
984.687	3095.25
984.91	3106.25
985.132	3054.25
985.354	3064.25
985.577	3065.25
985.799	3022.25
986.021	2957.25
986.243	2940.25
986.465	2958.25
986.687	2988.25
986.909	3029.25
987.131	2938.25
987.353	2922.25
987.575	2962.25
987.797	2901.25
988.019	2833.25
988.241	2924.25
988.462	2850.25
988.684	2870.25
988.906	2922.25
989.127	2906.25
989.349	2804.25
989.57	2828.25
989.792	2846.25
990.013	2883.25
990.234	2879.25
990.456	2869.25
990.677	2851.25
990.898	2758.25
991.119	2771.25
991.341	2806.25
991.562	2678.25
991.783	2721.25
992.004	2670.25
992.225	2617.25
992.446	2696.25
992.667	2611.25
992.887	2672.25
993.108	2559.25
993.329	2688.25
993.55	2623.25
993.77	2516.25
993.991	2564.25
994.212	2580.25
994.432	2546.25
994.653	2533.25
994.873	2516.25
995.093	2446.25
995.314	2457.25
995.534	2501.25
995.754	2534.25
995.975	2552.25
996.195	2412.25
996.415	2509.25
996.635	2445.25
996.855	2477.25
997.075	2442.25
997.295	2426.25
997.515	2408.25
997.735	2468.25
997.955	2427.25
998.174	2418.25
998.394	2343.25
998.614	2418.25
998.834	2347.25
999.053	2448.25
999.273	2375.25
999.492	2424.25
999.712	2393.25
999.931	2306.25
1000.151	2369.25
1000.37	2334.25
1000.589	2360.25
1000.809	2293.25
1001.028	2371.25
1001.247	2303.25
1001.466	2200.25
1001.685	2327.25
1001.904	2259.25
1002.123	2260.25
1002.342	2240.25
1002.561	2221.25
1002.78	2229.25
1002.999	2274.25
1003.218	2213.25
1003.436	2166.25
1003.655	2215.25
1003.874	2124.25
1004.092	2153.25
1004.311	2192.25
1004.53	2174.25
1004.748	2214.25
1004.966	2136.25
1005.185	2193.25
1005.403	2164.25
1005.622	2163.25
1005.84	2202.25
1006.058	2105.25
1006.276	2121.25
1006.494	2587.25
1006.712	2121.25
1006.931	2184.25
1007.149	2085.25
1007.367	2119.25
1007.584	2107.25
1007.802	2189.25
1008.02	2109.25
1008.238	2233.25
1008.456	2191.25
1008.673	2087.25
1008.891	2178.25
1009.109	2120.25
1009.326	2182.25
1009.544	2296.25
1009.761	2225.25
1009.979	2326.25
1010.196	2314.25
1010.413	2442.25
1010.631	2527.25
1010.848	2539.25
1011.065	2611.25
1011.282	2556.25
1011.5	2450.25
1011.717	2576.25
1011.934	2501.25
1012.151	2524.25
1012.368	2508.25
1012.585	2428.25
1012.801	2488.25
1013.018	2470.25
1013.235	2452.25
1013.452	2434.25
1013.669	2467.25
1013.885	2481.25
1014.102	2532.25
1014.318	2484.25
1014.535	2385.25
1014.751	2446.25
1014.968	2415.25
1015.184	2456.25
1015.401	2318.25
1015.617	2380.25
1015.833	2292.25
1016.049	2325.25
1016.266	2272.25
1016.482	2244.25
1016.698	2227.25
1016.914	2230.25
1017.13	2172.25
1017.346	2165.25
1017.562	2240.25
1017.778	2143.25
1017.993	2122.25
1018.209	2192.25
1018.425	2169.25
1018.641	2125.25
1018.856	2076.25
1019.072	2146.25
1019.288	2170.25
1019.503	2139.25
1019.719	2046.25
1019.934	2034.25
1020.149	2112.25
1020.365	2066.25
1020.58	2000.25
1020.795	2044.25
1021.011	1916.25
1021.226	1923.25
1021.441	1921.25
1021.656	1820.25
1021.871	1727.25
1022.086	1746.25
1022.301	1702.25
1022.516	1710.25
1022.731	1700.25
1022.946	1644.25
1023.16	1618.25
1023.375	1569.25
1023.59	1561.25
1023.804	1529.25
1024.019	1610.25
1024.234	1462.25
1024.448	1483.25
1024.663	1410.25
1024.877	1414.25
1025.092	1438.25
1025.306	1394.25
1025.52	1304.25
1025.734	1370.25
1025.949	1295.25
1026.163	1261.25
1026.377	1191.25
1026.591	1232.25
1026.805	1140.25
1027.019	1148.25
1027.233	1100.25
1027.447	1030.25
1027.661	1150.25
1027.875	1089.25
1028.088	1058.25
1028.302	1008.25
1028.516	980.25
1028.73	961.25
1028.943	963.25
1029.157	872.25
1029.37	835.25
1029.584	-6.75
1029.797	-0.75
1030.011	-0.75
1030.224	-0.75
