Data from QEP037381__351__16-28-19-916.txt Node

Date: Fri Dec 16 16:28:19 EST 2022
User: dcclab
Spectrometer: QEP03738
Trigger mode: 4
Integration Time (sec): 1.000000E1
Scans to average: 1
Electric dark correction enabled: true
Nonlinearity correction enabled: false
Boxcar width: 0
XAxis mode: Wavelengths
Number of Pixels in Spectrum: 1044
>>>>>Begin Spectral Data<<<<<
784.041	9.88
784.3	0.88
784.558	-3.12
784.817	0.88
785.075	108073.88
785.334	19023.88
785.592	8996.88
785.851	6240.88
786.109	4745.88
786.368	3665.88
786.626	2967.88
786.884	2462.88
787.143	2060.88
787.401	1717.88
787.659	1542.88
787.917	1348.88
788.175	1197.88
788.433	1041.88
788.691	931.88
788.949	872.88
789.207	817.88
789.465	695.88
789.723	679.88
789.98	628.88
790.238	673.88
790.496	616.88
790.753	592.88
791.011	632.88
791.268	570.88
791.526	559.88
791.783	566.88
792.041	541.88
792.298	447.88
792.556	519.88
792.813	495.88
793.07	491.88
793.327	478.88
793.584	529.88
793.841	458.88
794.099	492.88
794.356	543.88
794.613	447.88
794.869	471.88
795.126	450.88
795.383	434.88
795.64	455.88
795.897	405.88
796.153	454.88
796.41	454.88
796.667	435.88
796.923	451.88
797.18	436.88
797.436	458.88
797.693	435.88
797.949	480.88
798.206	516.88
798.462	440.88
798.718	491.88
798.974	474.88
799.231	505.88
799.487	510.88
799.743	494.88
799.999	522.88
800.255	521.88
800.511	515.88
800.767	563.88
801.023	570.88
801.279	597.88
801.534	641.88
801.79	683.88
802.046	728.88
802.302	893.88
802.557	999.88
802.813	1236.88
803.068	1548.88
803.324	2176.88
803.579	2970.88
803.835	4065.88
804.09	5628.88
804.345	7263.88
804.601	9220.88
804.856	11135.88
805.111	12920.88
805.366	14257.88
805.621	15300.88
805.876	16005.88
806.131	16466.88
806.386	16781.88
806.641	17067.88
806.896	17332.88
807.151	17707.88
807.406	17931.88
807.661	18236.88
807.915	18642.88
808.17	18795.88
808.425	19035.88
808.679	19202.88
808.934	19445.88
809.188	19617.88
809.443	19910.88
809.697	20025.88
809.951	20229.88
810.206	20427.88
810.46	20641.88
810.714	20648.88
810.968	20928.88
811.223	21074.88
811.477	21346.88
811.731	21470.88
811.985	21573.88
812.239	21613.88
812.493	21801.88
812.747	21808.88
813	21873.88
813.254	22016.88
813.508	22175.88
813.762	22140.88
814.015	22306.88
814.269	22332.88
814.522	22671.88
814.776	22919.88
815.03	23112.88
815.283	23502.88
815.536	23859.88
815.79	24317.88
816.043	24632.88
816.296	24909.88
816.55	25183.88
816.803	25519.88
817.056	25874.88
817.309	25983.88
817.562	26203.88
817.815	26552.88
818.068	26670.88
818.321	27000.88
818.574	27320.88
818.827	27725.88
819.079	27935.88
819.332	28591.88
819.585	28816.88
819.838	29153.88
820.09	29265.88
820.343	29612.88
820.595	29608.88
820.848	29818.88
821.1	29869.88
821.353	29990.88
821.605	29968.88
821.857	29971.88
822.11	29824.88
822.362	29740.88
822.614	29687.88
822.866	29752.88
823.118	29709.88
823.37	29841.88
823.622	29896.88
823.874	29978.88
824.126	30102.88
824.378	30160.88
824.63	30121.88
824.882	30248.88
825.134	30151.88
825.385	30137.88
825.637	30077.88
825.888	30069.88
826.14	30020.88
826.392	29950.88
826.643	29645.88
826.895	29616.88
827.146	29568.88
827.397	29406.88
827.649	29431.88
827.9	29476.88
828.151	29450.88
828.402	29581.88
828.653	29622.88
828.905	29728.88
829.156	29778.88
829.407	29616.88
829.658	29712.88
829.909	29770.88
830.159	29775.88
830.41	29634.88
830.661	29472.88
830.912	29293.88
831.162	29038.88
831.413	29097.88
831.664	29042.88
831.914	29024.88
832.165	28974.88
832.415	29001.88
832.666	29082.88
832.916	29006.88
833.167	29010.88
833.417	29024.88
833.667	28918.88
833.917	28853.88
834.168	28783.88
834.418	28678.88
834.668	28659.88
834.918	28489.88
835.168	28395.88
835.418	28107.88
835.668	28084.88
835.918	28090.88
836.167	27903.88
836.417	27838.88
836.667	27856.88
836.917	27866.88
837.166	27732.88
837.416	27802.88
837.666	27840.88
837.915	27772.88
838.165	27662.88
838.414	27682.88
838.663	27555.88
838.913	27542.88
839.162	27499.88
839.411	27584.88
839.661	27360.88
839.91	27323.88
840.159	27200.88
840.408	27264.88
840.657	27198.88
840.906	27245.88
841.155	27370.88
841.404	27112.88
841.653	27326.88
841.902	27201.88
842.15	27330.88
842.399	27259.88
842.648	27185.88
842.897	27157.88
843.145	27028.88
843.394	26794.88
843.642	26550.88
843.891	26543.88
844.139	26311.88
844.388	26218.88
844.636	26138.88
844.884	26122.88
845.133	26085.88
845.381	26033.88
845.629	26046.88
845.877	26054.88
846.125	26107.88
846.373	25889.88
846.621	25842.88
846.869	25828.88
847.117	25578.88
847.365	25436.88
847.613	25470.88
847.861	25316.88
848.108	25223.88
848.356	25197.88
848.604	25096.88
848.851	25097.88
849.099	25212.88
849.346	25220.88
849.594	25405.88
849.841	25427.88
850.089	25357.88
850.336	25440.88
850.583	25398.88
850.831	25299.88
851.078	25167.88
851.325	25219.88
851.572	25360.88
851.819	25060.88
852.066	24621.88
852.313	24220.88
852.56	24009.88
852.807	23921.88
853.054	23834.88
853.301	23873.88
853.548	23761.88
853.794	23899.88
854.041	23922.88
854.288	24181.88
854.534	24286.88
854.781	24216.88
855.028	24088.88
855.274	24132.88
855.52	23918.88
855.767	23925.88
856.013	23900.88
856.26	24188.88
856.506	23666.88
856.752	23644.88
856.998	23621.88
857.244	23755.88
857.49	23904.88
857.736	23835.88
857.982	23878.88
858.228	23777.88
858.474	23575.88
858.72	23424.88
858.966	23217.88
859.212	23010.88
859.458	22800.88
859.703	22541.88
859.949	22254.88
860.195	22174.88
860.44	22126.88
860.686	21962.88
860.931	22110.88
861.177	21804.88
861.422	21672.88
861.667	21687.88
861.913	21743.88
862.158	21651.88
862.403	21688.88
862.648	21755.88
862.893	21822.88
863.138	21765.88
863.384	21736.88
863.629	21679.88
863.873	21603.88
864.118	21575.88
864.363	21481.88
864.608	21450.88
864.853	21278.88
865.098	21279.88
865.342	21203.88
865.587	21041.88
865.832	20983.88
866.076	21037.88
866.321	21007.88
866.565	20928.88
866.81	20695.88
867.054	20683.88
867.298	20732.88
867.543	20668.88
867.787	20633.88
868.031	20505.88
868.275	20516.88
868.519	20487.88
868.764	20389.88
869.008	20322.88
869.252	20411.88
869.496	20288.88
869.739	20234.88
869.983	20213.88
870.227	20195.88
870.471	20211.88
870.715	20273.88
870.958	20300.88
871.202	20375.88
871.446	20396.88
871.689	20417.88
871.933	20475.88
872.176	20329.88
872.42	20332.88
872.663	20308.88
872.906	20245.88
873.15	20150.88
873.393	20121.88
873.636	20053.88
873.879	19803.88
874.122	19670.88
874.366	19470.88
874.609	19215.88
874.852	19085.88
875.095	18971.88
875.337	18993.88
875.58	18696.88
875.823	18821.88
876.066	18764.88
876.309	18793.88
876.551	18497.88
876.794	18584.88
877.037	18558.88
877.279	18298.88
877.522	18392.88
877.764	18351.88
878.007	18231.88
878.249	18295.88
878.491	18130.88
878.734	18122.88
878.976	18119.88
879.218	17949.88
879.46	17891.88
879.702	17784.88
879.945	17569.88
880.187	17454.88
880.429	17394.88
880.671	17319.88
880.912	17220.88
881.154	17308.88
881.396	17137.88
881.638	17162.88
881.88	17245.88
882.121	17135.88
882.363	17084.88
882.605	17034.88
882.846	17032.88
883.088	17019.88
883.329	16969.88
883.571	17023.88
883.812	17048.88
884.053	17362.88
884.295	17544.88
884.536	17848.88
884.777	17663.88
885.018	17617.88
885.259	17587.88
885.5	17451.88
885.742	17643.88
885.982	17326.88
886.223	17228.88
886.464	17118.88
886.705	17019.88
886.946	16711.88
887.187	16493.88
887.428	16364.88
887.668	16079.88
887.909	15828.88
888.15	15644.88
888.39	15704.88
888.631	15484.88
888.871	15468.88
889.111	15269.88
889.352	15148.88
889.592	15008.88
889.833	14842.88
890.073	14860.88
890.313	14741.88
890.553	14617.88
890.793	14559.88
891.033	14553.88
891.273	14396.88
891.513	14335.88
891.753	14418.88
891.993	14317.88
892.233	14413.88
892.473	14403.88
892.713	14468.88
892.952	14335.88
893.192	14349.88
893.432	14377.88
893.671	14399.88
893.911	14228.88
894.15	14210.88
894.39	14080.88
894.629	14046.88
894.869	13892.88
895.108	13845.88
895.347	13776.88
895.587	13741.88
895.826	13695.88
896.065	13763.88
896.304	13765.88
896.543	13760.88
896.782	13605.88
897.021	13678.88
897.26	13612.88
897.499	13625.88
897.738	13612.88
897.977	13412.88
898.216	13387.88
898.454	13193.88
898.693	13228.88
898.932	13184.88
899.17	13056.88
899.409	13066.88
899.647	12968.88
899.886	12954.88
900.124	13004.88
900.363	12911.88
900.601	12943.88
900.839	12999.88
901.078	13024.88
901.316	13153.88
901.554	13266.88
901.792	13258.88
902.03	13199.88
902.268	13216.88
902.506	13281.88
902.744	13113.88
902.982	13018.88
903.22	12727.88
903.458	12543.88
903.695	12484.88
903.933	12338.88
904.171	12058.88
904.409	11853.88
904.646	11723.88
904.884	11502.88
905.121	11430.88
905.359	11302.88
905.596	11148.88
905.833	10971.88
906.071	11017.88
906.308	11059.88
906.545	10908.88
906.783	10884.88
907.02	10837.88
907.257	10771.88
907.494	10817.88
907.731	10838.88
907.968	10663.88
908.205	10649.88
908.442	10544.88
908.679	10499.88
908.915	10377.88
909.152	10352.88
909.389	10170.88
909.626	10185.88
909.862	10075.88
910.099	10081.88
910.335	10041.88
910.572	9939.88
910.808	9959.88
911.045	9900.88
911.281	9830.88
911.518	9891.88
911.754	9709.88
911.99	9745.88
912.226	9636.88
912.463	9543.88
912.699	9484.88
912.935	9420.88
913.171	9358.88
913.407	9223.88
913.643	9218.88
913.879	9133.88
914.114	9038.88
914.35	8976.88
914.586	8916.88
914.822	8730.88
915.057	8824.88
915.293	8660.88
915.529	8640.88
915.764	8619.88
916	8599.88
916.235	8574.88
916.471	8602.88
916.706	8516.88
916.941	8479.88
917.177	8508.88
917.412	8530.88
917.647	8464.88
917.882	8435.88
918.117	8489.88
918.352	8391.88
918.588	8469.88
918.823	8282.88
919.057	8179.88
919.292	8029.88
919.527	8112.88
919.762	7960.88
919.997	7944.88
920.232	7892.88
920.466	7773.88
920.701	7641.88
920.935	7639.88
921.17	7600.88
921.405	7609.88
921.639	7547.88
921.873	7502.88
922.108	7509.88
922.342	7442.88
922.576	7422.88
922.811	7361.88
923.045	7402.88
923.279	7378.88
923.513	7219.88
923.747	7322.88
923.981	7224.88
924.215	7123.88
924.449	7135.88
924.683	7010.88
924.917	6984.88
925.151	6992.88
925.385	6977.88
925.618	6991.88
925.852	6932.88
926.086	6848.88
926.319	6876.88
926.553	6908.88
926.786	6906.88
927.02	6845.88
927.253	6894.88
927.486	6910.88
927.72	6780.88
927.953	6829.88
928.186	6700.88
928.42	6817.88
928.653	6721.88
928.886	6670.88
929.119	6681.88
929.352	6673.88
929.585	6590.88
929.818	6518.88
930.051	6490.88
930.284	6493.88
930.516	6299.88
930.749	6329.88
930.982	6372.88
931.215	6311.88
931.447	6175.88
931.68	6233.88
931.912	6148.88
932.145	6195.88
932.377	6186.88
932.61	6341.88
932.842	6092.88
933.074	6209.88
933.307	6148.88
933.539	6225.88
933.771	6246.88
934.003	6175.88
934.236	6233.88
934.468	6185.88
934.7	6089.88
934.932	6096.88
935.164	6116.88
935.395	6050.88
935.627	6085.88
935.859	6032.88
936.091	5967.88
936.323	5988.88
936.554	6038.88
936.786	5990.88
937.017	5831.88
937.249	5898.88
937.481	5803.88
937.712	5831.88
937.943	5860.88
938.175	5818.88
938.406	5820.88
938.637	5858.88
938.869	5756.88
939.1	5778.88
939.331	5780.88
939.562	5733.88
939.793	5712.88
940.024	5743.88
940.255	5703.88
940.486	5621.88
940.717	5638.88
940.948	5603.88
941.179	5564.88
941.409	5586.88
941.64	5514.88
941.871	5511.88
942.102	5494.88
942.332	5507.88
942.563	5534.88
942.793	5468.88
943.024	5448.88
943.254	5485.88
943.484	5565.88
943.715	5475.88
943.945	5507.88
944.175	5444.88
944.405	5446.88
944.636	5414.88
944.866	5485.88
945.096	5446.88
945.326	5340.88
945.556	5405.88
945.786	5392.88
946.016	5313.88
946.245	5272.88
946.475	5226.88
946.705	5256.88
946.935	5196.88
947.164	5207.88
947.394	5117.88
947.624	5166.88
947.853	5173.88
948.083	5063.88
948.312	5074.88
948.542	5002.88
948.771	4946.88
949	4947.88
949.23	4968.88
949.459	5018.88
949.688	5039.88
949.917	4991.88
950.146	4949.88
950.375	5021.88
950.604	4882.88
950.833	4965.88
951.062	4901.88
951.291	4894.88
951.52	4792.88
951.749	4872.88
951.978	4792.88
952.206	4808.88
952.435	4797.88
952.664	4834.88
952.892	4821.88
953.121	4769.88
953.349	4797.88
953.578	4807.88
953.806	4699.88
954.035	4632.88
954.263	4659.88
954.491	4580.88
954.719	4624.88
954.948	4624.88
955.176	4536.88
955.404	4470.88
955.632	4557.88
955.86	4550.88
956.088	4502.88
956.316	4427.88
956.544	4488.88
956.772	4409.88
956.999	4340.88
957.227	4456.88
957.455	4342.88
957.683	4372.88
957.91	4256.88
958.138	4300.88
958.365	4226.88
958.593	4221.88
958.82	4101.88
959.048	4248.88
959.275	4198.88
959.502	4171.88
959.73	4145.88
959.957	4156.88
960.184	4181.88
960.411	4130.88
960.638	4209.88
960.865	4064.88
961.092	4161.88
961.319	4075.88
961.546	4144.88
961.773	4126.88
962	4092.88
962.227	4136.88
962.454	4082.88
962.68	4082.88
962.907	4039.88
963.134	3967.88
963.36	3981.88
963.587	3972.88
963.813	3905.88
964.04	3938.88
964.266	3854.88
964.493	3926.88
964.719	3866.88
964.945	3882.88
965.171	3774.88
965.398	3811.88
965.624	3819.88
965.85	3750.88
966.076	3738.88
966.302	3747.88
966.528	3709.88
966.754	3740.88
966.98	3725.88
967.206	3715.88
967.431	3609.88
967.657	3675.88
967.883	3665.88
968.109	3649.88
968.334	3589.88
968.56	3561.88
968.785	3625.88
969.011	3509.88
969.236	3586.88
969.462	3535.88
969.687	3540.88
969.912	3571.88
970.138	3569.88
970.363	3482.88
970.588	3455.88
970.813	3460.88
971.038	3391.88
971.263	3465.88
971.488	3481.88
971.713	3458.88
971.938	3461.88
972.163	3326.88
972.388	3385.88
972.613	3325.88
972.838	3356.88
973.062	3338.88
973.287	3328.88
973.512	3255.88
973.736	3303.88
973.961	3281.88
974.185	3253.88
974.41	3261.88
974.634	3146.88
974.858	3171.88
975.083	3211.88
975.307	3170.88
975.531	3135.88
975.755	3056.88
975.98	3095.88
976.204	3014.88
976.428	3014.88
976.652	2973.88
976.876	2976.88
977.1	3003.88
977.324	2980.88
977.547	3040.88
977.771	2984.88
977.995	2991.88
978.219	2907.88
978.442	2995.88
978.666	2954.88
978.89	2927.88
979.113	2962.88
979.337	2903.88
979.56	2888.88
979.783	2962.88
980.007	2837.88
980.23	2883.88
980.453	2778.88
980.677	2882.88
980.9	2854.88
981.123	2725.88
981.346	2874.88
981.569	2816.88
981.792	2809.88
982.015	2762.88
982.238	2714.88
982.461	2719.88
982.684	2717.88
982.907	2646.88
983.129	2666.88
983.352	2724.88
983.575	2678.88
983.797	2649.88
984.02	2590.88
984.242	2599.88
984.465	2639.88
984.687	2636.88
984.91	2620.88
985.132	2617.88
985.354	2607.88
985.577	2598.88
985.799	2541.88
986.021	2471.88
986.243	2512.88
986.465	2519.88
986.687	2554.88
986.909	2599.88
987.131	2509.88
987.353	2486.88
987.575	2482.88
987.797	2481.88
988.019	2410.88
988.241	2447.88
988.462	2390.88
988.684	2475.88
988.906	2506.88
989.127	2505.88
989.349	2396.88
989.57	2424.88
989.792	2415.88
990.013	2466.88
990.234	2410.88
990.456	2458.88
990.677	2407.88
990.898	2370.88
991.119	2367.88
991.341	2390.88
991.562	2286.88
991.783	2378.88
992.004	2284.88
992.225	2262.88
992.446	2322.88
992.667	2209.88
992.887	2296.88
993.108	2179.88
993.329	2300.88
993.55	2244.88
993.77	2177.88
993.991	2140.88
994.212	2213.88
994.432	2165.88
994.653	2199.88
994.873	2171.88
995.093	2098.88
995.314	2100.88
995.534	2179.88
995.754	2185.88
995.975	2242.88
996.195	2081.88
996.415	2144.88
996.635	2113.88
996.855	2135.88
997.075	2098.88
997.295	2127.88
997.515	2054.88
997.735	2141.88
997.955	2076.88
998.174	2094.88
998.394	2033.88
998.614	2096.88
998.834	2056.88
999.053	2105.88
999.273	2080.88
999.492	2131.88
999.712	2052.88
999.931	1994.88
1000.151	2035.88
1000.37	2005.88
1000.589	2065.88
1000.809	1976.88
1001.028	2082.88
1001.247	2012.88
1001.466	1919.88
1001.685	2027.88
1001.904	2031.88
1002.123	1957.88
1002.342	1951.88
1002.561	1890.88
1002.78	1960.88
1002.999	1998.88
1003.218	1927.88
1003.436	1882.88
1003.655	1976.88
1003.874	1903.88
1004.092	1900.88
1004.311	1949.88
1004.53	1903.88
1004.748	1962.88
1004.966	1884.88
1005.185	1970.88
1005.403	1959.88
1005.622	1895.88
1005.84	1973.88
1006.058	1868.88
1006.276	1870.88
1006.494	2377.88
1006.712	1885.88
1006.931	1962.88
1007.149	1867.88
1007.367	1843.88
1007.584	1894.88
1007.802	1942.88
1008.02	1869.88
1008.238	1969.88
1008.456	1972.88
1008.673	1814.88
1008.891	1938.88
1009.109	1906.88
1009.326	1954.88
1009.544	2053.88
1009.761	1990.88
1009.979	2064.88
1010.196	2106.88
1010.413	2213.88
1010.631	2280.88
1010.848	2335.88
1011.065	2361.88
1011.282	2262.88
1011.5	2224.88
1011.717	2298.88
1011.934	2245.88
1012.151	2293.88
1012.368	2248.88
1012.585	2215.88
1012.801	2296.88
1013.018	2238.88
1013.235	2188.88
1013.452	2253.88
1013.669	2230.88
1013.885	2219.88
1014.102	2245.88
1014.318	2210.88
1014.535	2217.88
1014.751	2193.88
1014.968	2211.88
1015.184	2237.88
1015.401	2153.88
1015.617	2166.88
1015.833	2111.88
1016.049	2117.88
1016.266	2103.88
1016.482	2102.88
1016.698	2016.88
1016.914	2075.88
1017.13	1983.88
1017.346	1986.88
1017.562	2031.88
1017.778	2000.88
1017.993	1985.88
1018.209	1991.88
1018.425	1985.88
1018.641	1956.88
1018.856	1941.88
1019.072	1956.88
1019.288	2004.88
1019.503	1945.88
1019.719	1845.88
1019.934	1870.88
1020.149	1940.88
1020.365	1872.88
1020.58	1835.88
1020.795	1888.88
1021.011	1789.88
1021.226	1763.88
1021.441	1759.88
1021.656	1663.88
1021.871	1594.88
1022.086	1604.88
1022.301	1550.88
1022.516	1545.88
1022.731	1601.88
1022.946	1521.88
1023.16	1484.88
1023.375	1465.88
1023.59	1421.88
1023.804	1392.88
1024.019	1477.88
1024.234	1323.88
1024.448	1367.88
1024.663	1274.88
1024.877	1298.88
1025.092	1328.88
1025.306	1289.88
1025.52	1193.88
1025.734	1275.88
1025.949	1190.88
1026.163	1147.88
1026.377	1077.88
1026.591	1119.88
1026.805	1065.88
1027.019	1047.88
1027.233	987.88
1027.447	943.88
1027.661	1056.88
1027.875	985.88
1028.088	992.88
1028.302	917.88
1028.516	875.88
1028.73	885.88
1028.943	867.88
1029.157	808.88
1029.37	776.88
1029.584	-0.12
1029.797	-4.12
1030.011	-2.12
1030.224	-2.12
