Data from QEP037381__245__16-10-39-902.txt Node

Date: Fri Dec 16 16:10:39 EST 2022
User: dcclab
Spectrometer: QEP03738
Trigger mode: 4
Integration Time (sec): 1.000000E1
Scans to average: 1
Electric dark correction enabled: true
Nonlinearity correction enabled: false
Boxcar width: 0
XAxis mode: Wavelengths
Number of Pixels in Spectrum: 1044
>>>>>Begin Spectral Data<<<<<
784.041	11.88
784.3	0.88
784.558	-2.12
784.817	-2.12
785.075	110992.88
785.334	19277.88
785.592	9061.88
785.851	6218.88
786.109	4642.88
786.368	3635.88
786.626	2901.88
786.884	2407.88
787.143	2051.88
787.401	1689.88
787.659	1513.88
787.917	1285.88
788.175	1165.88
788.433	1034.88
788.691	935.88
788.949	855.88
789.207	817.88
789.465	731.88
789.723	702.88
789.98	633.88
790.238	691.88
790.496	617.88
790.753	609.88
791.011	658.88
791.268	584.88
791.526	551.88
791.783	570.88
792.041	558.88
792.298	486.88
792.556	539.88
792.813	524.88
793.07	493.88
793.327	484.88
793.584	572.88
793.841	492.88
794.099	514.88
794.356	572.88
794.613	486.88
794.869	503.88
795.126	483.88
795.383	461.88
795.64	475.88
795.897	433.88
796.153	483.88
796.41	464.88
796.667	453.88
796.923	481.88
797.18	473.88
797.436	507.88
797.693	479.88
797.949	500.88
798.206	545.88
798.462	464.88
798.718	541.88
798.974	496.88
799.231	551.88
799.487	554.88
799.743	561.88
799.999	608.88
800.255	594.88
800.511	596.88
800.767	645.88
801.023	635.88
801.279	685.88
801.534	749.88
801.79	823.88
802.046	899.88
802.302	1078.88
802.557	1287.88
802.813	1649.88
803.068	2118.88
803.324	2927.88
803.579	4086.88
803.835	5752.88
804.09	7912.88
804.345	10416.88
804.601	13214.88
804.856	15952.88
805.111	18384.88
805.366	20372.88
805.621	21822.88
805.876	22835.88
806.131	23469.88
806.386	23946.88
806.641	24378.88
806.896	24845.88
807.151	25253.88
807.406	25612.88
807.661	26158.88
807.915	26680.88
808.17	26996.88
808.425	27393.88
808.679	27586.88
808.934	27974.88
809.188	28112.88
809.443	28537.88
809.697	28737.88
809.951	29071.88
810.206	29378.88
810.46	29577.88
810.714	29846.88
810.968	30118.88
811.223	30393.88
811.477	30670.88
811.731	30805.88
811.985	31112.88
812.239	31176.88
812.493	31439.88
812.747	31410.88
813	31651.88
813.254	31811.88
813.508	31871.88
813.762	31941.88
814.015	32192.88
814.269	32387.88
814.522	32791.88
814.776	32917.88
815.03	33576.88
815.283	34011.88
815.536	34523.88
815.79	35191.88
816.043	35502.88
816.296	35866.88
816.55	36525.88
816.803	36791.88
817.056	37315.88
817.309	37589.88
817.562	38155.88
817.815	38417.88
818.068	38751.88
818.321	39057.88
818.574	39561.88
818.827	39907.88
819.079	40638.88
819.332	41293.88
819.585	41689.88
819.838	42325.88
820.09	42372.88
820.343	42884.88
820.595	42985.88
820.848	43341.88
821.1	43578.88
821.353	43443.88
821.605	43441.88
821.857	43624.88
822.11	43332.88
822.362	43197.88
822.614	43278.88
822.866	43178.88
823.118	43233.88
823.37	43250.88
823.622	43568.88
823.874	43541.88
824.126	43665.88
824.378	43706.88
824.63	43729.88
824.882	44133.88
825.134	43910.88
825.385	43803.88
825.637	43875.88
825.888	43598.88
826.14	43769.88
826.392	43439.88
826.643	43371.88
826.895	43095.88
827.146	43058.88
827.397	42938.88
827.649	42842.88
827.9	42829.88
828.151	42948.88
828.402	42984.88
828.653	43102.88
828.905	43281.88
829.156	43405.88
829.407	43232.88
829.658	43160.88
829.909	43450.88
830.159	43352.88
830.41	43222.88
830.661	42905.88
830.912	42549.88
831.162	42424.88
831.413	42543.88
831.664	42471.88
831.914	42404.88
832.165	42368.88
832.415	42230.88
832.666	42298.88
832.916	42389.88
833.167	42294.88
833.417	42270.88
833.667	42116.88
833.917	41980.88
834.168	41892.88
834.418	41768.88
834.668	41567.88
834.918	41287.88
835.168	41180.88
835.418	41210.88
835.668	41064.88
835.918	40779.88
836.167	40878.88
836.417	40720.88
836.667	40644.88
836.917	40614.88
837.166	40517.88
837.416	40630.88
837.666	40512.88
837.915	40567.88
838.165	40368.88
838.414	40416.88
838.663	40164.88
838.913	40178.88
839.162	40001.88
839.411	40118.88
839.661	39887.88
839.91	39677.88
840.159	39727.88
840.408	39592.88
840.657	39606.88
840.906	39525.88
841.155	39669.88
841.404	39643.88
841.653	39684.88
841.902	39572.88
842.15	39740.88
842.399	39693.88
842.648	39590.88
842.897	39374.88
843.145	39396.88
843.394	38951.88
843.642	38959.88
843.891	38632.88
844.139	38465.88
844.388	38369.88
844.636	37940.88
844.884	38153.88
845.133	37976.88
845.381	37983.88
845.629	38053.88
845.877	37850.88
846.125	37697.88
846.373	37959.88
846.621	37611.88
846.869	37540.88
847.117	37450.88
847.365	37213.88
847.613	36927.88
847.861	36898.88
848.108	36937.88
848.356	36677.88
848.604	36614.88
848.851	36668.88
849.099	36749.88
849.346	36776.88
849.594	36850.88
849.841	37021.88
850.089	37154.88
850.336	37008.88
850.583	37098.88
850.831	36864.88
851.078	36670.88
851.325	36694.88
851.572	36799.88
851.819	36449.88
852.066	35788.88
852.313	35475.88
852.56	35157.88
852.807	35009.88
853.054	34772.88
853.301	34871.88
853.548	34713.88
853.794	34841.88
854.041	34902.88
854.288	35183.88
854.534	35448.88
854.781	35356.88
855.028	35238.88
855.274	35197.88
855.52	34948.88
855.767	34823.88
856.013	34920.88
856.26	35080.88
856.506	34590.88
856.752	34445.88
856.998	34382.88
857.244	34478.88
857.49	34743.88
857.736	34765.88
857.982	34744.88
858.228	34691.88
858.474	34478.88
858.72	34123.88
858.966	33941.88
859.212	33680.88
859.458	33193.88
859.703	32897.88
859.949	32560.88
860.195	32332.88
860.44	32131.88
860.686	32037.88
860.931	32171.88
861.177	31815.88
861.422	31722.88
861.667	31821.88
861.913	31671.88
862.158	31866.88
862.403	31848.88
862.648	31760.88
862.893	31869.88
863.138	31891.88
863.384	31769.88
863.629	31749.88
863.873	31711.88
864.118	31647.88
864.363	31461.88
864.608	31297.88
864.853	31077.88
865.098	31026.88
865.342	30910.88
865.587	30789.88
865.832	30842.88
866.076	30628.88
866.321	30617.88
866.565	30457.88
866.81	30349.88
867.054	30351.88
867.298	30237.88
867.543	30110.88
867.787	30123.88
868.031	29947.88
868.275	29914.88
868.519	29769.88
868.764	29732.88
869.008	29670.88
869.252	29739.88
869.496	29592.88
869.739	29553.88
869.983	29536.88
870.227	29395.88
870.471	29416.88
870.715	29534.88
870.958	29604.88
871.202	29566.88
871.446	29640.88
871.689	29577.88
871.933	29667.88
872.176	29709.88
872.42	29522.88
872.663	29496.88
872.906	29439.88
873.15	29286.88
873.393	29053.88
873.636	29177.88
873.879	28849.88
874.122	28588.88
874.366	28155.88
874.609	27994.88
874.852	27726.88
875.095	27685.88
875.337	27548.88
875.58	27366.88
875.823	27335.88
876.066	27294.88
876.309	27133.88
876.551	27002.88
876.794	26801.88
877.037	26948.88
877.279	26823.88
877.522	26746.88
877.764	26765.88
878.007	26597.88
878.249	26662.88
878.491	26553.88
878.734	26599.88
878.976	26509.88
879.218	26258.88
879.46	26218.88
879.702	26033.88
879.945	25755.88
880.187	25539.88
880.429	25497.88
880.671	25305.88
880.912	25259.88
881.154	25099.88
881.396	24944.88
881.638	25100.88
881.88	25063.88
882.121	24980.88
882.363	24830.88
882.605	24896.88
882.846	24741.88
883.088	24839.88
883.329	24768.88
883.571	24717.88
883.812	24858.88
884.053	25169.88
884.295	25586.88
884.536	25803.88
884.777	25576.88
885.018	25580.88
885.259	25342.88
885.5	25205.88
885.742	25329.88
885.982	25137.88
886.223	24925.88
886.464	24854.88
886.705	24582.88
886.946	24421.88
887.187	24101.88
887.428	23831.88
887.668	23448.88
887.909	23275.88
888.15	22884.88
888.39	22799.88
888.631	22740.88
888.871	22498.88
889.111	22373.88
889.352	22239.88
889.592	21941.88
889.833	21904.88
890.073	21659.88
890.313	21691.88
890.553	21393.88
890.793	21350.88
891.033	21251.88
891.273	21188.88
891.513	21043.88
891.753	21080.88
891.993	21012.88
892.233	21011.88
892.473	21121.88
892.713	21213.88
892.952	21053.88
893.192	21051.88
893.432	20981.88
893.671	20994.88
893.911	20815.88
894.15	20845.88
894.39	20634.88
894.629	20571.88
894.869	20466.88
895.108	20268.88
895.347	20238.88
895.587	20151.88
895.826	20057.88
896.065	20104.88
896.304	19993.88
896.543	20010.88
896.782	19879.88
897.021	19884.88
897.26	19764.88
897.499	19798.88
897.738	19797.88
897.977	19592.88
898.216	19319.88
898.454	19219.88
898.693	19060.88
898.932	19033.88
899.17	19090.88
899.409	18909.88
899.647	18928.88
899.886	18791.88
900.124	18853.88
900.363	18748.88
900.601	18878.88
900.839	18907.88
901.078	18981.88
901.316	18896.88
901.554	18974.88
901.792	19062.88
902.03	19055.88
902.268	19048.88
902.506	19020.88
902.744	18878.88
902.982	18812.88
903.22	18446.88
903.458	18197.88
903.695	18088.88
903.933	17806.88
904.171	17535.88
904.409	17342.88
904.646	17084.88
904.884	16864.88
905.121	16672.88
905.359	16460.88
905.596	16383.88
905.833	16186.88
906.071	16170.88
906.308	16108.88
906.545	16042.88
906.783	15921.88
907.02	15922.88
907.257	15839.88
907.494	15827.88
907.731	15831.88
907.968	15695.88
908.205	15548.88
908.442	15483.88
908.679	15505.88
908.915	15350.88
909.152	15276.88
909.389	15031.88
909.626	14858.88
909.862	14836.88
910.099	14778.88
910.335	14847.88
910.572	14584.88
910.808	14616.88
911.045	14503.88
911.281	14505.88
911.518	14444.88
911.754	14369.88
911.99	14236.88
912.226	14245.88
912.463	14066.88
912.699	13876.88
912.935	13804.88
913.171	13736.88
913.407	13604.88
913.643	13525.88
913.879	13396.88
914.114	13277.88
914.35	13131.88
914.586	13040.88
914.822	12848.88
915.057	12916.88
915.293	12752.88
915.529	12625.88
915.764	12697.88
916	12673.88
916.235	12589.88
916.471	12595.88
916.706	12448.88
916.941	12424.88
917.177	12447.88
917.412	12531.88
917.647	12469.88
917.882	12395.88
918.117	12394.88
918.352	12365.88
918.588	12260.88
918.823	12162.88
919.057	12093.88
919.292	11831.88
919.527	11887.88
919.762	11682.88
919.997	11660.88
920.232	11463.88
920.466	11398.88
920.701	11193.88
920.935	11219.88
921.17	11152.88
921.405	11060.88
921.639	11061.88
921.873	11042.88
922.108	10940.88
922.342	10908.88
922.576	10774.88
922.811	10799.88
923.045	10800.88
923.279	10737.88
923.513	10521.88
923.747	10580.88
923.981	10533.88
924.215	10406.88
924.449	10389.88
924.683	10267.88
924.917	10246.88
925.151	10198.88
925.385	10181.88
925.618	10070.88
925.852	10120.88
926.086	10026.88
926.319	10057.88
926.553	10033.88
926.786	10090.88
927.02	10039.88
927.253	10030.88
927.486	9992.88
927.72	9859.88
927.953	9941.88
928.186	9898.88
928.42	9911.88
928.653	9684.88
928.886	9721.88
929.119	9745.88
929.352	9672.88
929.585	9555.88
929.818	9491.88
930.051	9476.88
930.284	9311.88
930.516	9200.88
930.749	9195.88
930.982	9212.88
931.215	9137.88
931.447	8938.88
931.68	9030.88
931.912	8989.88
932.145	9029.88
932.377	8950.88
932.61	9092.88
932.842	8927.88
933.074	8903.88
933.307	8882.88
933.539	8967.88
933.771	8933.88
934.003	8881.88
934.236	9065.88
934.468	8944.88
934.7	8827.88
934.932	8912.88
935.164	8800.88
935.395	8792.88
935.627	8801.88
935.859	8768.88
936.091	8642.88
936.323	8694.88
936.554	8607.88
936.786	8559.88
937.017	8523.88
937.249	8522.88
937.481	8463.88
937.712	8543.88
937.943	8395.88
938.175	8382.88
938.406	8344.88
938.637	8427.88
938.869	8310.88
939.1	8311.88
939.331	8266.88
939.562	8290.88
939.793	8233.88
940.024	8193.88
940.255	8205.88
940.486	8111.88
940.717	8066.88
940.948	8010.88
941.179	7945.88
941.409	7989.88
941.64	7960.88
941.871	7948.88
942.102	7953.88
942.332	7968.88
942.563	7974.88
942.793	7944.88
943.024	7888.88
943.254	7915.88
943.484	7964.88
943.715	7976.88
943.945	7887.88
944.175	7794.88
944.405	7838.88
944.636	7831.88
944.866	7842.88
945.096	7866.88
945.326	7696.88
945.556	7682.88
945.786	7756.88
946.016	7665.88
946.245	7488.88
946.475	7462.88
946.705	7503.88
946.935	7504.88
947.164	7344.88
947.394	7322.88
947.624	7329.88
947.853	7295.88
948.083	7278.88
948.312	7164.88
948.542	7128.88
948.771	7190.88
949	7112.88
949.23	7043.88
949.459	7092.88
949.688	7153.88
949.917	7090.88
950.146	7062.88
950.375	7174.88
950.604	6956.88
950.833	7090.88
951.062	7004.88
951.291	6991.88
951.52	6930.88
951.749	6915.88
951.978	6888.88
952.206	6899.88
952.435	6886.88
952.664	6881.88
952.892	6873.88
953.121	6795.88
953.349	6803.88
953.578	6718.88
953.806	6642.88
954.035	6604.88
954.263	6655.88
954.491	6526.88
954.719	6616.88
954.948	6507.88
955.176	6513.88
955.404	6400.88
955.632	6398.88
955.86	6461.88
956.088	6371.88
956.316	6399.88
956.544	6386.88
956.772	6293.88
956.999	6251.88
957.227	6276.88
957.455	6174.88
957.683	6158.88
957.91	6063.88
958.138	6022.88
958.365	6025.88
958.593	5997.88
958.82	6007.88
959.048	6010.88
959.275	5974.88
959.502	5962.88
959.73	5841.88
959.957	5913.88
960.184	5862.88
960.411	5802.88
960.638	5848.88
960.865	5819.88
961.092	5853.88
961.319	5755.88
961.546	5847.88
961.773	5890.88
962	5786.88
962.227	5841.88
962.454	5767.88
962.68	5739.88
962.907	5710.88
963.134	5655.88
963.36	5587.88
963.587	5609.88
963.813	5507.88
964.04	5528.88
964.266	5477.88
964.493	5491.88
964.719	5427.88
964.945	5381.88
965.171	5274.88
965.398	5350.88
965.624	5353.88
965.85	5280.88
966.076	5231.88
966.302	5279.88
966.528	5170.88
966.754	5220.88
966.98	5124.88
967.206	5194.88
967.431	5056.88
967.657	5150.88
967.883	5134.88
968.109	5109.88
968.334	5058.88
968.56	5020.88
968.785	5012.88
969.011	5001.88
969.236	4981.88
969.462	4943.88
969.687	4965.88
969.912	4958.88
970.138	4957.88
970.363	4854.88
970.588	4940.88
970.813	4783.88
971.038	4840.88
971.263	4820.88
971.488	4810.88
971.713	4808.88
971.938	4793.88
972.163	4702.88
972.388	4664.88
972.613	4651.88
972.838	4660.88
973.062	4624.88
973.287	4666.88
973.512	4555.88
973.736	4551.88
973.961	4558.88
974.185	4467.88
974.41	4494.88
974.634	4439.88
974.858	4433.88
975.083	4421.88
975.307	4452.88
975.531	4370.88
975.755	4266.88
975.98	4255.88
976.204	4179.88
976.428	4177.88
976.652	4191.88
976.876	4169.88
977.1	4136.88
977.324	4119.88
977.547	4177.88
977.771	4123.88
977.995	4162.88
978.219	4051.88
978.442	4159.88
978.666	4031.88
978.89	4082.88
979.113	4038.88
979.337	3988.88
979.56	3961.88
979.783	4041.88
980.007	3921.88
980.23	3985.88
980.453	3920.88
980.677	3906.88
980.9	3911.88
981.123	3792.88
981.346	3874.88
981.569	3804.88
981.792	3864.88
982.015	3800.88
982.238	3788.88
982.461	3765.88
982.684	3728.88
982.907	3678.88
983.129	3648.88
983.352	3659.88
983.575	3640.88
983.797	3631.88
984.02	3649.88
984.242	3567.88
984.465	3556.88
984.687	3593.88
984.91	3571.88
985.132	3558.88
985.354	3548.88
985.577	3492.88
985.799	3457.88
986.021	3347.88
986.243	3392.88
986.465	3428.88
986.687	3453.88
986.909	3464.88
987.131	3420.88
987.353	3386.88
987.575	3401.88
987.797	3324.88
988.019	3293.88
988.241	3345.88
988.462	3261.88
988.684	3309.88
988.906	3386.88
989.127	3367.88
989.349	3202.88
989.57	3257.88
989.792	3294.88
990.013	3288.88
990.234	3309.88
990.456	3292.88
990.677	3284.88
990.898	3207.88
991.119	3196.88
991.341	3233.88
991.562	3099.88
991.783	3155.88
992.004	3067.88
992.225	3046.88
992.446	3044.88
992.667	2933.88
992.887	3042.88
993.108	2917.88
993.329	3060.88
993.55	2988.88
993.77	2879.88
993.991	2930.88
994.212	2919.88
994.432	2918.88
994.653	2933.88
994.873	2911.88
995.093	2798.88
995.314	2809.88
995.534	2851.88
995.754	2896.88
995.975	2865.88
996.195	2755.88
996.415	2790.88
996.635	2802.88
996.855	2817.88
997.075	2748.88
997.295	2815.88
997.515	2712.88
997.735	2810.88
997.955	2766.88
998.174	2778.88
998.394	2731.88
998.614	2750.88
998.834	2692.88
999.053	2781.88
999.273	2706.88
999.492	2701.88
999.712	2646.88
999.931	2641.88
1000.151	2687.88
1000.37	2632.88
1000.589	2718.88
1000.809	2590.88
1001.028	2663.88
1001.247	2622.88
1001.466	2493.88
1001.685	2639.88
1001.904	2571.88
1002.123	2531.88
1002.342	2533.88
1002.561	2427.88
1002.78	2462.88
1002.999	2583.88
1003.218	2457.88
1003.436	2429.88
1003.655	2470.88
1003.874	2409.88
1004.092	2462.88
1004.311	2467.88
1004.53	2428.88
1004.748	2450.88
1004.966	2404.88
1005.185	2449.88
1005.403	2427.88
1005.622	2374.88
1005.84	2463.88
1006.058	2358.88
1006.276	2402.88
1006.494	2883.88
1006.712	2382.88
1006.931	2453.88
1007.149	2315.88
1007.367	2333.88
1007.584	2375.88
1007.802	2450.88
1008.02	2362.88
1008.238	2441.88
1008.456	2453.88
1008.673	2330.88
1008.891	2408.88
1009.109	2418.88
1009.326	2473.88
1009.544	2586.88
1009.761	2509.88
1009.979	2591.88
1010.196	2649.88
1010.413	2764.88
1010.631	2847.88
1010.848	2897.88
1011.065	2954.88
1011.282	2852.88
1011.5	2791.88
1011.717	2893.88
1011.934	2853.88
1012.151	2845.88
1012.368	2832.88
1012.585	2767.88
1012.801	2821.88
1013.018	2792.88
1013.235	2756.88
1013.452	2773.88
1013.669	2781.88
1013.885	2752.88
1014.102	2789.88
1014.318	2778.88
1014.535	2739.88
1014.751	2773.88
1014.968	2710.88
1015.184	2794.88
1015.401	2658.88
1015.617	2640.88
1015.833	2609.88
1016.049	2599.88
1016.266	2562.88
1016.482	2559.88
1016.698	2495.88
1016.914	2495.88
1017.13	2421.88
1017.346	2422.88
1017.562	2488.88
1017.778	2415.88
1017.993	2382.88
1018.209	2435.88
1018.425	2413.88
1018.641	2368.88
1018.856	2342.88
1019.072	2384.88
1019.288	2423.88
1019.503	2345.88
1019.719	2290.88
1019.934	2277.88
1020.149	2348.88
1020.365	2271.88
1020.58	2216.88
1020.795	2215.88
1021.011	2144.88
1021.226	2117.88
1021.441	2103.88
1021.656	2029.88
1021.871	1958.88
1022.086	1922.88
1022.301	1925.88
1022.516	1860.88
1022.731	1957.88
1022.946	1835.88
1023.16	1778.88
1023.375	1763.88
1023.59	1716.88
1023.804	1683.88
1024.019	1784.88
1024.234	1613.88
1024.448	1636.88
1024.663	1564.88
1024.877	1583.88
1025.092	1555.88
1025.306	1543.88
1025.52	1439.88
1025.734	1526.88
1025.949	1413.88
1026.163	1386.88
1026.377	1317.88
1026.591	1348.88
1026.805	1272.88
1027.019	1255.88
1027.233	1194.88
1027.447	1168.88
1027.661	1281.88
1027.875	1169.88
1028.088	1184.88
1028.302	1090.88
1028.516	1072.88
1028.73	1040.88
1028.943	1028.88
1029.157	953.88
1029.37	914.88
1029.584	-1.12
1029.797	-3.12
1030.011	-2.12
1030.224	-2.12
