Data from QEP037381__288__16-17-49-907.txt Node

Date: Fri Dec 16 16:17:49 EST 2022
User: dcclab
Spectrometer: QEP03738
Trigger mode: 4
Integration Time (sec): 1.000000E1
Scans to average: 1
Electric dark correction enabled: true
Nonlinearity correction enabled: false
Boxcar width: 0
XAxis mode: Wavelengths
Number of Pixels in Spectrum: 1044
>>>>>Begin Spectral Data<<<<<
784.041	9.5
784.3	-1.5
784.558	-2.5
784.817	-4.5
785.075	111332.5
785.334	19256.5
785.592	9114.5
785.851	6207.5
786.109	4684.5
786.368	3645.5
786.626	2948.5
786.884	2455.5
787.143	2059.5
787.401	1703.5
787.659	1536.5
787.917	1340.5
788.175	1203.5
788.433	1058.5
788.691	952.5
788.949	867.5
789.207	836.5
789.465	731.5
789.723	686.5
789.98	634.5
790.238	690.5
790.496	629.5
790.753	614.5
791.011	638.5
791.268	575.5
791.526	554.5
791.783	557.5
792.041	556.5
792.298	468.5
792.556	524.5
792.813	513.5
793.07	493.5
793.327	468.5
793.584	565.5
793.841	473.5
794.099	501.5
794.356	569.5
794.613	468.5
794.869	486.5
795.126	458.5
795.383	440.5
795.64	456.5
795.897	423.5
796.153	483.5
796.41	462.5
796.667	442.5
796.923	445.5
797.18	461.5
797.436	482.5
797.693	441.5
797.949	493.5
798.206	517.5
798.462	450.5
798.718	492.5
798.974	482.5
799.231	535.5
799.487	528.5
799.743	532.5
799.999	572.5
800.255	553.5
800.511	548.5
800.767	603.5
801.023	597.5
801.279	627.5
801.534	690.5
801.79	767.5
802.046	799.5
802.302	970.5
802.557	1121.5
802.813	1387.5
803.068	1785.5
803.324	2481.5
803.579	3396.5
803.835	4753.5
804.09	6568.5
804.345	8568.5
804.601	10803.5
804.856	13107.5
805.111	15178.5
805.366	16628.5
805.621	17895.5
805.876	18743.5
806.131	19324.5
806.386	19645.5
806.641	20020.5
806.896	20425.5
807.151	20814.5
807.406	21060.5
807.661	21519.5
807.915	21876.5
808.17	22215.5
808.425	22533.5
808.679	22670.5
808.934	22976.5
809.188	23131.5
809.443	23435.5
809.697	23727.5
809.951	23881.5
810.206	23945.5
810.46	24235.5
810.714	24469.5
810.968	24709.5
811.223	24914.5
811.477	25176.5
811.731	25409.5
811.985	25593.5
812.239	25586.5
812.493	25758.5
812.747	25831.5
813	25929.5
813.254	26144.5
813.508	26156.5
813.762	26241.5
814.015	26388.5
814.269	26545.5
814.522	26802.5
814.776	27094.5
815.03	27545.5
815.283	27880.5
815.536	28336.5
815.79	28697.5
816.043	29265.5
816.296	29568.5
816.55	29919.5
816.803	30273.5
817.056	30745.5
817.309	30984.5
817.562	31261.5
817.815	31606.5
818.068	31880.5
818.321	32185.5
818.574	32659.5
818.827	33025.5
819.079	33392.5
819.332	34054.5
819.585	34357.5
819.838	34801.5
820.09	35058.5
820.343	35214.5
820.595	35335.5
820.848	35594.5
821.1	35816.5
821.353	35723.5
821.605	35750.5
821.857	35898.5
822.11	35600.5
822.362	35632.5
822.614	35425.5
822.866	35613.5
823.118	35511.5
823.37	35678.5
823.622	35692.5
823.874	35894.5
824.126	36075.5
824.378	36112.5
824.63	36149.5
824.882	36194.5
825.134	36189.5
825.385	36188.5
825.637	36126.5
825.888	36044.5
826.14	35931.5
826.392	35879.5
826.643	35688.5
826.895	35540.5
827.146	35478.5
827.397	35268.5
827.649	35318.5
827.9	35295.5
828.151	35417.5
828.402	35587.5
828.653	35653.5
828.905	35735.5
829.156	35754.5
829.407	35764.5
829.658	35804.5
829.909	35899.5
830.159	35781.5
830.41	35681.5
830.661	35453.5
830.912	35274.5
831.162	35068.5
831.413	35097.5
831.664	35129.5
831.914	34929.5
832.165	35055.5
832.415	34986.5
832.666	35018.5
832.916	34973.5
833.167	35006.5
833.417	34965.5
833.667	34848.5
833.917	34771.5
834.168	34743.5
834.418	34632.5
834.668	34459.5
834.918	34317.5
835.168	34149.5
835.418	33912.5
835.668	33943.5
835.918	33794.5
836.167	33710.5
836.417	33628.5
836.667	33736.5
836.917	33587.5
837.166	33514.5
837.416	33579.5
837.666	33597.5
837.915	33573.5
838.165	33449.5
838.414	33364.5
838.663	33234.5
838.913	33353.5
839.162	33236.5
839.411	33307.5
839.661	33088.5
839.91	32982.5
840.159	32778.5
840.408	32848.5
840.657	32842.5
840.906	32881.5
841.155	33154.5
841.404	32908.5
841.653	32995.5
841.902	32965.5
842.15	32982.5
842.399	33095.5
842.648	32836.5
842.897	32885.5
843.145	32653.5
843.394	32486.5
843.642	32187.5
843.891	32192.5
844.139	31989.5
844.388	31957.5
844.636	31629.5
844.884	31689.5
845.133	31624.5
845.381	31620.5
845.629	31632.5
845.877	31550.5
846.125	31653.5
846.373	31581.5
846.621	31488.5
846.869	31383.5
847.117	31128.5
847.365	30995.5
847.613	30868.5
847.861	30760.5
848.108	30798.5
848.356	30604.5
848.604	30575.5
848.851	30726.5
849.099	30648.5
849.346	30724.5
849.594	30726.5
849.841	30946.5
850.089	30895.5
850.336	30851.5
850.583	30988.5
850.831	30780.5
851.078	30681.5
851.325	30688.5
851.572	30617.5
851.819	30292.5
852.066	29896.5
852.313	29458.5
852.56	29257.5
852.807	29145.5
853.054	28915.5
853.301	28961.5
853.548	29089.5
853.794	29158.5
854.041	29198.5
854.288	29358.5
854.534	29618.5
854.781	29668.5
855.028	29442.5
855.274	29405.5
855.52	29218.5
855.767	29238.5
856.013	29237.5
856.26	29490.5
856.506	28922.5
856.752	28812.5
856.998	28916.5
857.244	28923.5
857.49	29082.5
857.736	29094.5
857.982	29217.5
858.228	28976.5
858.474	28860.5
858.72	28512.5
858.966	28385.5
859.212	28171.5
859.458	27838.5
859.703	27602.5
859.949	27236.5
860.195	27085.5
860.44	26920.5
860.686	26856.5
860.931	26883.5
861.177	26685.5
861.422	26554.5
861.667	26501.5
861.913	26449.5
862.158	26520.5
862.403	26438.5
862.648	26711.5
862.893	26655.5
863.138	26646.5
863.384	26484.5
863.629	26445.5
863.873	26435.5
864.118	26358.5
864.363	26289.5
864.608	26283.5
864.853	26090.5
865.098	25953.5
865.342	25781.5
865.587	25702.5
865.832	25746.5
866.076	25567.5
866.321	25635.5
866.565	25498.5
866.81	25377.5
867.054	25334.5
867.298	25278.5
867.543	25314.5
867.787	25230.5
868.031	25072.5
868.275	25041.5
868.519	25078.5
868.764	25023.5
869.008	24812.5
869.252	24792.5
869.496	24749.5
869.739	24799.5
869.983	24800.5
870.227	24744.5
870.471	24655.5
870.715	24739.5
870.958	24904.5
871.202	24791.5
871.446	24893.5
871.689	24768.5
871.933	24989.5
872.176	24897.5
872.42	24719.5
872.663	24819.5
872.906	24700.5
873.15	24587.5
873.393	24379.5
873.636	24349.5
873.879	24160.5
874.122	24001.5
874.366	23715.5
874.609	23487.5
874.852	23319.5
875.095	23217.5
875.337	23001.5
875.58	22947.5
875.823	22937.5
876.066	22785.5
876.309	22824.5
876.551	22664.5
876.794	22513.5
877.037	22452.5
877.279	22341.5
877.522	22273.5
877.764	22431.5
878.007	22384.5
878.249	22373.5
878.491	22213.5
878.734	22211.5
878.976	22150.5
879.218	22039.5
879.46	21921.5
879.702	21698.5
879.945	21591.5
880.187	21382.5
880.429	21313.5
880.671	21188.5
880.912	21178.5
881.154	20962.5
881.396	20962.5
881.638	20979.5
881.88	20916.5
882.121	20899.5
882.363	20848.5
882.605	20910.5
882.846	20804.5
883.088	20735.5
883.329	20620.5
883.571	20818.5
883.812	20850.5
884.053	21132.5
884.295	21483.5
884.536	21657.5
884.777	21550.5
885.018	21457.5
885.259	21334.5
885.5	21219.5
885.742	21290.5
885.982	21185.5
886.223	21006.5
886.464	20848.5
886.705	20700.5
886.946	20481.5
887.187	20109.5
887.428	20014.5
887.668	19650.5
887.909	19459.5
888.15	19217.5
888.39	19069.5
888.631	19037.5
888.871	18760.5
889.111	18686.5
889.352	18526.5
889.592	18477.5
889.833	18251.5
890.073	18155.5
890.313	18057.5
890.553	17844.5
890.793	17814.5
891.033	17769.5
891.273	17675.5
891.513	17526.5
891.753	17661.5
891.993	17518.5
892.233	17605.5
892.473	17691.5
892.713	17566.5
892.952	17541.5
893.192	17540.5
893.432	17501.5
893.671	17569.5
893.911	17451.5
894.15	17426.5
894.39	17228.5
894.629	17094.5
894.869	16968.5
895.108	16816.5
895.347	16833.5
895.587	16780.5
895.826	16711.5
896.065	16633.5
896.304	16699.5
896.543	16671.5
896.782	16617.5
897.021	16658.5
897.26	16558.5
897.499	16614.5
897.738	16444.5
897.977	16322.5
898.216	16201.5
898.454	16144.5
898.693	15964.5
898.932	16023.5
899.17	15845.5
899.409	15771.5
899.647	15728.5
899.886	15774.5
900.124	15779.5
900.363	15810.5
900.601	15791.5
900.839	15797.5
901.078	15832.5
901.316	15883.5
901.554	15961.5
901.792	16057.5
902.03	15931.5
902.268	15915.5
902.506	15938.5
902.744	15823.5
902.982	15767.5
903.22	15432.5
903.458	15273.5
903.695	15090.5
903.933	14905.5
904.171	14610.5
904.409	14403.5
904.646	14266.5
904.884	14114.5
905.121	13965.5
905.359	13765.5
905.596	13712.5
905.833	13454.5
906.071	13406.5
906.308	13421.5
906.545	13372.5
906.783	13253.5
907.02	13297.5
907.257	13227.5
907.494	13188.5
907.731	13169.5
907.968	13098.5
908.205	12930.5
908.442	12870.5
908.679	12789.5
908.915	12760.5
909.152	12610.5
909.389	12577.5
909.626	12447.5
909.862	12316.5
910.099	12323.5
910.335	12307.5
910.572	12211.5
910.808	12136.5
911.045	12049.5
911.281	11990.5
911.518	12039.5
911.754	11918.5
911.99	11849.5
912.226	11744.5
912.463	11690.5
912.699	11584.5
912.935	11515.5
913.171	11405.5
913.407	11307.5
913.643	11265.5
913.879	11142.5
914.114	11046.5
914.35	10960.5
914.586	10870.5
914.822	10706.5
915.057	10761.5
915.293	10569.5
915.529	10532.5
915.764	10591.5
916	10530.5
916.235	10469.5
916.471	10416.5
916.706	10380.5
916.941	10397.5
917.177	10370.5
917.412	10352.5
917.647	10338.5
917.882	10279.5
918.117	10230.5
918.352	10136.5
918.588	10240.5
918.823	10016.5
919.057	10024.5
919.292	9893.5
919.527	9861.5
919.762	9762.5
919.997	9693.5
920.232	9493.5
920.466	9503.5
920.701	9310.5
920.935	9291.5
921.17	9271.5
921.405	9125.5
921.639	9154.5
921.873	9182.5
922.108	9115.5
922.342	9103.5
922.576	9010.5
922.811	8907.5
923.045	8949.5
923.279	8957.5
923.513	8784.5
923.747	8849.5
923.981	8740.5
924.215	8706.5
924.449	8637.5
924.683	8535.5
924.917	8458.5
925.151	8487.5
925.385	8505.5
925.618	8430.5
925.852	8456.5
926.086	8320.5
926.319	8382.5
926.553	8369.5
926.786	8394.5
927.02	8278.5
927.253	8357.5
927.486	8338.5
927.72	8279.5
927.953	8252.5
928.186	8223.5
928.42	8192.5
928.653	8150.5
928.886	8095.5
929.119	8155.5
929.352	8113.5
929.585	7975.5
929.818	7877.5
930.051	7906.5
930.284	7855.5
930.516	7717.5
930.749	7688.5
930.982	7628.5
931.215	7668.5
931.447	7556.5
931.68	7487.5
931.912	7458.5
932.145	7450.5
932.377	7556.5
932.61	7600.5
932.842	7401.5
933.074	7486.5
933.307	7463.5
933.539	7537.5
933.771	7482.5
934.003	7391.5
934.236	7523.5
934.468	7556.5
934.7	7425.5
934.932	7389.5
935.164	7389.5
935.395	7298.5
935.627	7318.5
935.859	7282.5
936.091	7254.5
936.323	7245.5
936.554	7277.5
936.786	7178.5
937.017	7060.5
937.249	7136.5
937.481	7000.5
937.712	7041.5
937.943	7068.5
938.175	6988.5
938.406	7002.5
938.637	7085.5
938.869	6975.5
939.1	6922.5
939.331	6936.5
939.562	6921.5
939.793	6860.5
940.024	6892.5
940.255	6942.5
940.486	6803.5
940.717	6748.5
940.948	6765.5
941.179	6665.5
941.409	6698.5
941.64	6693.5
941.871	6672.5
942.102	6592.5
942.332	6656.5
942.563	6663.5
942.793	6658.5
943.024	6559.5
943.254	6638.5
943.484	6652.5
943.715	6659.5
943.945	6606.5
944.175	6606.5
944.405	6565.5
944.636	6504.5
944.866	6516.5
945.096	6559.5
945.326	6459.5
945.556	6492.5
945.786	6460.5
946.016	6404.5
946.245	6332.5
946.475	6246.5
946.705	6228.5
946.935	6235.5
947.164	6184.5
947.394	6170.5
947.624	6152.5
947.853	6224.5
948.083	6086.5
948.312	6018.5
948.542	5966.5
948.771	5922.5
949	5956.5
949.23	5977.5
949.459	5939.5
949.688	5981.5
949.917	5974.5
950.146	5947.5
950.375	6027.5
950.604	5873.5
950.833	5957.5
951.062	5940.5
951.291	5859.5
951.52	5874.5
951.749	5820.5
951.978	5796.5
952.206	5785.5
952.435	5767.5
952.664	5769.5
952.892	5809.5
953.121	5726.5
953.349	5662.5
953.578	5714.5
953.806	5554.5
954.035	5552.5
954.263	5593.5
954.491	5472.5
954.719	5555.5
954.948	5470.5
955.176	5456.5
955.404	5379.5
955.632	5423.5
955.86	5396.5
956.088	5342.5
956.316	5336.5
956.544	5345.5
956.772	5273.5
956.999	5260.5
957.227	5299.5
957.455	5208.5
957.683	5200.5
957.91	5139.5
958.138	5098.5
958.365	5109.5
958.593	5025.5
958.82	5044.5
959.048	5022.5
959.275	4986.5
959.502	4985.5
959.73	4975.5
959.957	5024.5
960.184	4982.5
960.411	4875.5
960.638	4963.5
960.865	4920.5
961.092	4967.5
961.319	4852.5
961.546	4947.5
961.773	4875.5
962	4856.5
962.227	4893.5
962.454	4887.5
962.68	4815.5
962.907	4836.5
963.134	4761.5
963.36	4744.5
963.587	4732.5
963.813	4718.5
964.04	4687.5
964.266	4590.5
964.493	4638.5
964.719	4628.5
964.945	4562.5
965.171	4515.5
965.398	4522.5
965.624	4534.5
965.85	4449.5
966.076	4409.5
966.302	4425.5
966.528	4406.5
966.754	4413.5
966.98	4390.5
967.206	4395.5
967.431	4306.5
967.657	4400.5
967.883	4333.5
968.109	4320.5
968.334	4272.5
968.56	4261.5
968.785	4255.5
969.011	4168.5
969.236	4243.5
969.462	4181.5
969.687	4187.5
969.912	4234.5
970.138	4226.5
970.363	4099.5
970.588	4172.5
970.813	4128.5
971.038	4096.5
971.263	4093.5
971.488	4084.5
971.713	4125.5
971.938	4074.5
972.163	4006.5
972.388	3946.5
972.613	3984.5
972.838	3958.5
973.062	3959.5
973.287	3910.5
973.512	3854.5
973.736	3886.5
973.961	3854.5
974.185	3828.5
974.41	3854.5
974.634	3720.5
974.858	3773.5
975.083	3738.5
975.307	3809.5
975.531	3655.5
975.755	3653.5
975.98	3652.5
976.204	3534.5
976.428	3526.5
976.652	3576.5
976.876	3511.5
977.1	3558.5
977.324	3488.5
977.547	3536.5
977.771	3540.5
977.995	3472.5
978.219	3465.5
978.442	3567.5
978.666	3488.5
978.89	3453.5
979.113	3445.5
979.337	3457.5
979.56	3387.5
979.783	3481.5
980.007	3358.5
980.23	3390.5
980.453	3348.5
980.677	3369.5
980.9	3370.5
981.123	3243.5
981.346	3315.5
981.569	3280.5
981.792	3333.5
982.015	3274.5
982.238	3255.5
982.461	3205.5
982.684	3181.5
982.907	3104.5
983.129	3061.5
983.352	3183.5
983.575	3128.5
983.797	3115.5
984.02	3072.5
984.242	3079.5
984.465	3076.5
984.687	3116.5
984.91	3099.5
985.132	3109.5
985.354	3018.5
985.577	3024.5
985.799	3004.5
986.021	2922.5
986.243	2925.5
986.465	2935.5
986.687	2969.5
986.909	2996.5
987.131	2941.5
987.353	2885.5
987.575	2954.5
987.797	2907.5
988.019	2796.5
988.241	2867.5
988.462	2833.5
988.684	2869.5
988.906	2886.5
989.127	2887.5
989.349	2771.5
989.57	2804.5
989.792	2837.5
990.013	2854.5
990.234	2843.5
990.456	2866.5
990.677	2822.5
990.898	2781.5
991.119	2746.5
991.341	2777.5
991.562	2692.5
991.783	2736.5
992.004	2657.5
992.225	2638.5
992.446	2675.5
992.667	2597.5
992.887	2670.5
993.108	2544.5
993.329	2673.5
993.55	2597.5
993.77	2538.5
993.991	2532.5
994.212	2549.5
994.432	2535.5
994.653	2532.5
994.873	2494.5
995.093	2400.5
995.314	2465.5
995.534	2489.5
995.754	2471.5
995.975	2524.5
996.195	2406.5
996.415	2473.5
996.635	2446.5
996.855	2456.5
997.075	2396.5
997.295	2410.5
997.515	2360.5
997.735	2436.5
997.955	2436.5
998.174	2428.5
998.394	2380.5
998.614	2414.5
998.834	2343.5
999.053	2441.5
999.273	2389.5
999.492	2433.5
999.712	2363.5
999.931	2335.5
1000.151	2365.5
1000.37	2333.5
1000.589	2387.5
1000.809	2296.5
1001.028	2394.5
1001.247	2274.5
1001.466	2214.5
1001.685	2333.5
1001.904	2244.5
1002.123	2241.5
1002.342	2209.5
1002.561	2192.5
1002.78	2211.5
1002.999	2287.5
1003.218	2183.5
1003.436	2166.5
1003.655	2173.5
1003.874	2134.5
1004.092	2148.5
1004.311	2191.5
1004.53	2152.5
1004.748	2203.5
1004.966	2118.5
1005.185	2185.5
1005.403	2156.5
1005.622	2134.5
1005.84	2210.5
1006.058	2123.5
1006.276	2135.5
1006.494	2620.5
1006.712	2119.5
1006.931	2178.5
1007.149	2094.5
1007.367	2096.5
1007.584	2116.5
1007.802	2160.5
1008.02	2140.5
1008.238	2227.5
1008.456	2206.5
1008.673	2070.5
1008.891	2210.5
1009.109	2169.5
1009.326	2236.5
1009.544	2312.5
1009.761	2232.5
1009.979	2347.5
1010.196	2373.5
1010.413	2502.5
1010.631	2592.5
1010.848	2644.5
1011.065	2637.5
1011.282	2593.5
1011.5	2552.5
1011.717	2645.5
1011.934	2569.5
1012.151	2591.5
1012.368	2579.5
1012.585	2527.5
1012.801	2585.5
1013.018	2532.5
1013.235	2485.5
1013.452	2537.5
1013.669	2537.5
1013.885	2527.5
1014.102	2575.5
1014.318	2522.5
1014.535	2465.5
1014.751	2552.5
1014.968	2483.5
1015.184	2529.5
1015.401	2405.5
1015.617	2436.5
1015.833	2351.5
1016.049	2375.5
1016.266	2343.5
1016.482	2325.5
1016.698	2263.5
1016.914	2291.5
1017.13	2221.5
1017.346	2219.5
1017.562	2283.5
1017.778	2190.5
1017.993	2207.5
1018.209	2232.5
1018.425	2228.5
1018.641	2149.5
1018.856	2119.5
1019.072	2197.5
1019.288	2241.5
1019.503	2170.5
1019.719	2093.5
1019.934	2116.5
1020.149	2166.5
1020.365	2106.5
1020.58	2028.5
1020.795	2059.5
1021.011	1983.5
1021.226	1941.5
1021.441	1956.5
1021.656	1820.5
1021.871	1800.5
1022.086	1781.5
1022.301	1730.5
1022.516	1725.5
1022.731	1749.5
1022.946	1698.5
1023.16	1682.5
1023.375	1593.5
1023.59	1581.5
1023.804	1516.5
1024.019	1613.5
1024.234	1479.5
1024.448	1485.5
1024.663	1416.5
1024.877	1431.5
1025.092	1436.5
1025.306	1420.5
1025.52	1298.5
1025.734	1386.5
1025.949	1293.5
1026.163	1273.5
1026.377	1194.5
1026.591	1228.5
1026.805	1161.5
1027.019	1139.5
1027.233	1104.5
1027.447	1039.5
1027.661	1146.5
1027.875	1070.5
1028.088	1067.5
1028.302	982.5
1028.516	985.5
1028.73	974.5
1028.943	939.5
1029.157	872.5
1029.37	831.5
1029.584	-0.5
1029.797	-0.5
1030.011	-0.5
1030.224	0.5
