Data from QEP037381__333__16-25-19-914.txt Node

Date: Fri Dec 16 16:25:19 EST 2022
User: dcclab
Spectrometer: QEP03738
Trigger mode: 4
Integration Time (sec): 1.000000E1
Scans to average: 1
Electric dark correction enabled: true
Nonlinearity correction enabled: false
Boxcar width: 0
XAxis mode: Wavelengths
Number of Pixels in Spectrum: 1044
>>>>>Begin Spectral Data<<<<<
784.041	14.12
784.3	-0.88
784.558	-3.88
784.817	-3.88
785.075	114264.12
785.334	19588.12
785.592	9140.12
785.851	6349.12
786.109	4755.12
786.368	3666.12
786.626	2998.12
786.884	2476.12
787.143	2069.12
787.401	1689.12
787.659	1526.12
787.917	1354.12
788.175	1230.12
788.433	1060.12
788.691	953.12
788.949	869.12
789.207	825.12
789.465	717.12
789.723	696.12
789.98	621.12
790.238	658.12
790.496	639.12
790.753	623.12
791.011	665.12
791.268	579.12
791.526	578.12
791.783	577.12
792.041	563.12
792.298	464.12
792.556	533.12
792.813	517.12
793.07	491.12
793.327	471.12
793.584	558.12
793.841	472.12
794.099	515.12
794.356	555.12
794.613	463.12
794.869	491.12
795.126	459.12
795.383	450.12
795.64	460.12
795.897	424.12
796.153	472.12
796.41	468.12
796.667	462.12
796.923	448.12
797.18	459.12
797.436	491.12
797.693	449.12
797.949	495.12
798.206	529.12
798.462	443.12
798.718	516.12
798.974	488.12
799.231	520.12
799.487	520.12
799.743	526.12
799.999	564.12
800.255	571.12
800.511	551.12
800.767	600.12
801.023	597.12
801.279	633.12
801.534	677.12
801.79	727.12
802.046	778.12
802.302	943.12
802.557	1091.12
802.813	1358.12
803.068	1728.12
803.324	2434.12
803.579	3330.12
803.835	4634.12
804.09	6345.12
804.345	8304.12
804.601	10542.12
804.856	12861.12
805.111	14828.12
805.366	16417.12
805.621	17549.12
805.876	18381.12
806.131	18824.12
806.386	19248.12
806.641	19601.12
806.896	19916.12
807.151	20344.12
807.406	20553.12
807.661	21023.12
807.915	21386.12
808.17	21762.12
808.425	21993.12
808.679	22146.12
808.934	22368.12
809.188	22581.12
809.443	22907.12
809.697	23178.12
809.951	23251.12
810.206	23537.12
810.46	23812.12
810.714	23892.12
810.968	24133.12
811.223	24284.12
811.477	24710.12
811.731	24712.12
811.985	24900.12
812.239	24955.12
812.493	25163.12
812.747	25207.12
813	25182.12
813.254	25415.12
813.508	25428.12
813.762	25743.12
814.015	25721.12
814.269	25868.12
814.522	26148.12
814.776	26444.12
815.03	26796.12
815.283	27083.12
815.536	27577.12
815.79	28030.12
816.043	28428.12
816.296	28879.12
816.55	29178.12
816.803	29399.12
817.056	29755.12
817.309	30029.12
817.562	30341.12
817.815	30752.12
818.068	31060.12
818.321	31267.12
818.574	31496.12
818.827	31982.12
819.079	32246.12
819.332	32930.12
819.585	33326.12
819.838	33800.12
820.09	33880.12
820.343	34192.12
820.595	34353.12
820.848	34480.12
821.1	34624.12
821.353	34657.12
821.605	34727.12
821.857	34610.12
822.11	34424.12
822.362	34363.12
822.614	34366.12
822.866	34424.12
823.118	34419.12
823.37	34529.12
823.622	34560.12
823.874	34600.12
824.126	34786.12
824.378	34972.12
824.63	34981.12
824.882	35144.12
825.134	35154.12
825.385	35023.12
825.637	34797.12
825.888	34851.12
826.14	34798.12
826.392	34662.12
826.643	34443.12
826.895	34371.12
827.146	34299.12
827.397	34078.12
827.649	34143.12
827.9	34190.12
828.151	34233.12
828.402	34199.12
828.653	34298.12
828.905	34486.12
829.156	34456.12
829.407	34444.12
829.658	34384.12
829.909	34507.12
830.159	34679.12
830.41	34396.12
830.661	34169.12
830.912	34002.12
831.162	33868.12
831.413	33827.12
831.664	33684.12
831.914	33817.12
832.165	33638.12
832.415	33627.12
832.666	33652.12
832.916	33670.12
833.167	33616.12
833.417	33696.12
833.667	33631.12
833.917	33397.12
834.168	33397.12
834.418	33344.12
834.668	33196.12
834.918	32945.12
835.168	32723.12
835.418	32729.12
835.668	32641.12
835.918	32523.12
836.167	32413.12
836.417	32409.12
836.667	32302.12
836.917	32370.12
837.166	32304.12
837.416	32305.12
837.666	32307.12
837.915	32228.12
838.165	32176.12
838.414	32175.12
838.663	32126.12
838.913	32171.12
839.162	31931.12
839.411	31985.12
839.661	31706.12
839.91	31691.12
840.159	31626.12
840.408	31716.12
840.657	31660.12
840.906	31516.12
841.155	31778.12
841.404	31616.12
841.653	31741.12
841.902	31625.12
842.15	31712.12
842.399	31754.12
842.648	31569.12
842.897	31642.12
843.145	31334.12
843.394	31283.12
843.642	31036.12
843.891	30901.12
844.139	30823.12
844.388	30497.12
844.636	30449.12
844.884	30472.12
845.133	30412.12
845.381	30292.12
845.629	30288.12
845.877	30234.12
846.125	30278.12
846.373	30180.12
846.621	30090.12
846.869	29973.12
847.117	29889.12
847.365	29571.12
847.613	29466.12
847.861	29525.12
848.108	29446.12
848.356	29316.12
848.604	29215.12
848.851	29255.12
849.099	29155.12
849.346	29428.12
849.594	29531.12
849.841	29571.12
850.089	29675.12
850.336	29539.12
850.583	29591.12
850.831	29476.12
851.078	29247.12
851.325	29261.12
851.572	29313.12
851.819	29122.12
852.066	28739.12
852.313	28254.12
852.56	28056.12
852.807	27876.12
853.054	27788.12
853.301	27845.12
853.548	27594.12
853.794	27920.12
854.041	28022.12
854.288	28086.12
854.534	28222.12
854.781	28305.12
855.028	27966.12
855.274	28215.12
855.52	28115.12
855.767	27949.12
856.013	27896.12
856.26	28223.12
856.506	27560.12
856.752	27571.12
856.998	27642.12
857.244	27721.12
857.49	27753.12
857.736	27812.12
857.982	27813.12
858.228	27837.12
858.474	27589.12
858.72	27412.12
858.966	27095.12
859.212	26884.12
859.458	26655.12
859.703	26327.12
859.949	26035.12
860.195	25994.12
860.44	25884.12
860.686	25810.12
860.931	25747.12
861.177	25540.12
861.422	25311.12
861.667	25327.12
861.913	25342.12
862.158	25275.12
862.403	25356.12
862.648	25282.12
862.893	25540.12
863.138	25386.12
863.384	25254.12
863.629	25290.12
863.873	25312.12
864.118	25225.12
864.363	25178.12
864.608	25034.12
864.853	25045.12
865.098	24613.12
865.342	24636.12
865.587	24497.12
865.832	24562.12
866.076	24445.12
866.321	24354.12
866.565	24409.12
866.81	24257.12
867.054	24151.12
867.298	24119.12
867.543	23992.12
867.787	23961.12
868.031	24092.12
868.275	23835.12
868.519	23800.12
868.764	23833.12
869.008	23724.12
869.252	23634.12
869.496	23697.12
869.739	23544.12
869.983	23610.12
870.227	23545.12
870.471	23433.12
870.715	23675.12
870.958	23593.12
871.202	23758.12
871.446	23745.12
871.689	23705.12
871.933	23692.12
872.176	23698.12
872.42	23578.12
872.663	23487.12
872.906	23514.12
873.15	23441.12
873.393	23344.12
873.636	23247.12
873.879	23070.12
874.122	22874.12
874.366	22567.12
874.609	22445.12
874.852	22167.12
875.095	22159.12
875.337	22022.12
875.58	21872.12
875.823	21767.12
876.066	21762.12
876.309	21700.12
876.551	21479.12
876.794	21392.12
877.037	21371.12
877.279	21229.12
877.522	21366.12
877.764	21251.12
878.007	21194.12
878.249	21189.12
878.491	21049.12
878.734	21148.12
878.976	21105.12
879.218	20911.12
879.46	20782.12
879.702	20652.12
879.945	20588.12
880.187	20319.12
880.429	20256.12
880.671	20205.12
880.912	20127.12
881.154	19936.12
881.396	19778.12
881.638	19886.12
881.88	19913.12
882.121	19829.12
882.363	19895.12
882.605	19752.12
882.846	19806.12
883.088	19789.12
883.329	19651.12
883.571	19658.12
883.812	19827.12
884.053	20096.12
884.295	20508.12
884.536	20760.12
884.777	20533.12
885.018	20448.12
885.259	20342.12
885.5	20126.12
885.742	20374.12
885.982	20079.12
886.223	19870.12
886.464	19778.12
886.705	19594.12
886.946	19367.12
887.187	19145.12
887.428	18918.12
887.668	18761.12
887.909	18303.12
888.15	18273.12
888.39	18122.12
888.631	18001.12
888.871	17901.12
889.111	17767.12
889.352	17619.12
889.592	17497.12
889.833	17309.12
890.073	17163.12
890.313	17153.12
890.553	16853.12
890.793	16945.12
891.033	16814.12
891.273	16758.12
891.513	16629.12
891.753	16615.12
891.993	16562.12
892.233	16516.12
892.473	16741.12
892.713	16731.12
892.952	16588.12
893.192	16598.12
893.432	16532.12
893.671	16486.12
893.911	16416.12
894.15	16391.12
894.39	16190.12
894.629	16232.12
894.869	15969.12
895.108	15932.12
895.347	15895.12
895.587	15895.12
895.826	15849.12
896.065	15765.12
896.304	15757.12
896.543	15781.12
896.782	15610.12
897.021	15748.12
897.26	15666.12
897.499	15605.12
897.738	15550.12
897.977	15370.12
898.216	15288.12
898.454	15071.12
898.693	15046.12
898.932	15134.12
899.17	15002.12
899.409	14929.12
899.647	14848.12
899.886	14873.12
900.124	14854.12
900.363	14818.12
900.601	14929.12
900.839	14851.12
901.078	14915.12
901.316	14977.12
901.554	15002.12
901.792	15122.12
902.03	15048.12
902.268	15100.12
902.506	14981.12
902.744	14937.12
902.982	14858.12
903.22	14497.12
903.458	14400.12
903.695	14162.12
903.933	14021.12
904.171	13788.12
904.409	13555.12
904.646	13413.12
904.884	13203.12
905.121	13180.12
905.359	12901.12
905.596	12862.12
905.833	12655.12
906.071	12595.12
906.308	12631.12
906.545	12575.12
906.783	12464.12
907.02	12519.12
907.257	12527.12
907.494	12405.12
907.731	12429.12
907.968	12281.12
908.205	12146.12
908.442	12068.12
908.679	12053.12
908.915	12083.12
909.152	11883.12
909.389	11748.12
909.626	11658.12
909.862	11648.12
910.099	11544.12
910.335	11609.12
910.572	11405.12
910.808	11393.12
911.045	11376.12
911.281	11312.12
911.518	11307.12
911.754	11189.12
911.99	11156.12
912.226	11004.12
912.463	10985.12
912.699	10884.12
912.935	10783.12
913.171	10713.12
913.407	10692.12
913.643	10629.12
913.879	10485.12
914.114	10401.12
914.35	10233.12
914.586	10136.12
914.822	9982.12
915.057	10042.12
915.293	9923.12
915.529	9757.12
915.764	9884.12
916	9860.12
916.235	9849.12
916.471	9798.12
916.706	9727.12
916.941	9643.12
917.177	9777.12
917.412	9719.12
917.647	9699.12
917.882	9595.12
918.117	9646.12
918.352	9657.12
918.588	9606.12
918.823	9500.12
919.057	9358.12
919.292	9227.12
919.527	9292.12
919.762	9094.12
919.997	9052.12
920.232	8923.12
920.466	8867.12
920.701	8800.12
920.935	8761.12
921.17	8714.12
921.405	8653.12
921.639	8608.12
921.873	8549.12
922.108	8577.12
922.342	8455.12
922.576	8418.12
922.811	8391.12
923.045	8418.12
923.279	8394.12
923.513	8186.12
923.747	8330.12
923.981	8212.12
924.215	8093.12
924.449	8091.12
924.683	8061.12
924.917	8005.12
925.151	7969.12
925.385	8011.12
925.618	7913.12
925.852	7874.12
926.086	7746.12
926.319	7853.12
926.553	7823.12
926.786	7793.12
927.02	7855.12
927.253	7820.12
927.486	7833.12
927.72	7723.12
927.953	7758.12
928.186	7699.12
928.42	7747.12
928.653	7547.12
928.886	7540.12
929.119	7628.12
929.352	7502.12
929.585	7508.12
929.818	7387.12
930.051	7419.12
930.284	7312.12
930.516	7220.12
930.749	7139.12
930.982	7245.12
931.215	7161.12
931.447	7028.12
931.68	7031.12
931.912	7033.12
932.145	7028.12
932.377	6994.12
932.61	7111.12
932.842	6922.12
933.074	7028.12
933.307	6926.12
933.539	7013.12
933.771	7016.12
934.003	6904.12
934.236	7004.12
934.468	6988.12
934.7	6879.12
934.932	6881.12
935.164	6823.12
935.395	6795.12
935.627	6829.12
935.859	6848.12
936.091	6748.12
936.323	6778.12
936.554	6768.12
936.786	6653.12
937.017	6633.12
937.249	6627.12
937.481	6516.12
937.712	6621.12
937.943	6585.12
938.175	6547.12
938.406	6499.12
938.637	6561.12
938.869	6526.12
939.1	6482.12
939.331	6433.12
939.562	6512.12
939.793	6418.12
940.024	6384.12
940.255	6482.12
940.486	6334.12
940.717	6322.12
940.948	6288.12
941.179	6251.12
941.409	6301.12
941.64	6196.12
941.871	6221.12
942.102	6142.12
942.332	6160.12
942.563	6194.12
942.793	6251.12
943.024	6145.12
943.254	6132.12
943.484	6186.12
943.715	6166.12
943.945	6173.12
944.175	6136.12
944.405	6067.12
944.636	6063.12
944.866	6076.12
945.096	6095.12
945.326	5989.12
945.556	6063.12
945.786	6046.12
946.016	6030.12
946.245	5908.12
946.475	5888.12
946.705	5858.12
946.935	5835.12
947.164	5808.12
947.394	5710.12
947.624	5772.12
947.853	5745.12
948.083	5668.12
948.312	5680.12
948.542	5570.12
948.771	5587.12
949	5559.12
949.23	5586.12
949.459	5546.12
949.688	5579.12
949.917	5564.12
950.146	5531.12
950.375	5768.12
950.604	5452.12
950.833	5539.12
951.062	5537.12
951.291	5445.12
951.52	5445.12
951.749	5362.12
951.978	5359.12
952.206	5353.12
952.435	5354.12
952.664	5376.12
952.892	5297.12
953.121	5289.12
953.349	5337.12
953.578	5309.12
953.806	5200.12
954.035	5199.12
954.263	5214.12
954.491	5092.12
954.719	5182.12
954.948	5116.12
955.176	5065.12
955.404	4965.12
955.632	5048.12
955.86	5048.12
956.088	4966.12
956.316	4983.12
956.544	4986.12
956.772	4902.12
956.999	4855.12
957.227	4928.12
957.455	4835.12
957.683	4846.12
957.91	4747.12
958.138	4725.12
958.365	4764.12
958.593	4725.12
958.82	4663.12
959.048	4720.12
959.275	4652.12
959.502	4656.12
959.73	4578.12
959.957	4634.12
960.184	4620.12
960.411	4586.12
960.638	4636.12
960.865	4580.12
961.092	4609.12
961.319	4515.12
961.546	4613.12
961.773	4583.12
962	4548.12
962.227	4543.12
962.454	4497.12
962.68	4492.12
962.907	4465.12
963.134	4410.12
963.36	4483.12
963.587	4454.12
963.813	4347.12
964.04	4372.12
964.266	4290.12
964.493	4361.12
964.719	4331.12
964.945	4279.12
965.171	4175.12
965.398	4217.12
965.624	4222.12
965.85	4117.12
966.076	4074.12
966.302	4131.12
966.528	4091.12
966.754	4092.12
966.98	4091.12
967.206	4078.12
967.431	4025.12
967.657	4068.12
967.883	4048.12
968.109	4050.12
968.334	3973.12
968.56	3877.12
968.785	3967.12
969.011	3889.12
969.236	3965.12
969.462	3864.12
969.687	3916.12
969.912	3910.12
970.138	3909.12
970.363	3852.12
970.588	3873.12
970.813	3830.12
971.038	3802.12
971.263	3789.12
971.488	3804.12
971.713	3795.12
971.938	3769.12
972.163	3702.12
972.388	3756.12
972.613	3623.12
972.838	3728.12
973.062	3698.12
973.287	3669.12
973.512	3587.12
973.736	3633.12
973.961	3572.12
974.185	3565.12
974.41	3610.12
974.634	3456.12
974.858	3455.12
975.083	3486.12
975.307	3507.12
975.531	3473.12
975.755	3326.12
975.98	3375.12
976.204	3312.12
976.428	3290.12
976.652	3270.12
976.876	3289.12
977.1	3313.12
977.324	3258.12
977.547	3291.12
977.771	3292.12
977.995	3247.12
978.219	3184.12
978.442	3281.12
978.666	3220.12
978.89	3238.12
979.113	3226.12
979.337	3226.12
979.56	3154.12
979.783	3230.12
980.007	3069.12
980.23	3150.12
980.453	3087.12
980.677	3155.12
980.9	3129.12
981.123	3014.12
981.346	3132.12
981.569	3093.12
981.792	3061.12
982.015	3028.12
982.238	2995.12
982.461	2975.12
982.684	2923.12
982.907	2914.12
983.129	2898.12
983.352	2935.12
983.575	2907.12
983.797	2940.12
984.02	2849.12
984.242	2861.12
984.465	2859.12
984.687	2861.12
984.91	2907.12
985.132	2836.12
985.354	2843.12
985.577	2801.12
985.799	2795.12
986.021	2684.12
986.243	2728.12
986.465	2733.12
986.687	2763.12
986.909	2770.12
987.131	2767.12
987.353	2696.12
987.575	2701.12
987.797	2696.12
988.019	2644.12
988.241	2674.12
988.462	2655.12
988.684	2672.12
988.906	2697.12
989.127	2700.12
989.349	2575.12
989.57	2634.12
989.792	2666.12
990.013	2655.12
990.234	2654.12
990.456	2664.12
990.677	2660.12
990.898	2603.12
991.119	2561.12
991.341	2562.12
991.562	2508.12
991.783	2557.12
992.004	2505.12
992.225	2456.12
992.446	2496.12
992.667	2418.12
992.887	2496.12
993.108	2357.12
993.329	2475.12
993.55	2418.12
993.77	2336.12
993.991	2373.12
994.212	2398.12
994.432	2353.12
994.653	2368.12
994.873	2330.12
995.093	2258.12
995.314	2278.12
995.534	2337.12
995.754	2370.12
995.975	2380.12
996.195	2243.12
996.415	2333.12
996.635	2279.12
996.855	2287.12
997.075	2256.12
997.295	2253.12
997.515	2231.12
997.735	2292.12
997.955	2273.12
998.174	2224.12
998.394	2220.12
998.614	2265.12
998.834	2217.12
999.053	2269.12
999.273	2259.12
999.492	2287.12
999.712	2181.12
999.931	2191.12
1000.151	2204.12
1000.37	2168.12
1000.589	2216.12
1000.809	2124.12
1001.028	2220.12
1001.247	2171.12
1001.466	2057.12
1001.685	2191.12
1001.904	2132.12
1002.123	2108.12
1002.342	2087.12
1002.561	2030.12
1002.78	2065.12
1002.999	2122.12
1003.218	2079.12
1003.436	1999.12
1003.655	2041.12
1003.874	2009.12
1004.092	2018.12
1004.311	2044.12
1004.53	2019.12
1004.748	2111.12
1004.966	1989.12
1005.185	2061.12
1005.403	2042.12
1005.622	2023.12
1005.84	2081.12
1006.058	1972.12
1006.276	1999.12
1006.494	2475.12
1006.712	2000.12
1006.931	2038.12
1007.149	1949.12
1007.367	1940.12
1007.584	1986.12
1007.802	2045.12
1008.02	2003.12
1008.238	2112.12
1008.456	2084.12
1008.673	1967.12
1008.891	2092.12
1009.109	2033.12
1009.326	2102.12
1009.544	2222.12
1009.761	2140.12
1009.979	2237.12
1010.196	2265.12
1010.413	2347.12
1010.631	2461.12
1010.848	2479.12
1011.065	2520.12
1011.282	2458.12
1011.5	2375.12
1011.717	2522.12
1011.934	2438.12
1012.151	2470.12
1012.368	2451.12
1012.585	2398.12
1012.801	2452.12
1013.018	2390.12
1013.235	2378.12
1013.452	2403.12
1013.669	2425.12
1013.885	2412.12
1014.102	2445.12
1014.318	2396.12
1014.535	2351.12
1014.751	2405.12
1014.968	2357.12
1015.184	2367.12
1015.401	2287.12
1015.617	2286.12
1015.833	2266.12
1016.049	2276.12
1016.266	2180.12
1016.482	2226.12
1016.698	2127.12
1016.914	2178.12
1017.13	2103.12
1017.346	2101.12
1017.562	2143.12
1017.778	2110.12
1017.993	2046.12
1018.209	2111.12
1018.425	2085.12
1018.641	2042.12
1018.856	1996.12
1019.072	2042.12
1019.288	2109.12
1019.503	2075.12
1019.719	1956.12
1019.934	1959.12
1020.149	2051.12
1020.365	1980.12
1020.58	1874.12
1020.795	1952.12
1021.011	1847.12
1021.226	1797.12
1021.441	1834.12
1021.656	1739.12
1021.871	1684.12
1022.086	1647.12
1022.301	1616.12
1022.516	1634.12
1022.731	1635.12
1022.946	1565.12
1023.16	1525.12
1023.375	1516.12
1023.59	1503.12
1023.804	1467.12
1024.019	1552.12
1024.234	1398.12
1024.448	1437.12
1024.663	1335.12
1024.877	1330.12
1025.092	1361.12
1025.306	1367.12
1025.52	1239.12
1025.734	1323.12
1025.949	1203.12
1026.163	1224.12
1026.377	1110.12
1026.591	1146.12
1026.805	1105.12
1027.019	1085.12
1027.233	1049.12
1027.447	986.12
1027.661	1081.12
1027.875	1018.12
1028.088	1008.12
1028.302	945.12
1028.516	934.12
1028.73	915.12
1028.943	912.12
1029.157	824.12
1029.37	784.12
1029.584	-2.88
1029.797	-0.88
1030.011	-3.88
1030.224	2.12
