Data from QEP037381__359__16-29-39-917.txt Node

Date: Fri Dec 16 16:29:39 EST 2022
User: dcclab
Spectrometer: QEP03738
Trigger mode: 4
Integration Time (sec): 1.000000E1
Scans to average: 1
Electric dark correction enabled: true
Nonlinearity correction enabled: false
Boxcar width: 0
XAxis mode: Wavelengths
Number of Pixels in Spectrum: 1044
>>>>>Begin Spectral Data<<<<<
784.041	15.25
784.3	-1.75
784.558	-3.75
784.817	-3.75
785.075	111945.25
785.334	19630.25
785.592	9263.25
785.851	6321.25
786.109	4729.25
786.368	3689.25
786.626	2969.25
786.884	2467.25
787.143	2045.25
787.401	1685.25
787.659	1527.25
787.917	1281.25
788.175	1155.25
788.433	1034.25
788.691	932.25
788.949	854.25
789.207	820.25
789.465	721.25
789.723	684.25
789.98	634.25
790.238	659.25
790.496	622.25
790.753	600.25
791.011	634.25
791.268	562.25
791.526	549.25
791.783	563.25
792.041	542.25
792.298	469.25
792.556	507.25
792.813	495.25
793.07	476.25
793.327	458.25
793.584	541.25
793.841	461.25
794.099	484.25
794.356	543.25
794.613	439.25
794.869	465.25
795.126	437.25
795.383	422.25
795.64	441.25
795.897	408.25
796.153	469.25
796.41	438.25
796.667	435.25
796.923	434.25
797.18	427.25
797.436	454.25
797.693	419.25
797.949	475.25
798.206	491.25
798.462	413.25
798.718	482.25
798.974	462.25
799.231	495.25
799.487	489.25
799.743	491.25
799.999	517.25
800.255	511.25
800.511	500.25
800.767	538.25
801.023	535.25
801.279	571.25
801.534	616.25
801.79	666.25
802.046	687.25
802.302	818.25
802.557	926.25
802.813	1149.25
803.068	1423.25
803.324	1974.25
803.579	2617.25
803.835	3598.25
804.09	4953.25
804.345	6410.25
804.601	8089.25
804.856	9748.25
805.111	11251.25
805.366	12386.25
805.621	13374.25
805.876	13921.25
806.131	14343.25
806.386	14641.25
806.641	14816.25
806.896	15078.25
807.151	15466.25
807.406	15655.25
807.661	15788.25
807.915	16165.25
808.17	16399.25
808.425	16527.25
808.679	16627.25
808.934	16848.25
809.188	17044.25
809.443	17179.25
809.697	17347.25
809.951	17431.25
810.206	17553.25
810.46	17837.25
810.714	17998.25
810.968	18197.25
811.223	18273.25
811.477	18414.25
811.731	18649.25
811.985	18678.25
812.239	18716.25
812.493	18731.25
812.747	18944.25
813	18862.25
813.254	19047.25
813.508	19179.25
813.762	19198.25
814.015	19182.25
814.269	19347.25
814.522	19569.25
814.776	19781.25
815.03	20007.25
815.283	20201.25
815.536	20545.25
815.79	20863.25
816.043	21176.25
816.296	21480.25
816.55	21694.25
816.803	21866.25
817.056	22151.25
817.309	22458.25
817.562	22586.25
817.815	22754.25
818.068	22945.25
818.321	23192.25
818.574	23390.25
818.827	23901.25
819.079	24140.25
819.332	24495.25
819.585	24731.25
819.838	24959.25
820.09	25140.25
820.343	25255.25
820.595	25276.25
820.848	25594.25
821.1	25564.25
821.353	25541.25
821.605	25533.25
821.857	25703.25
822.11	25430.25
822.362	25332.25
822.614	25348.25
822.866	25314.25
823.118	25375.25
823.37	25620.25
823.622	25636.25
823.874	25578.25
824.126	25745.25
824.378	25689.25
824.63	25815.25
824.882	25772.25
825.134	25832.25
825.385	25747.25
825.637	25618.25
825.888	25592.25
826.14	25617.25
826.392	25432.25
826.643	25271.25
826.895	25211.25
827.146	25038.25
827.397	25015.25
827.649	25002.25
827.9	25034.25
828.151	25059.25
828.402	25138.25
828.653	25231.25
828.905	25194.25
829.156	25364.25
829.407	25209.25
829.658	25291.25
829.909	25358.25
830.159	25295.25
830.41	25188.25
830.661	25121.25
830.912	24849.25
831.162	24722.25
831.413	24789.25
831.664	24878.25
831.914	24717.25
832.165	24622.25
832.415	24763.25
832.666	24726.25
832.916	24721.25
833.167	24707.25
833.417	24645.25
833.667	24579.25
833.917	24517.25
834.168	24439.25
834.418	24306.25
834.668	24263.25
834.918	24033.25
835.168	23991.25
835.418	23851.25
835.668	23844.25
835.918	23841.25
836.167	23705.25
836.417	23614.25
836.667	23550.25
836.917	23733.25
837.166	23444.25
837.416	23587.25
837.666	23640.25
837.915	23563.25
838.165	23526.25
838.414	23474.25
838.663	23239.25
838.913	23452.25
839.162	23350.25
839.411	23352.25
839.661	23128.25
839.91	23124.25
840.159	23209.25
840.408	23150.25
840.657	23212.25
840.906	23277.25
841.155	23222.25
841.404	23101.25
841.653	23066.25
841.902	23175.25
842.15	23297.25
842.399	23177.25
842.648	23189.25
842.897	23056.25
843.145	22898.25
843.394	22769.25
843.642	22582.25
843.891	22574.25
844.139	22338.25
844.388	22230.25
844.636	22179.25
844.884	22160.25
845.133	22128.25
845.381	22106.25
845.629	22168.25
845.877	22123.25
846.125	22087.25
846.373	22065.25
846.621	21908.25
846.869	21913.25
847.117	21670.25
847.365	21555.25
847.613	21528.25
847.861	21430.25
848.108	21500.25
848.356	21469.25
848.604	21308.25
848.851	21422.25
849.099	21351.25
849.346	21392.25
849.594	21510.25
849.841	21597.25
850.089	21439.25
850.336	21521.25
850.583	21488.25
850.831	21438.25
851.078	21353.25
851.325	21190.25
851.572	21480.25
851.819	21270.25
852.066	20773.25
852.313	20464.25
852.56	20372.25
852.807	20200.25
853.054	20248.25
853.301	20256.25
853.548	20318.25
853.794	20417.25
854.041	20386.25
854.288	20413.25
854.534	20663.25
854.781	20703.25
855.028	20556.25
855.274	20584.25
855.52	20449.25
855.767	20346.25
856.013	20536.25
856.26	20735.25
856.506	20216.25
856.752	20143.25
856.998	20193.25
857.244	20178.25
857.49	20329.25
857.736	20391.25
857.982	20387.25
858.228	20287.25
858.474	20049.25
858.72	19916.25
858.966	19792.25
859.212	19664.25
859.458	19366.25
859.703	19227.25
859.949	18970.25
860.195	18850.25
860.44	18856.25
860.686	18832.25
860.931	18806.25
861.177	18590.25
861.422	18479.25
861.667	18373.25
861.913	18422.25
862.158	18404.25
862.403	18387.25
862.648	18513.25
862.893	18568.25
863.138	18500.25
863.384	18357.25
863.629	18368.25
863.873	18363.25
864.118	18307.25
864.363	18218.25
864.608	18192.25
864.853	18112.25
865.098	17940.25
865.342	17885.25
865.587	17824.25
865.832	17875.25
866.076	17980.25
866.321	17793.25
866.565	17754.25
866.81	17565.25
867.054	17601.25
867.298	17551.25
867.543	17493.25
867.787	17475.25
868.031	17375.25
868.275	17307.25
868.519	17256.25
868.764	17289.25
869.008	17269.25
869.252	17284.25
869.496	17166.25
869.739	17261.25
869.983	17270.25
870.227	17292.25
870.471	17193.25
870.715	17336.25
870.958	17334.25
871.202	17425.25
871.446	17424.25
871.689	17490.25
871.933	17445.25
872.176	17353.25
872.42	17347.25
872.663	17306.25
872.906	17323.25
873.15	17266.25
873.393	17225.25
873.636	17232.25
873.879	17057.25
874.122	16925.25
874.366	16641.25
874.609	16524.25
874.852	16322.25
875.095	16160.25
875.337	16164.25
875.58	16037.25
875.823	15994.25
876.066	16048.25
876.309	15991.25
876.551	15779.25
876.794	15784.25
877.037	15778.25
877.279	15652.25
877.522	15610.25
877.764	15603.25
878.007	15659.25
878.249	15598.25
878.491	15518.25
878.734	15481.25
878.976	15379.25
879.218	15248.25
879.46	15204.25
879.702	15091.25
879.945	15014.25
880.187	14864.25
880.429	14715.25
880.671	14730.25
880.912	14703.25
881.154	14617.25
881.396	14470.25
881.638	14577.25
881.88	14563.25
882.121	14495.25
882.363	14508.25
882.605	14601.25
882.846	14507.25
883.088	14464.25
883.329	14471.25
883.571	14532.25
883.812	14742.25
884.053	15046.25
884.295	15386.25
884.536	15514.25
884.777	15381.25
885.018	15320.25
885.259	15322.25
885.5	15095.25
885.742	15252.25
885.982	14990.25
886.223	14923.25
886.464	14802.25
886.705	14570.25
886.946	14341.25
887.187	14128.25
887.428	13905.25
887.668	13702.25
887.909	13544.25
888.15	13393.25
888.39	13276.25
888.631	13175.25
888.871	13036.25
889.111	12997.25
889.352	12893.25
889.592	12748.25
889.833	12718.25
890.073	12639.25
890.313	12638.25
890.553	12345.25
890.793	12361.25
891.033	12277.25
891.273	12308.25
891.513	12216.25
891.753	12250.25
891.993	12154.25
892.233	12207.25
892.473	12284.25
892.713	12255.25
892.952	12129.25
893.192	12255.25
893.432	12177.25
893.671	12146.25
893.911	12071.25
894.15	12056.25
894.39	12027.25
894.629	11926.25
894.869	11909.25
895.108	11837.25
895.347	11688.25
895.587	11777.25
895.826	11651.25
896.065	11609.25
896.304	11731.25
896.543	11683.25
896.782	11600.25
897.021	11663.25
897.26	11565.25
897.499	11555.25
897.738	11589.25
897.977	11418.25
898.216	11365.25
898.454	11315.25
898.693	11223.25
898.932	11221.25
899.17	11096.25
899.409	11065.25
899.647	11076.25
899.886	11067.25
900.124	11068.25
900.363	11122.25
900.601	11162.25
900.839	11183.25
901.078	11228.25
901.316	11220.25
901.554	11417.25
901.792	11395.25
902.03	11350.25
902.268	11313.25
902.506	11446.25
902.744	11235.25
902.982	11214.25
903.22	11011.25
903.458	10818.25
903.695	10642.25
903.933	10516.25
904.171	10255.25
904.409	10125.25
904.646	10030.25
904.884	9841.25
905.121	9854.25
905.359	9616.25
905.596	9631.25
905.833	9460.25
906.071	9413.25
906.308	9351.25
906.545	9375.25
906.783	9301.25
907.02	9314.25
907.257	9242.25
907.494	9214.25
907.731	9159.25
907.968	9172.25
908.205	9079.25
908.442	9032.25
908.679	9004.25
908.915	8916.25
909.152	8859.25
909.389	8731.25
909.626	8697.25
909.862	8672.25
910.099	8590.25
910.335	8617.25
910.572	8433.25
910.808	8545.25
911.045	8440.25
911.281	8421.25
911.518	8419.25
911.754	8347.25
911.99	8281.25
912.226	8213.25
912.463	8145.25
912.699	8094.25
912.935	8044.25
913.171	7986.25
913.407	7849.25
913.643	7892.25
913.879	7790.25
914.114	7668.25
914.35	7644.25
914.586	7573.25
914.822	7447.25
915.057	7514.25
915.293	7351.25
915.529	7327.25
915.764	7435.25
916	7393.25
916.235	7314.25
916.471	7324.25
916.706	7249.25
916.941	7241.25
917.177	7265.25
917.412	7308.25
917.647	7282.25
917.882	7167.25
918.117	7250.25
918.352	7210.25
918.588	7200.25
918.823	7107.25
919.057	7082.25
919.292	6863.25
919.527	6990.25
919.762	6807.25
919.997	6799.25
920.232	6698.25
920.466	6696.25
920.701	6524.25
920.935	6558.25
921.17	6477.25
921.405	6443.25
921.639	6477.25
921.873	6452.25
922.108	6455.25
922.342	6406.25
922.576	6323.25
922.811	6345.25
923.045	6330.25
923.279	6326.25
923.513	6195.25
923.747	6192.25
923.981	6170.25
924.215	6080.25
924.449	6115.25
924.683	6004.25
924.917	6032.25
925.151	6007.25
925.385	6052.25
925.618	5959.25
925.852	5924.25
926.086	5873.25
926.319	5952.25
926.553	5958.25
926.786	5924.25
927.02	5892.25
927.253	5887.25
927.486	5903.25
927.72	5853.25
927.953	5844.25
928.186	5780.25
928.42	5882.25
928.653	5753.25
928.886	5703.25
929.119	5731.25
929.352	5665.25
929.585	5637.25
929.818	5600.25
930.051	5591.25
930.284	5581.25
930.516	5460.25
930.749	5462.25
930.982	5453.25
931.215	5413.25
931.447	5355.25
931.68	5350.25
931.912	5314.25
932.145	5302.25
932.377	5336.25
932.61	5475.25
932.842	5292.25
933.074	5295.25
933.307	5266.25
933.539	5356.25
933.771	5350.25
934.003	5291.25
934.236	5356.25
934.468	5323.25
934.7	5221.25
934.932	5258.25
935.164	5193.25
935.395	5173.25
935.627	5253.25
935.859	5191.25
936.091	5153.25
936.323	5230.25
936.554	5190.25
936.786	5136.25
937.017	4989.25
937.249	5092.25
937.481	5025.25
937.712	5043.25
937.943	5062.25
938.175	4976.25
938.406	5068.25
938.637	5038.25
938.869	4945.25
939.1	5019.25
939.331	4935.25
939.562	4986.25
939.793	4958.25
940.024	5004.25
940.255	4936.25
940.486	4888.25
940.717	4836.25
940.948	4818.25
941.179	4790.25
941.409	4743.25
941.64	4746.25
941.871	4814.25
942.102	4712.25
942.332	4709.25
942.563	4798.25
942.793	4775.25
943.024	4727.25
943.254	4746.25
943.484	4771.25
943.715	4765.25
943.945	4774.25
944.175	4635.25
944.405	4684.25
944.636	4670.25
944.866	4686.25
945.096	4693.25
945.326	4616.25
945.556	4680.25
945.786	4711.25
946.016	4584.25
946.245	4562.25
946.475	4540.25
946.705	4479.25
946.935	4502.25
947.164	4479.25
947.394	4431.25
947.624	4354.25
947.853	4471.25
948.083	4384.25
948.312	4379.25
948.542	4251.25
948.771	4317.25
949	4309.25
949.23	4314.25
949.459	4265.25
949.688	4342.25
949.917	4251.25
950.146	4291.25
950.375	4316.25
950.604	4224.25
950.833	4306.25
951.062	4257.25
951.291	4272.25
951.52	4196.25
951.749	4219.25
951.978	4158.25
952.206	4118.25
952.435	4104.25
952.664	4153.25
952.892	4162.25
953.121	4092.25
953.349	4137.25
953.578	4053.25
953.806	4051.25
954.035	3980.25
954.263	4017.25
954.491	4001.25
954.719	3993.25
954.948	3909.25
955.176	3927.25
955.404	3907.25
955.632	3933.25
955.86	3882.25
956.088	3858.25
956.316	3878.25
956.544	3881.25
956.772	3804.25
956.999	3787.25
957.227	3840.25
957.455	3740.25
957.683	3737.25
957.91	3676.25
958.138	3680.25
958.365	3683.25
958.593	3655.25
958.82	3601.25
959.048	3691.25
959.275	3630.25
959.502	3585.25
959.73	3613.25
959.957	3627.25
960.184	3656.25
960.411	3571.25
960.638	3633.25
960.865	3554.25
961.092	3607.25
961.319	3500.25
961.546	3597.25
961.773	3601.25
962	3539.25
962.227	3554.25
962.454	3562.25
962.68	3501.25
962.907	3536.25
963.134	3483.25
963.36	3485.25
963.587	3465.25
963.813	3387.25
964.04	3428.25
964.266	3333.25
964.493	3438.25
964.719	3389.25
964.945	3360.25
965.171	3247.25
965.398	3311.25
965.624	3325.25
965.85	3221.25
966.076	3236.25
966.302	3269.25
966.528	3228.25
966.754	3230.25
966.98	3227.25
967.206	3207.25
967.431	3129.25
967.657	3242.25
967.883	3211.25
968.109	3158.25
968.334	3107.25
968.56	3081.25
968.785	3121.25
969.011	3068.25
969.236	3140.25
969.462	3032.25
969.687	3054.25
969.912	3096.25
970.138	3123.25
970.363	3011.25
970.588	3048.25
970.813	2992.25
971.038	3026.25
971.263	3024.25
971.488	3035.25
971.713	3057.25
971.938	3008.25
972.163	2933.25
972.388	2910.25
972.613	2920.25
972.838	2927.25
973.062	2871.25
973.287	2884.25
973.512	2850.25
973.736	2854.25
973.961	2845.25
974.185	2830.25
974.41	2844.25
974.634	2738.25
974.858	2769.25
975.083	2803.25
975.307	2802.25
975.531	2712.25
975.755	2641.25
975.98	2685.25
976.204	2626.25
976.428	2622.25
976.652	2635.25
976.876	2591.25
977.1	2609.25
977.324	2545.25
977.547	2648.25
977.771	2653.25
977.995	2621.25
978.219	2509.25
978.442	2637.25
978.666	2623.25
978.89	2588.25
979.113	2530.25
979.337	2553.25
979.56	2525.25
979.783	2592.25
980.007	2464.25
980.23	2529.25
980.453	2469.25
980.677	2513.25
980.9	2472.25
981.123	2406.25
981.346	2468.25
981.569	2432.25
981.792	2490.25
982.015	2420.25
982.238	2403.25
982.461	2406.25
982.684	2356.25
982.907	2342.25
983.129	2358.25
983.352	2379.25
983.575	2334.25
983.797	2357.25
984.02	2273.25
984.242	2283.25
984.465	2286.25
984.687	2332.25
984.91	2334.25
985.132	2302.25
985.354	2314.25
985.577	2281.25
985.799	2251.25
986.021	2210.25
986.243	2177.25
986.465	2220.25
986.687	2244.25
986.909	2245.25
987.131	2194.25
987.353	2182.25
987.575	2193.25
987.797	2169.25
988.019	2139.25
988.241	2151.25
988.462	2122.25
988.684	2188.25
988.906	2184.25
989.127	2235.25
989.349	2101.25
989.57	2138.25
989.792	2194.25
990.013	2159.25
990.234	2159.25
990.456	2212.25
990.677	2190.25
990.898	2079.25
991.119	2081.25
991.341	2130.25
991.562	2051.25
991.783	2063.25
992.004	2025.25
992.225	1984.25
992.446	2070.25
992.667	1947.25
992.887	2041.25
993.108	1944.25
993.329	2034.25
993.55	2024.25
993.77	1928.25
993.991	1943.25
994.212	1976.25
994.432	1953.25
994.653	1942.25
994.873	1995.25
995.093	1808.25
995.314	1878.25
995.534	1962.25
995.754	1965.25
995.975	1977.25
996.195	1845.25
996.415	1895.25
996.635	1892.25
996.855	1899.25
997.075	1871.25
997.295	1855.25
997.515	1895.25
997.735	1890.25
997.955	1871.25
998.174	1898.25
998.394	1815.25
998.614	1893.25
998.834	1832.25
999.053	1926.25
999.273	1860.25
999.492	1917.25
999.712	1827.25
999.931	1794.25
1000.151	1859.25
1000.37	1817.25
1000.589	1863.25
1000.809	1808.25
1001.028	1895.25
1001.247	1831.25
1001.466	1725.25
1001.685	1836.25
1001.904	1779.25
1002.123	1770.25
1002.342	1752.25
1002.561	1720.25
1002.78	1738.25
1002.999	1820.25
1003.218	1777.25
1003.436	1734.25
1003.655	1776.25
1003.874	1686.25
1004.092	1732.25
1004.311	1731.25
1004.53	1707.25
1004.748	1790.25
1004.966	1700.25
1005.185	1768.25
1005.403	1742.25
1005.622	1720.25
1005.84	1792.25
1006.058	1701.25
1006.276	1720.25
1006.494	2187.25
1006.712	1725.25
1006.931	1797.25
1007.149	1721.25
1007.367	1729.25
1007.584	1741.25
1007.802	1789.25
1008.02	1714.25
1008.238	1853.25
1008.456	1804.25
1008.673	1675.25
1008.891	1804.25
1009.109	1778.25
1009.326	1840.25
1009.544	1906.25
1009.761	1832.25
1009.979	1970.25
1010.196	1999.25
1010.413	2051.25
1010.631	2189.25
1010.848	2242.25
1011.065	2216.25
1011.282	2193.25
1011.5	2153.25
1011.717	2198.25
1011.934	2188.25
1012.151	2188.25
1012.368	2150.25
1012.585	2104.25
1012.801	2162.25
1013.018	2144.25
1013.235	2113.25
1013.452	2133.25
1013.669	2138.25
1013.885	2117.25
1014.102	2180.25
1014.318	2118.25
1014.535	2103.25
1014.751	2126.25
1014.968	2108.25
1015.184	2152.25
1015.401	2025.25
1015.617	2095.25
1015.833	2014.25
1016.049	2000.25
1016.266	1966.25
1016.482	1992.25
1016.698	1930.25
1016.914	1927.25
1017.13	1902.25
1017.346	1903.25
1017.562	1968.25
1017.778	1903.25
1017.993	1862.25
1018.209	1871.25
1018.425	1871.25
1018.641	1847.25
1018.856	1803.25
1019.072	1854.25
1019.288	1901.25
1019.503	1828.25
1019.719	1769.25
1019.934	1777.25
1020.149	1829.25
1020.365	1750.25
1020.58	1718.25
1020.795	1745.25
1021.011	1658.25
1021.226	1629.25
1021.441	1671.25
1021.656	1579.25
1021.871	1518.25
1022.086	1503.25
1022.301	1469.25
1022.516	1505.25
1022.731	1516.25
1022.946	1422.25
1023.16	1409.25
1023.375	1360.25
1023.59	1345.25
1023.804	1298.25
1024.019	1390.25
1024.234	1242.25
1024.448	1250.25
1024.663	1212.25
1024.877	1213.25
1025.092	1227.25
1025.306	1223.25
1025.52	1099.25
1025.734	1186.25
1025.949	1122.25
1026.163	1081.25
1026.377	1015.25
1026.591	1049.25
1026.805	989.25
1027.019	974.25
1027.233	925.25
1027.447	880.25
1027.661	997.25
1027.875	938.25
1028.088	929.25
1028.302	837.25
1028.516	836.25
1028.73	811.25
1028.943	801.25
1029.157	754.25
1029.37	715.25
1029.584	0.25
1029.797	-4.75
1030.011	-3.75
1030.224	2.25
