Data from QEP037381__341__16-26-39-914.txt Node

Date: Fri Dec 16 16:26:39 EST 2022
User: dcclab
Spectrometer: QEP03738
Trigger mode: 4
Integration Time (sec): 1.000000E1
Scans to average: 1
Electric dark correction enabled: true
Nonlinearity correction enabled: false
Boxcar width: 0
XAxis mode: Wavelengths
Number of Pixels in Spectrum: 1044
>>>>>Begin Spectral Data<<<<<
784.041	14.75
784.3	-0.25
784.558	-2.25
784.817	-3.25
785.075	113917.75
785.334	19774.75
785.592	9310.75
785.851	6466.75
786.109	4809.75
786.368	3724.75
786.626	3008.75
786.884	2479.75
787.143	2098.75
787.401	1737.75
787.659	1552.75
787.917	1324.75
788.175	1196.75
788.433	1057.75
788.691	952.75
788.949	869.75
789.207	810.75
789.465	735.75
789.723	683.75
789.98	621.75
790.238	665.75
790.496	626.75
790.753	585.75
791.011	640.75
791.268	580.75
791.526	551.75
791.783	574.75
792.041	551.75
792.298	476.75
792.556	527.75
792.813	497.75
793.07	473.75
793.327	471.75
793.584	550.75
793.841	482.75
794.099	492.75
794.356	529.75
794.613	466.75
794.869	498.75
795.126	444.75
795.383	453.75
795.64	449.75
795.897	412.75
796.153	472.75
796.41	460.75
796.667	438.75
796.923	450.75
797.18	443.75
797.436	474.75
797.693	447.75
797.949	493.75
798.206	523.75
798.462	427.75
798.718	495.75
798.974	487.75
799.231	522.75
799.487	510.75
799.743	517.75
799.999	538.75
800.255	533.75
800.511	516.75
800.767	574.75
801.023	553.75
801.279	622.75
801.534	653.75
801.79	712.75
802.046	766.75
802.302	921.75
802.557	1055.75
802.813	1329.75
803.068	1694.75
803.324	2308.75
803.579	3184.75
803.835	4389.75
804.09	5998.75
804.345	7934.75
804.601	9993.75
804.856	12016.75
805.111	13902.75
805.366	15281.75
805.621	16429.75
805.876	17227.75
806.131	17749.75
806.386	18041.75
806.641	18335.75
806.896	18644.75
807.151	19004.75
807.406	19299.75
807.661	19619.75
807.915	20059.75
808.17	20265.75
808.425	20482.75
808.679	20628.75
808.934	20880.75
809.188	21087.75
809.443	21330.75
809.697	21480.75
809.951	21691.75
810.206	21890.75
810.46	22164.75
810.714	22294.75
810.968	22488.75
811.223	22685.75
811.477	22885.75
811.731	23151.75
811.985	23177.75
812.239	23321.75
812.493	23371.75
812.747	23457.75
813	23472.75
813.254	23655.75
813.508	23728.75
813.762	23938.75
814.015	24029.75
814.269	24167.75
814.522	24354.75
814.776	24694.75
815.03	25009.75
815.283	25258.75
815.536	25641.75
815.79	25989.75
816.043	26423.75
816.296	26848.75
816.55	27125.75
816.803	27373.75
817.056	27818.75
817.309	28076.75
817.562	28227.75
817.815	28539.75
818.068	28648.75
818.321	29043.75
818.574	29350.75
818.827	29692.75
819.079	30078.75
819.332	30519.75
819.585	30911.75
819.838	31314.75
820.09	31554.75
820.343	31778.75
820.595	31848.75
820.848	32082.75
821.1	32143.75
821.353	32230.75
821.605	32231.75
821.857	32124.75
822.11	32049.75
822.362	31968.75
822.614	31784.75
822.866	32017.75
823.118	31945.75
823.37	32146.75
823.622	32101.75
823.874	32323.75
824.126	32455.75
824.378	32321.75
824.63	32498.75
824.882	32489.75
825.134	32438.75
825.385	32604.75
825.637	32294.75
825.888	32366.75
826.14	32227.75
826.392	32090.75
826.643	31980.75
826.895	31905.75
827.146	31645.75
827.397	31653.75
827.649	31632.75
827.9	31629.75
828.151	31684.75
828.402	31643.75
828.653	31833.75
828.905	31986.75
829.156	31994.75
829.407	32047.75
829.658	32027.75
829.909	32137.75
830.159	32217.75
830.41	31968.75
830.661	31676.75
830.912	31484.75
831.162	31408.75
831.413	31472.75
831.664	31424.75
831.914	31399.75
832.165	31327.75
832.415	31355.75
832.666	31257.75
832.916	31244.75
833.167	31216.75
833.417	31442.75
833.667	31163.75
833.917	31039.75
834.168	30971.75
834.418	30885.75
834.668	30786.75
834.918	30614.75
835.168	30663.75
835.418	30386.75
835.668	30418.75
835.918	30223.75
836.167	30136.75
836.417	30064.75
836.667	30020.75
836.917	30025.75
837.166	29997.75
837.416	30107.75
837.666	29985.75
837.915	29908.75
838.165	29830.75
838.414	29841.75
838.663	29917.75
838.913	29820.75
839.162	29695.75
839.411	29801.75
839.661	29541.75
839.91	29496.75
840.159	29395.75
840.408	29428.75
840.657	29408.75
840.906	29414.75
841.155	29334.75
841.404	29279.75
841.653	29439.75
841.902	29329.75
842.15	29453.75
842.399	29551.75
842.648	29613.75
842.897	29424.75
843.145	29178.75
843.394	29026.75
843.642	28797.75
843.891	28614.75
844.139	28606.75
844.388	28288.75
844.636	28225.75
844.884	28324.75
845.133	28319.75
845.381	28261.75
845.629	28240.75
845.877	28202.75
846.125	28168.75
846.373	28242.75
846.621	28083.75
846.869	28003.75
847.117	27763.75
847.365	27617.75
847.613	27513.75
847.861	27490.75
848.108	27377.75
848.356	27356.75
848.604	27292.75
848.851	27242.75
849.099	27413.75
849.346	27335.75
849.594	27487.75
849.841	27607.75
850.089	27533.75
850.336	27545.75
850.583	27439.75
850.831	27398.75
851.078	27215.75
851.325	27256.75
851.572	27314.75
851.819	27139.75
852.066	26634.75
852.313	26268.75
852.56	25989.75
852.807	25965.75
853.054	25843.75
853.301	25784.75
853.548	25918.75
853.794	26013.75
854.041	26218.75
854.288	26286.75
854.534	26567.75
854.781	26424.75
855.028	26323.75
855.274	26392.75
855.52	26252.75
855.767	26052.75
856.013	26204.75
856.26	26548.75
856.506	25929.75
856.752	25727.75
856.998	25781.75
857.244	25966.75
857.49	26099.75
857.736	26044.75
857.982	26034.75
858.228	26053.75
858.474	25781.75
858.72	25603.75
858.966	25257.75
859.212	25122.75
859.458	24884.75
859.703	24685.75
859.949	24402.75
860.195	24243.75
860.44	24097.75
860.686	24146.75
860.931	24066.75
861.177	23823.75
861.422	23589.75
861.667	23720.75
861.913	23582.75
862.158	23557.75
862.403	23688.75
862.648	23699.75
862.893	23926.75
863.138	23750.75
863.384	23586.75
863.629	23624.75
863.873	23647.75
864.118	23429.75
864.363	23452.75
864.608	23423.75
864.853	23284.75
865.098	23032.75
865.342	23057.75
865.587	22847.75
865.832	22929.75
866.076	22913.75
866.321	22758.75
866.565	22675.75
866.81	22541.75
867.054	22539.75
867.298	22495.75
867.543	22412.75
867.787	22380.75
868.031	22376.75
868.275	22322.75
868.519	22144.75
868.764	22264.75
869.008	22223.75
869.252	22206.75
869.496	22080.75
869.739	22213.75
869.983	22177.75
870.227	22148.75
870.471	22122.75
870.715	22140.75
870.958	22326.75
871.202	22300.75
871.446	22325.75
871.689	22344.75
871.933	22313.75
872.176	22318.75
872.42	22251.75
872.663	22224.75
872.906	22182.75
873.15	22127.75
873.393	22089.75
873.636	22094.75
873.879	21974.75
874.122	21644.75
874.366	21286.75
874.609	21129.75
874.852	21000.75
875.095	20785.75
875.337	20699.75
875.58	20636.75
875.823	20540.75
876.066	20580.75
876.309	20438.75
876.551	20365.75
876.794	20145.75
877.037	20233.75
877.279	20025.75
877.522	20049.75
877.764	20014.75
878.007	20041.75
878.249	19953.75
878.491	19869.75
878.734	19879.75
878.976	19796.75
879.218	19631.75
879.46	19694.75
879.702	19478.75
879.945	19287.75
880.187	19059.75
880.429	19056.75
880.671	18835.75
880.912	18872.75
881.154	18915.75
881.396	18793.75
881.638	18635.75
881.88	18685.75
882.121	18704.75
882.363	18760.75
882.605	18740.75
882.846	18642.75
883.088	18659.75
883.329	18657.75
883.571	18733.75
883.812	18922.75
884.053	19314.75
884.295	19663.75
884.536	19928.75
884.777	19783.75
885.018	19611.75
885.259	19545.75
885.5	19403.75
885.742	19497.75
885.982	19371.75
886.223	19080.75
886.464	19020.75
886.705	18730.75
886.946	18550.75
887.187	18185.75
887.428	18041.75
887.668	17696.75
887.909	17413.75
888.15	17239.75
888.39	17071.75
888.631	16963.75
888.871	16891.75
889.111	16721.75
889.352	16572.75
889.592	16450.75
889.833	16327.75
890.073	16251.75
890.313	16147.75
890.553	15959.75
890.793	15834.75
891.033	15845.75
891.273	15878.75
891.513	15700.75
891.753	15738.75
891.993	15737.75
892.233	15684.75
892.473	15791.75
892.713	15722.75
892.952	15656.75
893.192	15815.75
893.432	15676.75
893.671	15752.75
893.911	15616.75
894.15	15506.75
894.39	15361.75
894.629	15284.75
894.869	15330.75
895.108	15140.75
895.347	15042.75
895.587	14938.75
895.826	14996.75
896.065	15070.75
896.304	14985.75
896.543	15009.75
896.782	14843.75
897.021	14908.75
897.26	14860.75
897.499	14847.75
897.738	14795.75
897.977	14714.75
898.216	14574.75
898.454	14502.75
898.693	14326.75
898.932	14375.75
899.17	14316.75
899.409	14213.75
899.647	14232.75
899.886	14194.75
900.124	14148.75
900.363	14230.75
900.601	14245.75
900.839	14236.75
901.078	14348.75
901.316	14517.75
901.554	14561.75
901.792	14528.75
902.03	14572.75
902.268	14630.75
902.506	14497.75
902.744	14366.75
902.982	14347.75
903.22	14094.75
903.458	13882.75
903.695	13692.75
903.933	13486.75
904.171	13192.75
904.409	12935.75
904.646	12823.75
904.884	12633.75
905.121	12544.75
905.359	12367.75
905.596	12217.75
905.833	12145.75
906.071	12079.75
906.308	12132.75
906.545	12030.75
906.783	11971.75
907.02	11999.75
907.257	11887.75
907.494	11816.75
907.731	11831.75
907.968	11719.75
908.205	11582.75
908.442	11630.75
908.679	11516.75
908.915	11388.75
909.152	11310.75
909.389	11185.75
909.626	11119.75
909.862	11061.75
910.099	11078.75
910.335	11041.75
910.572	10879.75
910.808	10955.75
911.045	10898.75
911.281	10801.75
911.518	10813.75
911.754	10703.75
911.99	10740.75
912.226	10666.75
912.463	10494.75
912.699	10344.75
912.935	10351.75
913.171	10250.75
913.407	10103.75
913.643	10130.75
913.879	9991.75
914.114	9997.75
914.35	9782.75
914.586	9761.75
914.822	9667.75
915.057	9690.75
915.293	9547.75
915.529	9424.75
915.764	9514.75
916	9408.75
916.235	9399.75
916.471	9427.75
916.706	9332.75
916.941	9305.75
917.177	9325.75
917.412	9361.75
917.647	9289.75
917.882	9237.75
918.117	9286.75
918.352	9194.75
918.588	9212.75
918.823	9103.75
919.057	9016.75
919.292	8869.75
919.527	8945.75
919.762	8775.75
919.997	8699.75
920.232	8643.75
920.466	8505.75
920.701	8444.75
920.935	8468.75
921.17	8349.75
921.405	8328.75
921.639	8312.75
921.873	8194.75
922.108	8239.75
922.342	8157.75
922.576	8115.75
922.811	8059.75
923.045	8137.75
923.279	8100.75
923.513	7926.75
923.747	7947.75
923.981	7895.75
924.215	7801.75
924.449	7827.75
924.683	7721.75
924.917	7688.75
925.151	7682.75
925.385	7699.75
925.618	7632.75
925.852	7661.75
926.086	7589.75
926.319	7597.75
926.553	7642.75
926.786	7566.75
927.02	7533.75
927.253	7565.75
927.486	7532.75
927.72	7489.75
927.953	7518.75
928.186	7407.75
928.42	7462.75
928.653	7405.75
928.886	7341.75
929.119	7325.75
929.352	7269.75
929.585	7227.75
929.818	7163.75
930.051	7123.75
930.284	7053.75
930.516	6988.75
930.749	6943.75
930.982	6991.75
931.215	6930.75
931.447	6805.75
931.68	6878.75
931.912	6836.75
932.145	6779.75
932.377	6806.75
932.61	6913.75
932.842	6766.75
933.074	6793.75
933.307	6740.75
933.539	6805.75
933.771	6836.75
934.003	6751.75
934.236	6733.75
934.468	6753.75
934.7	6654.75
934.932	6719.75
935.164	6629.75
935.395	6620.75
935.627	6601.75
935.859	6617.75
936.091	6535.75
936.323	6601.75
936.554	6558.75
936.786	6474.75
937.017	6441.75
937.249	6476.75
937.481	6407.75
937.712	6454.75
937.943	6380.75
938.175	6410.75
938.406	6370.75
938.637	6426.75
938.869	6307.75
939.1	6288.75
939.331	6274.75
939.562	6263.75
939.793	6207.75
940.024	6308.75
940.255	6199.75
940.486	6155.75
940.717	6172.75
940.948	6068.75
941.179	6024.75
941.409	6072.75
941.64	6026.75
941.871	6072.75
942.102	6042.75
942.332	6040.75
942.563	6083.75
942.793	6066.75
943.024	5981.75
943.254	5991.75
943.484	6084.75
943.715	6008.75
943.945	5998.75
944.175	5996.75
944.405	5911.75
944.636	5920.75
944.866	5987.75
945.096	5925.75
945.326	5853.75
945.556	5886.75
945.786	5901.75
946.016	5769.75
946.245	5771.75
946.475	5734.75
946.705	5715.75
946.935	5696.75
947.164	5667.75
947.394	5580.75
947.624	5558.75
947.853	5639.75
948.083	5560.75
948.312	5508.75
948.542	5478.75
948.771	5415.75
949	5444.75
949.23	5419.75
949.459	5400.75
949.688	5497.75
949.917	5395.75
950.146	5385.75
950.375	5428.75
950.604	5414.75
950.833	5391.75
951.062	5369.75
951.291	5334.75
951.52	5278.75
951.749	5314.75
951.978	5227.75
952.206	5277.75
952.435	5245.75
952.664	5272.75
952.892	5256.75
953.121	5210.75
953.349	5226.75
953.578	5168.75
953.806	5113.75
954.035	5080.75
954.263	5064.75
954.491	4982.75
954.719	5052.75
954.948	4964.75
955.176	5023.75
955.404	4894.75
955.632	4940.75
955.86	4894.75
956.088	4917.75
956.316	4873.75
956.544	4853.75
956.772	4814.75
956.999	4730.75
957.227	4811.75
957.455	4709.75
957.683	4733.75
957.91	4671.75
958.138	4690.75
958.365	4624.75
958.593	4591.75
958.82	4510.75
959.048	4604.75
959.275	4545.75
959.502	4550.75
959.73	4508.75
959.957	4526.75
960.184	4568.75
960.411	4488.75
960.638	4536.75
960.865	4412.75
961.092	4486.75
961.319	4403.75
961.546	4510.75
961.773	4534.75
962	4440.75
962.227	4463.75
962.454	4415.75
962.68	4444.75
962.907	4364.75
963.134	4371.75
963.36	4323.75
963.587	4370.75
963.813	4259.75
964.04	4215.75
964.266	4177.75
964.493	4217.75
964.719	4244.75
964.945	4196.75
965.171	4086.75
965.398	4085.75
965.624	4129.75
965.85	4033.75
966.076	4016.75
966.302	4029.75
966.528	4029.75
966.754	4053.75
966.98	4069.75
967.206	3999.75
967.431	3925.75
967.657	3993.75
967.883	3968.75
968.109	3932.75
968.334	3913.75
968.56	3886.75
968.785	3880.75
969.011	3839.75
969.236	3913.75
969.462	3813.75
969.687	3811.75
969.912	3839.75
970.138	3854.75
970.363	3742.75
970.588	3845.75
970.813	3787.75
971.038	3713.75
971.263	3744.75
971.488	3747.75
971.713	3759.75
971.938	3733.75
972.163	3611.75
972.388	3641.75
972.613	3653.75
972.838	3623.75
973.062	3607.75
973.287	3601.75
973.512	3532.75
973.736	3548.75
973.961	3505.75
974.185	3499.75
974.41	3506.75
974.634	3400.75
974.858	3453.75
975.083	3459.75
975.307	3474.75
975.531	3375.75
975.755	3314.75
975.98	3323.75
976.204	3276.75
976.428	3287.75
976.652	3260.75
976.876	3193.75
977.1	3240.75
977.324	3198.75
977.547	3241.75
977.771	3237.75
977.995	3219.75
978.219	3102.75
978.442	3284.75
978.666	3192.75
978.89	3202.75
979.113	3151.75
979.337	3147.75
979.56	3120.75
979.783	3215.75
980.007	3089.75
980.23	3109.75
980.453	3062.75
980.677	3143.75
980.9	3061.75
981.123	2958.75
981.346	3081.75
981.569	3037.75
981.792	3056.75
982.015	3012.75
982.238	2946.75
982.461	2943.75
982.684	2962.75
982.907	2884.75
983.129	2869.75
983.352	2932.75
983.575	2908.75
983.797	2858.75
984.02	2791.75
984.242	2815.75
984.465	2792.75
984.687	2850.75
984.91	2821.75
985.132	2835.75
985.354	2827.75
985.577	2791.75
985.799	2762.75
986.021	2641.75
986.243	2688.75
986.465	2694.75
986.687	2760.75
986.909	2781.75
987.131	2721.75
987.353	2669.75
987.575	2664.75
987.797	2647.75
988.019	2582.75
988.241	2625.75
988.462	2601.75
988.684	2638.75
988.906	2650.75
989.127	2721.75
989.349	2578.75
989.57	2579.75
989.792	2629.75
990.013	2623.75
990.234	2608.75
990.456	2649.75
990.677	2605.75
990.898	2546.75
991.119	2555.75
991.341	2572.75
991.562	2463.75
991.783	2508.75
992.004	2429.75
992.225	2402.75
992.446	2465.75
992.667	2394.75
992.887	2451.75
993.108	2342.75
993.329	2493.75
993.55	2433.75
993.77	2356.75
993.991	2348.75
994.212	2377.75
994.432	2362.75
994.653	2363.75
994.873	2359.75
995.093	2174.75
995.314	2276.75
995.534	2315.75
995.754	2367.75
995.975	2343.75
996.195	2225.75
996.415	2269.75
996.635	2273.75
996.855	2274.75
997.075	2270.75
997.295	2235.75
997.515	2239.75
997.735	2252.75
997.955	2256.75
998.174	2261.75
998.394	2191.75
998.614	2244.75
998.834	2243.75
999.053	2266.75
999.273	2216.75
999.492	2281.75
999.712	2223.75
999.931	2182.75
1000.151	2190.75
1000.37	2180.75
1000.589	2204.75
1000.809	2126.75
1001.028	2211.75
1001.247	2150.75
1001.466	2032.75
1001.685	2212.75
1001.904	2104.75
1002.123	2121.75
1002.342	2111.75
1002.561	2056.75
1002.78	2088.75
1002.999	2130.75
1003.218	2038.75
1003.436	2045.75
1003.655	2061.75
1003.874	1990.75
1004.092	2031.75
1004.311	2076.75
1004.53	2008.75
1004.748	2089.75
1004.966	1976.75
1005.185	2051.75
1005.403	2026.75
1005.622	2013.75
1005.84	2102.75
1006.058	1987.75
1006.276	1980.75
1006.494	2474.75
1006.712	2014.75
1006.931	2077.75
1007.149	1972.75
1007.367	1976.75
1007.584	2000.75
1007.802	2041.75
1008.02	2020.75
1008.238	2125.75
1008.456	2132.75
1008.673	1994.75
1008.891	2097.75
1009.109	2082.75
1009.326	2163.75
1009.544	2247.75
1009.761	2194.75
1009.979	2318.75
1010.196	2380.75
1010.413	2496.75
1010.631	2590.75
1010.848	2642.75
1011.065	2636.75
1011.282	2617.75
1011.5	2557.75
1011.717	2669.75
1011.934	2572.75
1012.151	2629.75
1012.368	2581.75
1012.585	2560.75
1012.801	2550.75
1013.018	2560.75
1013.235	2510.75
1013.452	2539.75
1013.669	2528.75
1013.885	2538.75
1014.102	2582.75
1014.318	2596.75
1014.535	2548.75
1014.751	2541.75
1014.968	2541.75
1015.184	2558.75
1015.401	2473.75
1015.617	2439.75
1015.833	2383.75
1016.049	2395.75
1016.266	2377.75
1016.482	2370.75
1016.698	2271.75
1016.914	2329.75
1017.13	2262.75
1017.346	2275.75
1017.562	2275.75
1017.778	2194.75
1017.993	2178.75
1018.209	2237.75
1018.425	2201.75
1018.641	2172.75
1018.856	2135.75
1019.072	2184.75
1019.288	2231.75
1019.503	2174.75
1019.719	2096.75
1019.934	2050.75
1020.149	2151.75
1020.365	2084.75
1020.58	2030.75
1020.795	2050.75
1021.011	1955.75
1021.226	1949.75
1021.441	1951.75
1021.656	1826.75
1021.871	1755.75
1022.086	1756.75
1022.301	1726.75
1022.516	1684.75
1022.731	1703.75
1022.946	1668.75
1023.16	1633.75
1023.375	1563.75
1023.59	1540.75
1023.804	1491.75
1024.019	1587.75
1024.234	1456.75
1024.448	1455.75
1024.663	1416.75
1024.877	1374.75
1025.092	1396.75
1025.306	1389.75
1025.52	1262.75
1025.734	1353.75
1025.949	1259.75
1026.163	1202.75
1026.377	1153.75
1026.591	1199.75
1026.805	1117.75
1027.019	1103.75
1027.233	1048.75
1027.447	1000.75
1027.661	1091.75
1027.875	1047.75
1028.088	1032.75
1028.302	951.75
1028.516	951.75
1028.73	944.75
1028.943	906.75
1029.157	858.75
1029.37	802.75
1029.584	-3.25
1029.797	-0.25
1030.011	-3.25
1030.224	-2.25
