Data from QEP037381__258__16-12-49-903.txt Node

Date: Fri Dec 16 16:12:49 EST 2022
User: dcclab
Spectrometer: QEP03738
Trigger mode: 4
Integration Time (sec): 1.000000E1
Scans to average: 1
Electric dark correction enabled: true
Nonlinearity correction enabled: false
Boxcar width: 0
XAxis mode: Wavelengths
Number of Pixels in Spectrum: 1044
>>>>>Begin Spectral Data<<<<<
784.041	12.38
784.3	3.38
784.558	-4.62
784.817	-2.62
785.075	107914.38
785.334	18871.38
785.592	8894.38
785.851	6145.38
786.109	4620.38
786.368	3586.38
786.626	2861.38
786.884	2403.38
787.143	1994.38
787.401	1674.38
787.659	1506.38
787.917	1295.38
788.175	1173.38
788.433	1027.38
788.691	943.38
788.949	867.38
789.207	829.38
789.465	716.38
789.723	685.38
789.98	635.38
790.238	660.38
790.496	636.38
790.753	602.38
791.011	642.38
791.268	583.38
791.526	570.38
791.783	599.38
792.041	558.38
792.298	464.38
792.556	541.38
792.813	524.38
793.07	504.38
793.327	486.38
793.584	569.38
793.841	479.38
794.099	517.38
794.356	569.38
794.613	469.38
794.869	508.38
795.126	458.38
795.383	430.38
795.64	483.38
795.897	440.38
796.153	486.38
796.41	471.38
796.667	461.38
796.923	474.38
797.18	464.38
797.436	498.38
797.693	468.38
797.949	520.38
798.206	540.38
798.462	473.38
798.718	528.38
798.974	516.38
799.231	546.38
799.487	552.38
799.743	548.38
799.999	600.38
800.255	585.38
800.511	595.38
800.767	632.38
801.023	628.38
801.279	671.38
801.534	722.38
801.79	807.38
802.046	847.38
802.302	1069.38
802.557	1245.38
802.813	1576.38
803.068	2016.38
803.324	2860.38
803.579	3947.38
803.835	5494.38
804.09	7593.38
804.345	10026.38
804.601	12662.38
804.856	15448.38
805.111	17775.38
805.366	19670.38
805.621	21078.38
805.876	22048.38
806.131	22631.38
806.386	23079.38
806.641	23565.38
806.896	23877.38
807.151	24486.38
807.406	24898.38
807.661	25283.38
807.915	25670.38
808.17	26151.38
808.425	26468.38
808.679	26779.38
808.934	26892.38
809.188	27290.38
809.443	27582.38
809.697	27961.38
809.951	28072.38
810.206	28312.38
810.46	28598.38
810.714	28779.38
810.968	29013.38
811.223	29254.38
811.477	29570.38
811.731	29881.38
811.985	29940.38
812.239	30099.38
812.493	30263.38
812.747	30470.38
813	30502.38
813.254	30637.38
813.508	30823.38
813.762	31015.38
814.015	31134.38
814.269	31386.38
814.522	31621.38
814.776	32033.38
815.03	32398.38
815.283	32869.38
815.536	33333.38
815.79	33954.38
816.043	34523.38
816.296	34752.38
816.55	35381.38
816.803	35789.38
817.056	36340.38
817.309	36478.38
817.562	36952.38
817.815	37128.38
818.068	37590.38
818.321	37934.38
818.574	38223.38
818.827	38842.38
819.079	39407.38
819.332	39991.38
819.585	40589.38
819.838	40969.38
820.09	41273.38
820.343	41624.38
820.595	41875.38
820.848	42158.38
821.1	42288.38
821.353	42297.38
821.605	42204.38
821.857	42316.38
822.11	41993.38
822.362	41973.38
822.614	41810.38
822.866	41961.38
823.118	41934.38
823.37	42052.38
823.622	42093.38
823.874	42276.38
824.126	42327.38
824.378	42477.38
824.63	42671.38
824.882	42560.38
825.134	42803.38
825.385	42736.38
825.637	42638.38
825.888	42436.38
826.14	42363.38
826.392	42326.38
826.643	41886.38
826.895	41895.38
827.146	41771.38
827.397	41564.38
827.649	41688.38
827.9	41571.38
828.151	41586.38
828.402	41801.38
828.653	41892.38
828.905	41984.38
829.156	42088.38
829.407	42036.38
829.658	42141.38
829.909	42137.38
830.159	42104.38
830.41	42061.38
830.661	41619.38
830.912	41408.38
831.162	41233.38
831.413	41211.38
831.664	41231.38
831.914	41113.38
832.165	41123.38
832.415	41105.38
832.666	41069.38
832.916	41298.38
833.167	41119.38
833.417	41050.38
833.667	40976.38
833.917	40830.38
834.168	40794.38
834.418	40671.38
834.668	40457.38
834.918	40297.38
835.168	40179.38
835.418	39942.38
835.668	39936.38
835.918	39802.38
836.167	39686.38
836.417	39493.38
836.667	39582.38
836.917	39443.38
837.166	39425.38
837.416	39498.38
837.666	39321.38
837.915	39411.38
838.165	39314.38
838.414	39205.38
838.663	39107.38
838.913	39060.38
839.162	38874.38
839.411	39023.38
839.661	38604.38
839.91	38631.38
840.159	38685.38
840.408	38388.38
840.657	38623.38
840.906	38534.38
841.155	38754.38
841.404	38509.38
841.653	38554.38
841.902	38544.38
842.15	38746.38
842.399	38789.38
842.648	38529.38
842.897	38458.38
843.145	38131.38
843.394	37893.38
843.642	37713.38
843.891	37414.38
844.139	37533.38
844.388	37272.38
844.636	37086.38
844.884	37075.38
845.133	36912.38
845.381	36930.38
845.629	36886.38
845.877	36869.38
846.125	36768.38
846.373	36792.38
846.621	36673.38
846.869	36440.38
847.117	36366.38
847.365	36175.38
847.613	36054.38
847.861	35892.38
848.108	35838.38
848.356	35728.38
848.604	35705.38
848.851	35538.38
849.099	35755.38
849.346	35775.38
849.594	35918.38
849.841	36054.38
850.089	36119.38
850.336	35983.38
850.583	36108.38
850.831	35722.38
851.078	35569.38
851.325	35573.38
851.572	35593.38
851.819	35292.38
852.066	34769.38
852.313	34278.38
852.56	34025.38
852.807	33945.38
853.054	33789.38
853.301	33707.38
853.548	33819.38
853.794	33993.38
854.041	33934.38
854.288	34024.38
854.534	34309.38
854.781	34234.38
855.028	34141.38
855.274	34179.38
855.52	33905.38
855.767	33788.38
856.013	33860.38
856.26	33988.38
856.506	33469.38
856.752	33396.38
856.998	33455.38
857.244	33626.38
857.49	33791.38
857.736	33657.38
857.982	33745.38
858.228	33710.38
858.474	33488.38
858.72	33333.38
858.966	32824.38
859.212	32654.38
859.458	32292.38
859.703	32016.38
859.949	31633.38
860.195	31405.38
860.44	31314.38
860.686	31209.38
860.931	31054.38
861.177	30962.38
861.422	30924.38
861.667	30775.38
861.913	30689.38
862.158	30726.38
862.403	30860.38
862.648	30883.38
862.893	30911.38
863.138	30930.38
863.384	30829.38
863.629	30817.38
863.873	30714.38
864.118	30636.38
864.363	30521.38
864.608	30430.38
864.853	30283.38
865.098	30056.38
865.342	29900.38
865.587	29946.38
865.832	29877.38
866.076	29628.38
866.321	29671.38
866.565	29549.38
866.81	29475.38
867.054	29328.38
867.298	29179.38
867.543	29099.38
867.787	29114.38
868.031	29012.38
868.275	29026.38
868.519	28809.38
868.764	28820.38
869.008	28682.38
869.252	28719.38
869.496	28602.38
869.739	28583.38
869.983	28585.38
870.227	28491.38
870.471	28453.38
870.715	28630.38
870.958	28556.38
871.202	28635.38
871.446	28679.38
871.689	28625.38
871.933	28650.38
872.176	28580.38
872.42	28469.38
872.663	28510.38
872.906	28518.38
873.15	28365.38
873.393	28133.38
873.636	28139.38
873.879	27772.38
874.122	27537.38
874.366	27183.38
874.609	27043.38
874.852	26834.38
875.095	26732.38
875.337	26522.38
875.58	26450.38
875.823	26478.38
876.066	26371.38
876.309	26159.38
876.551	26018.38
876.794	25946.38
877.037	25890.38
877.279	25821.38
877.522	25774.38
877.764	25837.38
878.007	25649.38
878.249	25627.38
878.491	25783.38
878.734	25681.38
878.976	25584.38
879.218	25371.38
879.46	25222.38
879.702	25177.38
879.945	24795.38
880.187	24655.38
880.429	24614.38
880.671	24511.38
880.912	24472.38
881.154	24324.38
881.396	24104.38
881.638	24163.38
881.88	24001.38
882.121	24012.38
882.363	23987.38
882.605	24009.38
882.846	23885.38
883.088	23774.38
883.329	23919.38
883.571	23785.38
883.812	23978.38
884.053	24239.38
884.295	24601.38
884.536	24829.38
884.777	24579.38
885.018	24513.38
885.259	24521.38
885.5	24251.38
885.742	24363.38
885.982	24216.38
886.223	23978.38
886.464	23792.38
886.705	23643.38
886.946	23412.38
887.187	23063.38
887.428	22848.38
887.668	22564.38
887.909	22343.38
888.15	22074.38
888.39	21981.38
888.631	21716.38
888.871	21566.38
889.111	21500.38
889.352	21284.38
889.592	21161.38
889.833	20978.38
890.073	20957.38
890.313	20737.38
890.553	20517.38
890.793	20516.38
891.033	20450.38
891.273	20296.38
891.513	20244.38
891.753	20166.38
891.993	20080.38
892.233	20177.38
892.473	20215.38
892.713	20217.38
892.952	20217.38
893.192	20187.38
893.432	20199.38
893.671	20131.38
893.911	19989.38
894.15	19931.38
894.39	19706.38
894.629	19685.38
894.869	19576.38
895.108	19456.38
895.347	19333.38
895.587	19316.38
895.826	19297.38
896.065	19167.38
896.304	19131.38
896.543	19190.38
896.782	19059.38
897.021	19086.38
897.26	18895.38
897.499	18809.38
897.738	18811.38
897.977	18766.38
898.216	18582.38
898.454	18387.38
898.693	18286.38
898.932	18241.38
899.17	18108.38
899.409	18045.38
899.647	18043.38
899.886	17979.38
900.124	18073.38
900.363	18039.38
900.601	18012.38
900.839	18051.38
901.078	18042.38
901.316	18149.38
901.554	18209.38
901.792	18239.38
902.03	18168.38
902.268	18132.38
902.506	18186.38
902.744	18066.38
902.982	17986.38
903.22	17651.38
903.458	17479.38
903.695	17245.38
903.933	16983.38
904.171	16723.38
904.409	16445.38
904.646	16251.38
904.884	16088.38
905.121	15894.38
905.359	15775.38
905.596	15612.38
905.833	15413.38
906.071	15258.38
906.308	15278.38
906.545	15231.38
906.783	15241.38
907.02	15225.38
907.257	15161.38
907.494	15044.38
907.731	14979.38
907.968	14953.38
908.205	14855.38
908.442	14751.38
908.679	14606.38
908.915	14572.38
909.152	14368.38
909.389	14330.38
909.626	14240.38
909.862	14104.38
910.099	14046.38
910.335	14059.38
910.572	13823.38
910.808	13946.38
911.045	13749.38
911.281	13739.38
911.518	13795.38
911.754	13612.38
911.99	13520.38
912.226	13373.38
912.463	13368.38
912.699	13228.38
912.935	13149.38
913.171	12990.38
913.407	12799.38
913.643	12823.38
913.879	12676.38
914.114	12550.38
914.35	12451.38
914.586	12287.38
914.822	12203.38
915.057	12261.38
915.293	12026.38
915.529	11943.38
915.764	12024.38
916	11943.38
916.235	11940.38
916.471	11938.38
916.706	11853.38
916.941	11805.38
917.177	11704.38
917.412	11796.38
917.647	11776.38
917.882	11644.38
918.117	11759.38
918.352	11581.38
918.588	11644.38
918.823	11484.38
919.057	11397.38
919.292	11201.38
919.527	11191.38
919.762	11015.38
919.997	10979.38
920.232	10855.38
920.466	10770.38
920.701	10627.38
920.935	10591.38
921.17	10552.38
921.405	10513.38
921.639	10541.38
921.873	10341.38
922.108	10377.38
922.342	10413.38
922.576	10246.38
922.811	10186.38
923.045	10207.38
923.279	10151.38
923.513	10026.38
923.747	10031.38
923.981	9992.38
924.215	9857.38
924.449	9831.38
924.683	9750.38
924.917	9707.38
925.151	9585.38
925.385	9651.38
925.618	9621.38
925.852	9564.38
926.086	9540.38
926.319	9469.38
926.553	9509.38
926.786	9501.38
927.02	9432.38
927.253	9441.38
927.486	9429.38
927.72	9272.38
927.953	9404.38
928.186	9382.38
928.42	9274.38
928.653	9296.38
928.886	9207.38
929.119	9237.38
929.352	9142.38
929.585	9015.38
929.818	8990.38
930.051	8917.38
930.284	8865.38
930.516	8704.38
930.749	8664.38
930.982	8678.38
931.215	8646.38
931.447	8517.38
931.68	8498.38
931.912	8455.38
932.145	8451.38
932.377	8484.38
932.61	8669.38
932.842	8395.38
933.074	8464.38
933.307	8373.38
933.539	8444.38
933.771	8518.38
934.003	8424.38
934.236	8489.38
934.468	8452.38
934.7	8370.38
934.932	8400.38
935.164	8296.38
935.395	8319.38
935.627	8259.38
935.859	8172.38
936.091	8111.38
936.323	8181.38
936.554	8191.38
936.786	8103.38
937.017	7984.38
937.249	8051.38
937.481	7957.38
937.712	8047.38
937.943	7988.38
938.175	7981.38
938.406	7874.38
938.637	7991.38
938.869	7785.38
939.1	7836.38
939.331	7788.38
939.562	7808.38
939.793	7801.38
940.024	7770.38
940.255	7787.38
940.486	7623.38
940.717	7568.38
940.948	7629.38
941.179	7449.38
941.409	7524.38
941.64	7481.38
941.871	7568.38
942.102	7480.38
942.332	7484.38
942.563	7548.38
942.793	7458.38
943.024	7387.38
943.254	7475.38
943.484	7435.38
943.715	7476.38
943.945	7437.38
944.175	7395.38
944.405	7309.38
944.636	7313.38
944.866	7352.38
945.096	7353.38
945.326	7282.38
945.556	7357.38
945.786	7307.38
946.016	7170.38
946.245	7137.38
946.475	7079.38
946.705	7038.38
946.935	7018.38
947.164	6947.38
947.394	6873.38
947.624	6944.38
947.853	6940.38
948.083	6821.38
948.312	6836.38
948.542	6706.38
948.771	6717.38
949	6694.38
949.23	6683.38
949.459	6695.38
949.688	6737.38
949.917	6683.38
950.146	6733.38
950.375	6698.38
950.604	6624.38
950.833	6717.38
951.062	6650.38
951.291	6595.38
951.52	6595.38
951.749	6538.38
951.978	6521.38
952.206	6483.38
952.435	6406.38
952.664	6478.38
952.892	6411.38
953.121	6394.38
953.349	6385.38
953.578	6354.38
953.806	6331.38
954.035	6258.38
954.263	6184.38
954.491	6191.38
954.719	6194.38
954.948	6162.38
955.176	6086.38
955.404	6055.38
955.632	6034.38
955.86	6069.38
956.088	5977.38
956.316	5979.38
956.544	6009.38
956.772	5880.38
956.999	5865.38
957.227	5902.38
957.455	5828.38
957.683	5785.38
957.91	5721.38
958.138	5717.38
958.365	5682.38
958.593	5666.38
958.82	5608.38
959.048	5649.38
959.275	5570.38
959.502	5583.38
959.73	5526.38
959.957	5595.38
960.184	5550.38
960.411	5509.38
960.638	5513.38
960.865	5539.38
961.092	5507.38
961.319	5345.38
961.546	5488.38
961.773	5528.38
962	5470.38
962.227	5490.38
962.454	5399.38
962.68	5388.38
962.907	5369.38
963.134	5329.38
963.36	5331.38
963.587	5344.38
963.813	5179.38
964.04	5290.38
964.266	5133.38
964.493	5233.38
964.719	5146.38
964.945	5206.38
965.171	5000.38
965.398	5055.38
965.624	5016.38
965.85	4902.38
966.076	4949.38
966.302	4980.38
966.528	4918.38
966.754	4913.38
966.98	4920.38
967.206	4831.38
967.431	4803.38
967.657	4831.38
967.883	4848.38
968.109	4806.38
968.334	4739.38
968.56	4754.38
968.785	4695.38
969.011	4692.38
969.236	4682.38
969.462	4624.38
969.687	4637.38
969.912	4694.38
970.138	4721.38
970.363	4600.38
970.588	4585.38
970.813	4546.38
971.038	4549.38
971.263	4543.38
971.488	4513.38
971.713	4570.38
971.938	4525.38
972.163	4398.38
972.388	4411.38
972.613	4430.38
972.838	4417.38
973.062	4360.38
973.287	4366.38
973.512	4269.38
973.736	4333.38
973.961	4255.38
974.185	4219.38
974.41	4267.38
974.634	4149.38
974.858	4143.38
975.083	4155.38
975.307	4145.38
975.531	4120.38
975.755	4000.38
975.98	4048.38
976.204	3923.38
976.428	3912.38
976.652	3894.38
976.876	3915.38
977.1	3919.38
977.324	3854.38
977.547	3897.38
977.771	3884.38
977.995	3919.38
978.219	3813.38
978.442	3891.38
978.666	3816.38
978.89	3833.38
979.113	3809.38
979.337	3781.38
979.56	3749.38
979.783	3838.38
980.007	3742.38
980.23	3729.38
980.453	3679.38
980.677	3687.38
980.9	3691.38
981.123	3562.38
981.346	3656.38
981.569	3582.38
981.792	3623.38
982.015	3615.38
982.238	3536.38
982.461	3518.38
982.684	3527.38
982.907	3478.38
983.129	3451.38
983.352	3511.38
983.575	3448.38
983.797	3452.38
984.02	3384.38
984.242	3387.38
984.465	3376.38
984.687	3353.38
984.91	3398.38
985.132	3369.38
985.354	3329.38
985.577	3292.38
985.799	3259.38
986.021	3211.38
986.243	3202.38
986.465	3214.38
986.687	3287.38
986.909	3252.38
987.131	3228.38
987.353	3192.38
987.575	3188.38
987.797	3162.38
988.019	3142.38
988.241	3177.38
988.462	3101.38
988.684	3148.38
988.906	3158.38
989.127	3224.38
989.349	3048.38
989.57	3069.38
989.792	3085.38
990.013	3116.38
990.234	3142.38
990.456	3141.38
990.677	3042.38
990.898	3033.38
991.119	3035.38
991.341	3018.38
991.562	2930.38
991.783	2984.38
992.004	2910.38
992.225	2894.38
992.446	2934.38
992.667	2849.38
992.887	2930.38
993.108	2787.38
993.329	2905.38
993.55	2868.38
993.77	2757.38
993.991	2745.38
994.212	2797.38
994.432	2759.38
994.653	2757.38
994.873	2718.38
995.093	2594.38
995.314	2656.38
995.534	2748.38
995.754	2749.38
995.975	2724.38
996.195	2637.38
996.415	2685.38
996.635	2637.38
996.855	2684.38
997.075	2645.38
997.295	2619.38
997.515	2580.38
997.735	2610.38
997.955	2583.38
998.174	2626.38
998.394	2548.38
998.614	2614.38
998.834	2526.38
999.053	2616.38
999.273	2548.38
999.492	2658.38
999.712	2576.38
999.931	2514.38
1000.151	2528.38
1000.37	2512.38
1000.589	2551.38
1000.809	2482.38
1001.028	2561.38
1001.247	2489.38
1001.466	2377.38
1001.685	2517.38
1001.904	2448.38
1002.123	2404.38
1002.342	2406.38
1002.561	2362.38
1002.78	2384.38
1002.999	2435.38
1003.218	2373.38
1003.436	2320.38
1003.655	2400.38
1003.874	2298.38
1004.092	2293.38
1004.311	2360.38
1004.53	2295.38
1004.748	2371.38
1004.966	2287.38
1005.185	2347.38
1005.403	2315.38
1005.622	2274.38
1005.84	2364.38
1006.058	2256.38
1006.276	2264.38
1006.494	2736.38
1006.712	2269.38
1006.931	2345.38
1007.149	2208.38
1007.367	2252.38
1007.584	2270.38
1007.802	2301.38
1008.02	2256.38
1008.238	2354.38
1008.456	2376.38
1008.673	2217.38
1008.891	2309.38
1009.109	2296.38
1009.326	2334.38
1009.544	2470.38
1009.761	2368.38
1009.979	2504.38
1010.196	2497.38
1010.413	2629.38
1010.631	2706.38
1010.848	2743.38
1011.065	2779.38
1011.282	2738.38
1011.5	2705.38
1011.717	2755.38
1011.934	2731.38
1012.151	2718.38
1012.368	2680.38
1012.585	2644.38
1012.801	2659.38
1013.018	2668.38
1013.235	2584.38
1013.452	2626.38
1013.669	2695.38
1013.885	2637.38
1014.102	2664.38
1014.318	2694.38
1014.535	2649.38
1014.751	2662.38
1014.968	2627.38
1015.184	2629.38
1015.401	2525.38
1015.617	2566.38
1015.833	2481.38
1016.049	2486.38
1016.266	2447.38
1016.482	2438.38
1016.698	2358.38
1016.914	2420.38
1017.13	2353.38
1017.346	2305.38
1017.562	2385.38
1017.778	2299.38
1017.993	2266.38
1018.209	2353.38
1018.425	2320.38
1018.641	2270.38
1018.856	2264.38
1019.072	2279.38
1019.288	2313.38
1019.503	2284.38
1019.719	2197.38
1019.934	2176.38
1020.149	2247.38
1020.365	2188.38
1020.58	2118.38
1020.795	2150.38
1021.011	2060.38
1021.226	2043.38
1021.441	2044.38
1021.656	1924.38
1021.871	1841.38
1022.086	1838.38
1022.301	1823.38
1022.516	1793.38
1022.731	1836.38
1022.946	1758.38
1023.16	1730.38
1023.375	1690.38
1023.59	1644.38
1023.804	1612.38
1024.019	1703.38
1024.234	1577.38
1024.448	1569.38
1024.663	1509.38
1024.877	1484.38
1025.092	1512.38
1025.306	1472.38
1025.52	1363.38
1025.734	1460.38
1025.949	1370.38
1026.163	1333.38
1026.377	1264.38
1026.591	1306.38
1026.805	1227.38
1027.019	1222.38
1027.233	1159.38
1027.447	1124.38
1027.661	1201.38
1027.875	1141.38
1028.088	1122.38
1028.302	1050.38
1028.516	1024.38
1028.73	1030.38
1028.943	987.38
1029.157	921.38
1029.37	859.38
1029.584	-2.62
1029.797	-1.62
1030.011	-1.62
1030.224	-2.62
