Data from QEP037381__271__16-14-59-905.txt Node

Date: Fri Dec 16 16:14:59 EST 2022
User: dcclab
Spectrometer: QEP03738
Trigger mode: 4
Integration Time (sec): 1.000000E1
Scans to average: 1
Electric dark correction enabled: true
Nonlinearity correction enabled: false
Boxcar width: 0
XAxis mode: Wavelengths
Number of Pixels in Spectrum: 1044
>>>>>Begin Spectral Data<<<<<
784.041	9.88
784.3	1.88
784.558	-0.12
784.817	-1.12
785.075	114627.88
785.334	19372.88
785.592	8942.88
785.851	6147.88
786.109	4619.88
786.368	3559.88
786.626	2891.88
786.884	2442.88
787.143	2004.88
787.401	1671.88
787.659	1479.88
787.917	1290.88
788.175	1179.88
788.433	1027.88
788.691	911.88
788.949	876.88
789.207	808.88
789.465	704.88
789.723	687.88
789.98	614.88
790.238	648.88
790.496	620.88
790.753	586.88
791.011	644.88
791.268	577.88
791.526	566.88
791.783	573.88
792.041	552.88
792.298	461.88
792.556	522.88
792.813	515.88
793.07	486.88
793.327	473.88
793.584	560.88
793.841	485.88
794.099	484.88
794.356	544.88
794.613	444.88
794.869	487.88
795.126	452.88
795.383	420.88
795.64	457.88
795.897	421.88
796.153	462.88
796.41	458.88
796.667	441.88
796.923	451.88
797.18	456.88
797.436	459.88
797.693	440.88
797.949	490.88
798.206	521.88
798.462	445.88
798.718	488.88
798.974	488.88
799.231	516.88
799.487	511.88
799.743	515.88
799.999	535.88
800.255	547.88
800.511	538.88
800.767	582.88
801.023	558.88
801.279	613.88
801.534	654.88
801.79	708.88
802.046	758.88
802.302	908.88
802.557	1057.88
802.813	1327.88
803.068	1655.88
803.324	2280.88
803.579	3113.88
803.835	4334.88
804.09	6002.88
804.345	7789.88
804.601	9834.88
804.856	11950.88
805.111	13820.88
805.366	15300.88
805.621	16295.88
805.876	16956.88
806.131	17471.88
806.386	17724.88
806.641	18119.88
806.896	18432.88
807.151	18766.88
807.406	19032.88
807.661	19403.88
807.915	19751.88
808.17	19977.88
808.425	20228.88
808.679	20380.88
808.934	20720.88
809.188	20773.88
809.443	21080.88
809.697	21298.88
809.951	21387.88
810.206	21680.88
810.46	21814.88
810.714	22033.88
810.968	22267.88
811.223	22385.88
811.477	22586.88
811.731	22804.88
811.985	22966.88
812.239	22868.88
812.493	23029.88
812.747	23145.88
813	23231.88
813.254	23295.88
813.508	23566.88
813.762	23605.88
814.015	23574.88
814.269	23792.88
814.522	24065.88
814.776	24228.88
815.03	24625.88
815.283	24906.88
815.536	25389.88
815.79	25736.88
816.043	26054.88
816.296	26332.88
816.55	26718.88
816.803	27038.88
817.056	27354.88
817.309	27616.88
817.562	27804.88
817.815	28034.88
818.068	28249.88
818.321	28438.88
818.574	28811.88
818.827	29185.88
819.079	29627.88
819.332	30115.88
819.585	30446.88
819.838	30672.88
820.09	30956.88
820.343	31213.88
820.595	31295.88
820.848	31588.88
821.1	31597.88
821.353	31666.88
821.605	31571.88
821.857	31621.88
822.11	31316.88
822.362	31298.88
822.614	31261.88
822.866	31224.88
823.118	31372.88
823.37	31433.88
823.622	31531.88
823.874	31603.88
824.126	31821.88
824.378	31686.88
824.63	31849.88
824.882	31871.88
825.134	31856.88
825.385	31789.88
825.637	31652.88
825.888	31654.88
826.14	31523.88
826.392	31536.88
826.643	31371.88
826.895	31166.88
827.146	31030.88
827.397	31100.88
827.649	31004.88
827.9	30912.88
828.151	30926.88
828.402	31054.88
828.653	31216.88
828.905	31207.88
829.156	31329.88
829.407	31274.88
829.658	31339.88
829.909	31422.88
830.159	31376.88
830.41	31187.88
830.661	31081.88
830.912	30956.88
831.162	30659.88
831.413	30528.88
831.664	30663.88
831.914	30619.88
832.165	30647.88
832.415	30557.88
832.666	30615.88
832.916	30694.88
833.167	30725.88
833.417	30663.88
833.667	30413.88
833.917	30320.88
834.168	30326.88
834.418	30225.88
834.668	30115.88
834.918	29965.88
835.168	29848.88
835.418	29733.88
835.668	29633.88
835.918	29490.88
836.167	29482.88
836.417	29321.88
836.667	29277.88
836.917	29358.88
837.166	29300.88
837.416	29288.88
837.666	29404.88
837.915	29374.88
838.165	29251.88
838.414	29146.88
838.663	29090.88
838.913	29137.88
839.162	28991.88
839.411	29002.88
839.661	28783.88
839.91	28817.88
840.159	28768.88
840.408	28717.88
840.657	28775.88
840.906	28709.88
841.155	28696.88
841.404	28647.88
841.653	28706.88
841.902	28800.88
842.15	28768.88
842.399	28739.88
842.648	28772.88
842.897	28602.88
843.145	28515.88
843.394	28281.88
843.642	28053.88
843.891	27979.88
844.139	27869.88
844.388	27711.88
844.636	27673.88
844.884	27722.88
845.133	27648.88
845.381	27623.88
845.629	27557.88
845.877	27628.88
846.125	27575.88
846.373	27359.88
846.621	27329.88
846.869	27296.88
847.117	27061.88
847.365	26803.88
847.613	26710.88
847.861	26741.88
848.108	26741.88
848.356	26563.88
848.604	26549.88
848.851	26503.88
849.099	26706.88
849.346	26679.88
849.594	26819.88
849.841	26896.88
850.089	26936.88
850.336	26918.88
850.583	26875.88
850.831	26746.88
851.078	26473.88
851.325	26662.88
851.572	26880.88
851.819	26457.88
852.066	26074.88
852.313	25660.88
852.56	25446.88
852.807	25274.88
853.054	25272.88
853.301	25293.88
853.548	25227.88
853.794	25326.88
854.041	25602.88
854.288	25541.88
854.534	25765.88
854.781	25676.88
855.028	25632.88
855.274	25632.88
855.52	25490.88
855.767	25431.88
856.013	25595.88
856.26	25843.88
856.506	25248.88
856.752	25097.88
856.998	25109.88
857.244	25190.88
857.49	25225.88
857.736	25388.88
857.982	25428.88
858.228	25223.88
858.474	24992.88
858.72	24841.88
858.966	24672.88
859.212	24500.88
859.458	24131.88
859.703	24010.88
859.949	23705.88
860.195	23600.88
860.44	23432.88
860.686	23424.88
860.931	23464.88
861.177	23252.88
861.422	23088.88
861.667	22990.88
861.913	22932.88
862.158	23103.88
862.403	23081.88
862.648	23123.88
862.893	23146.88
863.138	23010.88
863.384	23040.88
863.629	23089.88
863.873	23059.88
864.118	22954.88
864.363	22817.88
864.608	22796.88
864.853	22713.88
865.098	22554.88
865.342	22377.88
865.587	22321.88
865.832	22308.88
866.076	22315.88
866.321	22124.88
866.565	22227.88
866.81	21933.88
867.054	21989.88
867.298	21925.88
867.543	21816.88
867.787	21848.88
868.031	21804.88
868.275	21691.88
868.519	21715.88
868.764	21636.88
869.008	21595.88
869.252	21575.88
869.496	21504.88
869.739	21557.88
869.983	21495.88
870.227	21546.88
870.471	21459.88
870.715	21661.88
870.958	21740.88
871.202	21668.88
871.446	21716.88
871.689	21712.88
871.933	21761.88
872.176	21563.88
872.42	21609.88
872.663	21521.88
872.906	21525.88
873.15	21516.88
873.393	21401.88
873.636	21476.88
873.879	21152.88
874.122	21062.88
874.366	20750.88
874.609	20494.88
874.852	20359.88
875.095	20174.88
875.337	20162.88
875.58	20066.88
875.823	19934.88
876.066	19838.88
876.309	19972.88
876.551	19708.88
876.794	19631.88
877.037	19579.88
877.279	19562.88
877.522	19470.88
877.764	19508.88
878.007	19385.88
878.249	19368.88
878.491	19352.88
878.734	19421.88
878.976	19165.88
879.218	19093.88
879.46	19117.88
879.702	18903.88
879.945	18721.88
880.187	18564.88
880.429	18474.88
880.671	18327.88
880.912	18324.88
881.154	18210.88
881.396	18162.88
881.638	18174.88
881.88	18222.88
882.121	18124.88
882.363	18168.88
882.605	18072.88
882.846	18022.88
883.088	18051.88
883.329	18099.88
883.571	18140.88
883.812	18324.88
884.053	18685.88
884.295	19065.88
884.536	19309.88
884.777	19169.88
885.018	18899.88
885.259	18834.88
885.5	18696.88
885.742	18826.88
885.982	18589.88
886.223	18494.88
886.464	18340.88
886.705	18190.88
886.946	17952.88
887.187	17595.88
887.428	17401.88
887.668	17047.88
887.909	16865.88
888.15	16685.88
888.39	16591.88
888.631	16530.88
888.871	16440.88
889.111	16180.88
889.352	16202.88
889.592	16005.88
889.833	15888.88
890.073	15709.88
890.313	15725.88
890.553	15611.88
890.793	15503.88
891.033	15437.88
891.273	15316.88
891.513	15255.88
891.753	15305.88
891.993	15226.88
892.233	15183.88
892.473	15339.88
892.713	15303.88
892.952	15170.88
893.192	15287.88
893.432	15198.88
893.671	15257.88
893.911	15104.88
894.15	15053.88
894.39	14909.88
894.629	14902.88
894.869	14878.88
895.108	14638.88
895.347	14585.88
895.587	14671.88
895.826	14595.88
896.065	14477.88
896.304	14603.88
896.543	14536.88
896.782	14449.88
897.021	14444.88
897.26	14377.88
897.499	14324.88
897.738	14369.88
897.977	14252.88
898.216	14133.88
898.454	14030.88
898.693	13938.88
898.932	13893.88
899.17	13809.88
899.409	13760.88
899.647	13804.88
899.886	13788.88
900.124	13827.88
900.363	13665.88
900.601	13737.88
900.839	13837.88
901.078	13889.88
901.316	13884.88
901.554	13975.88
901.792	14072.88
902.03	14085.88
902.268	14108.88
902.506	14014.88
902.744	13903.88
902.982	13864.88
903.22	13590.88
903.458	13381.88
903.695	13280.88
903.933	12999.88
904.171	12759.88
904.409	12592.88
904.646	12492.88
904.884	12212.88
905.121	12203.88
905.359	11932.88
905.596	11898.88
905.833	11663.88
906.071	11748.88
906.308	11731.88
906.545	11642.88
906.783	11507.88
907.02	11590.88
907.257	11521.88
907.494	11480.88
907.731	11468.88
907.968	11378.88
908.205	11319.88
908.442	11204.88
908.679	11161.88
908.915	11105.88
909.152	11056.88
909.389	10821.88
909.626	10797.88
909.862	10787.88
910.099	10731.88
910.335	10701.88
910.572	10586.88
910.808	10584.88
911.045	10571.88
911.281	10424.88
911.518	10514.88
911.754	10370.88
911.99	10257.88
912.226	10223.88
912.463	10169.88
912.699	10032.88
912.935	10040.88
913.171	9914.88
913.407	9787.88
913.643	9803.88
913.879	9693.88
914.114	9606.88
914.35	9495.88
914.586	9362.88
914.822	9340.88
915.057	9332.88
915.293	9215.88
915.529	9101.88
915.764	9210.88
916	9134.88
916.235	9099.88
916.471	9142.88
916.706	9056.88
916.941	8994.88
917.177	8984.88
917.412	9015.88
917.647	9040.88
917.882	8900.88
918.117	8992.88
918.352	8913.88
918.588	8914.88
918.823	8788.88
919.057	8659.88
919.292	8525.88
919.527	8609.88
919.762	8458.88
919.997	8423.88
920.232	8326.88
920.466	8231.88
920.701	8067.88
920.935	8131.88
921.17	8148.88
921.405	8055.88
921.639	8042.88
921.873	7926.88
922.108	7965.88
922.342	7980.88
922.576	7916.88
922.811	7791.88
923.045	7856.88
923.279	7829.88
923.513	7632.88
923.747	7706.88
923.981	7678.88
924.215	7593.88
924.449	7521.88
924.683	7448.88
924.917	7449.88
925.151	7403.88
925.385	7493.88
925.618	7338.88
925.852	7356.88
926.086	7272.88
926.319	7384.88
926.553	7320.88
926.786	7257.88
927.02	7317.88
927.253	7337.88
927.486	7272.88
927.72	7138.88
927.953	7236.88
928.186	7174.88
928.42	7137.88
928.653	7120.88
928.886	7111.88
929.119	7066.88
929.352	7068.88
929.585	6988.88
929.818	6865.88
930.051	6917.88
930.284	6909.88
930.516	6718.88
930.749	6721.88
930.982	6735.88
931.215	6710.88
931.447	6577.88
931.68	6579.88
931.912	6552.88
932.145	6591.88
932.377	6527.88
932.61	6671.88
932.842	6531.88
933.074	6602.88
933.307	6492.88
933.539	6546.88
933.771	6568.88
934.003	6495.88
934.236	6561.88
934.468	6578.88
934.7	6484.88
934.932	6536.88
935.164	6406.88
935.395	6398.88
935.627	6454.88
935.859	6346.88
936.091	6313.88
936.323	6390.88
936.554	6353.88
936.786	6279.88
937.017	6173.88
937.249	6233.88
937.481	6148.88
937.712	6200.88
937.943	6171.88
938.175	6198.88
938.406	6157.88
938.637	6164.88
938.869	6061.88
939.1	6102.88
939.331	6037.88
939.562	6077.88
939.793	6104.88
940.024	6028.88
940.255	6024.88
940.486	5962.88
940.717	5931.88
940.948	5882.88
941.179	5856.88
941.409	5849.88
941.64	5864.88
941.871	5841.88
942.102	5807.88
942.332	5808.88
942.563	5859.88
942.793	5830.88
943.024	5744.88
943.254	5815.88
943.484	5825.88
943.715	5786.88
943.945	5774.88
944.175	5760.88
944.405	5643.88
944.636	5673.88
944.866	5784.88
945.096	5735.88
945.326	5709.88
945.556	5654.88
945.786	5670.88
946.016	5620.88
946.245	5569.88
946.475	5519.88
946.705	5487.88
946.935	5481.88
947.164	5492.88
947.394	5456.88
947.624	5418.88
947.853	5375.88
948.083	5375.88
948.312	5341.88
948.542	5208.88
948.771	5239.88
949	5218.88
949.23	5259.88
949.459	5234.88
949.688	5277.88
949.917	5251.88
950.146	5205.88
950.375	5280.88
950.604	5087.88
950.833	5259.88
951.062	5167.88
951.291	5140.88
951.52	5129.88
951.749	5158.88
951.978	5046.88
952.206	5103.88
952.435	5037.88
952.664	5041.88
952.892	5022.88
953.121	5023.88
953.349	5019.88
953.578	5017.88
953.806	4941.88
954.035	4913.88
954.263	4894.88
954.491	4826.88
954.719	4886.88
954.948	4803.88
955.176	4797.88
955.404	4708.88
955.632	4761.88
955.86	4778.88
956.088	4747.88
956.316	4733.88
956.544	4734.88
956.772	4662.88
956.999	4610.88
957.227	4630.88
957.455	4564.88
957.683	4555.88
957.91	4501.88
958.138	4485.88
958.365	4411.88
958.593	4451.88
958.82	4391.88
959.048	4433.88
959.275	4414.88
959.502	4367.88
959.73	4285.88
959.957	4398.88
960.184	4324.88
960.411	4354.88
960.638	4384.88
960.865	4328.88
961.092	4374.88
961.319	4220.88
961.546	4375.88
961.773	4356.88
962	4259.88
962.227	4291.88
962.454	4325.88
962.68	4202.88
962.907	4258.88
963.134	4185.88
963.36	4206.88
963.587	4222.88
963.813	4037.88
964.04	4176.88
964.266	4057.88
964.493	4131.88
964.719	4083.88
964.945	4064.88
965.171	3944.88
965.398	3952.88
965.624	4039.88
965.85	3908.88
966.076	3906.88
966.302	3972.88
966.528	3852.88
966.754	3900.88
966.98	3885.88
967.206	3828.88
967.431	3788.88
967.657	3878.88
967.883	3832.88
968.109	3816.88
968.334	3738.88
968.56	3745.88
968.785	3706.88
969.011	3699.88
969.236	3723.88
969.462	3727.88
969.687	3720.88
969.912	3716.88
970.138	3774.88
970.363	3640.88
970.588	3604.88
970.813	3613.88
971.038	3598.88
971.263	3627.88
971.488	3633.88
971.713	3623.88
971.938	3606.88
972.163	3506.88
972.388	3518.88
972.613	3518.88
972.838	3488.88
973.062	3472.88
973.287	3440.88
973.512	3407.88
973.736	3450.88
973.961	3407.88
974.185	3357.88
974.41	3403.88
974.634	3338.88
974.858	3285.88
975.083	3307.88
975.307	3332.88
975.531	3282.88
975.755	3216.88
975.98	3228.88
976.204	3134.88
976.428	3176.88
976.652	3112.88
976.876	3135.88
977.1	3165.88
977.324	3115.88
977.547	3168.88
977.771	3161.88
977.995	3055.88
978.219	3022.88
978.442	3129.88
978.666	3035.88
978.89	3084.88
979.113	3061.88
979.337	3035.88
979.56	2984.88
979.783	3124.88
980.007	2958.88
980.23	2998.88
980.453	2949.88
980.677	2960.88
980.9	2984.88
981.123	2871.88
981.346	2939.88
981.569	2912.88
981.792	2962.88
982.015	2894.88
982.238	2861.88
982.461	2883.88
982.684	2824.88
982.907	2789.88
983.129	2768.88
983.352	2811.88
983.575	2754.88
983.797	2727.88
984.02	2738.88
984.242	2730.88
984.465	2720.88
984.687	2731.88
984.91	2747.88
985.132	2674.88
985.354	2741.88
985.577	2683.88
985.799	2667.88
986.021	2573.88
986.243	2605.88
986.465	2635.88
986.687	2689.88
986.909	2695.88
987.131	2621.88
987.353	2599.88
987.575	2587.88
987.797	2567.88
988.019	2509.88
988.241	2561.88
988.462	2539.88
988.684	2580.88
988.906	2599.88
989.127	2601.88
989.349	2479.88
989.57	2516.88
989.792	2552.88
990.013	2542.88
990.234	2550.88
990.456	2539.88
990.677	2514.88
990.898	2487.88
991.119	2448.88
991.341	2501.88
991.562	2375.88
991.783	2454.88
992.004	2375.88
992.225	2350.88
992.446	2395.88
992.667	2322.88
992.887	2409.88
993.108	2242.88
993.329	2399.88
993.55	2364.88
993.77	2276.88
993.991	2256.88
994.212	2308.88
994.432	2279.88
994.653	2308.88
994.873	2268.88
995.093	2155.88
995.314	2170.88
995.534	2257.88
995.754	2286.88
995.975	2278.88
996.195	2156.88
996.415	2236.88
996.635	2206.88
996.855	2246.88
997.075	2167.88
997.295	2164.88
997.515	2211.88
997.735	2209.88
997.955	2200.88
998.174	2167.88
998.394	2151.88
998.614	2191.88
998.834	2163.88
999.053	2225.88
999.273	2147.88
999.492	2183.88
999.712	2133.88
999.931	2083.88
1000.151	2111.88
1000.37	2112.88
1000.589	2148.88
1000.809	2041.88
1001.028	2162.88
1001.247	2132.88
1001.466	2011.88
1001.685	2132.88
1001.904	2039.88
1002.123	2033.88
1002.342	2045.88
1002.561	1958.88
1002.78	2010.88
1002.999	2070.88
1003.218	1985.88
1003.436	1957.88
1003.655	2035.88
1003.874	1929.88
1004.092	1952.88
1004.311	1989.88
1004.53	1975.88
1004.748	2019.88
1004.966	1937.88
1005.185	1981.88
1005.403	1979.88
1005.622	1973.88
1005.84	2040.88
1006.058	1928.88
1006.276	1946.88
1006.494	2431.88
1006.712	1953.88
1006.931	2011.88
1007.149	1935.88
1007.367	1947.88
1007.584	1945.88
1007.802	1996.88
1008.02	1964.88
1008.238	2033.88
1008.456	2067.88
1008.673	1920.88
1008.891	2054.88
1009.109	2012.88
1009.326	2051.88
1009.544	2171.88
1009.761	2095.88
1009.979	2205.88
1010.196	2257.88
1010.413	2366.88
1010.631	2437.88
1010.848	2479.88
1011.065	2516.88
1011.282	2493.88
1011.5	2390.88
1011.717	2514.88
1011.934	2454.88
1012.151	2503.88
1012.368	2439.88
1012.585	2390.88
1012.801	2426.88
1013.018	2413.88
1013.235	2383.88
1013.452	2407.88
1013.669	2454.88
1013.885	2400.88
1014.102	2468.88
1014.318	2436.88
1014.535	2390.88
1014.751	2435.88
1014.968	2435.88
1015.184	2387.88
1015.401	2363.88
1015.617	2335.88
1015.833	2293.88
1016.049	2259.88
1016.266	2243.88
1016.482	2250.88
1016.698	2149.88
1016.914	2235.88
1017.13	2129.88
1017.346	2143.88
1017.562	2195.88
1017.778	2113.88
1017.993	2089.88
1018.209	2116.88
1018.425	2107.88
1018.641	2079.88
1018.856	2040.88
1019.072	2068.88
1019.288	2095.88
1019.503	2061.88
1019.719	1964.88
1019.934	2008.88
1020.149	2041.88
1020.365	1971.88
1020.58	1902.88
1020.795	1948.88
1021.011	1892.88
1021.226	1852.88
1021.441	1860.88
1021.656	1754.88
1021.871	1671.88
1022.086	1671.88
1022.301	1652.88
1022.516	1643.88
1022.731	1665.88
1022.946	1579.88
1023.16	1561.88
1023.375	1491.88
1023.59	1498.88
1023.804	1443.88
1024.019	1532.88
1024.234	1376.88
1024.448	1419.88
1024.663	1352.88
1024.877	1347.88
1025.092	1352.88
1025.306	1324.88
1025.52	1224.88
1025.734	1303.88
1025.949	1230.88
1026.163	1170.88
1026.377	1100.88
1026.591	1159.88
1026.805	1091.88
1027.019	1080.88
1027.233	1021.88
1027.447	987.88
1027.661	1078.88
1027.875	1033.88
1028.088	1026.88
1028.302	924.88
1028.516	914.88
1028.73	897.88
1028.943	874.88
1029.157	834.88
1029.37	792.88
1029.584	-2.12
1029.797	-4.12
1030.011	-3.12
1030.224	-1.12
