Data from QEP037381__278__16-16-09-908.txt Node

Date: Fri Dec 16 16:16:09 EST 2022
User: dcclab
Spectrometer: QEP03738
Trigger mode: 4
Integration Time (sec): 1.000000E1
Scans to average: 1
Electric dark correction enabled: true
Nonlinearity correction enabled: false
Boxcar width: 0
XAxis mode: Wavelengths
Number of Pixels in Spectrum: 1044
>>>>>Begin Spectral Data<<<<<
784.041	13.75
784.3	-3.25
784.558	-0.25
784.817	-2.25
785.075	111378.75
785.334	19267.75
785.592	8996.75
785.851	6203.75
786.109	4642.75
786.368	3667.75
786.626	2904.75
786.884	2439.75
787.143	2067.75
787.401	1707.75
787.659	1488.75
787.917	1322.75
788.175	1195.75
788.433	1031.75
788.691	909.75
788.949	864.75
789.207	808.75
789.465	724.75
789.723	698.75
789.98	645.75
790.238	668.75
790.496	622.75
790.753	616.75
791.011	652.75
791.268	595.75
791.526	572.75
791.783	598.75
792.041	576.75
792.298	476.75
792.556	556.75
792.813	518.75
793.07	496.75
793.327	495.75
793.584	566.75
793.841	490.75
794.099	514.75
794.356	566.75
794.613	474.75
794.869	519.75
795.126	477.75
795.383	467.75
795.64	478.75
795.897	432.75
796.153	487.75
796.41	462.75
796.667	459.75
796.923	477.75
797.18	486.75
797.436	497.75
797.693	465.75
797.949	514.75
798.206	568.75
798.462	470.75
798.718	536.75
798.974	509.75
799.231	559.75
799.487	541.75
799.743	572.75
799.999	577.75
800.255	599.75
800.511	585.75
800.767	644.75
801.023	642.75
801.279	706.75
801.534	744.75
801.79	851.75
802.046	901.75
802.302	1070.75
802.557	1272.75
802.813	1623.75
803.068	2091.75
803.324	2901.75
803.579	4089.75
803.835	5682.75
804.09	7821.75
804.345	10328.75
804.601	13051.75
804.856	15989.75
805.111	18511.75
805.366	20470.75
805.621	21975.75
805.876	22895.75
806.131	23593.75
806.386	24088.75
806.641	24587.75
806.896	25132.75
807.151	25566.75
807.406	26005.75
807.661	26314.75
807.915	26938.75
808.17	27346.75
808.425	27555.75
808.679	27822.75
808.934	28128.75
809.188	28437.75
809.443	28769.75
809.697	29137.75
809.951	29367.75
810.206	29655.75
810.46	29914.75
810.714	30164.75
810.968	30507.75
811.223	30584.75
811.477	30979.75
811.731	31235.75
811.985	31338.75
812.239	31554.75
812.493	31648.75
812.747	31771.75
813	31934.75
813.254	32253.75
813.508	32328.75
813.762	32434.75
814.015	32503.75
814.269	32934.75
814.522	33115.75
814.776	33574.75
815.03	33968.75
815.283	34469.75
815.536	34975.75
815.79	35569.75
816.043	36129.75
816.296	36558.75
816.55	36950.75
816.803	37442.75
817.056	37881.75
817.309	38297.75
817.562	38723.75
817.815	39040.75
818.068	39392.75
818.321	39742.75
818.574	40232.75
818.827	40784.75
819.079	41303.75
819.332	41980.75
819.585	42574.75
819.838	43032.75
820.09	43299.75
820.343	43691.75
820.595	43908.75
820.848	44119.75
821.1	44327.75
821.353	44449.75
821.605	44278.75
821.857	44359.75
822.11	44209.75
822.362	44037.75
822.614	44111.75
822.866	44035.75
823.118	43917.75
823.37	44322.75
823.622	44270.75
823.874	44366.75
824.126	44630.75
824.378	44564.75
824.63	44836.75
824.882	44841.75
825.134	44906.75
825.385	44965.75
825.637	44760.75
825.888	44518.75
826.14	44700.75
826.392	44371.75
826.643	44224.75
826.895	44068.75
827.146	43815.75
827.397	43891.75
827.649	43931.75
827.9	43629.75
828.151	43813.75
828.402	43954.75
828.653	44120.75
828.905	44349.75
829.156	44354.75
829.407	44285.75
829.658	44287.75
829.909	44548.75
830.159	44487.75
830.41	44287.75
830.661	43907.75
830.912	43568.75
831.162	43418.75
831.413	43340.75
831.664	43506.75
831.914	43484.75
832.165	43237.75
832.415	43356.75
832.666	43306.75
832.916	43442.75
833.167	43287.75
833.417	43274.75
833.667	43249.75
833.917	43177.75
834.168	42896.75
834.418	42922.75
834.668	42630.75
834.918	42490.75
835.168	42381.75
835.418	42236.75
835.668	41902.75
835.918	41994.75
836.167	41925.75
836.417	41867.75
836.667	41705.75
836.917	41778.75
837.166	41589.75
837.416	41864.75
837.666	41668.75
837.915	41594.75
838.165	41512.75
838.414	41578.75
838.663	41350.75
838.913	41194.75
839.162	41241.75
839.411	41169.75
839.661	40850.75
839.91	40881.75
840.159	40761.75
840.408	40842.75
840.657	40804.75
840.906	40756.75
841.155	40931.75
841.404	40651.75
841.653	40817.75
841.902	40735.75
842.15	40934.75
842.399	40907.75
842.648	40913.75
842.897	40798.75
843.145	40448.75
843.394	40297.75
843.642	39961.75
843.891	39899.75
844.139	39695.75
844.388	39487.75
844.636	39216.75
844.884	39357.75
845.133	39134.75
845.381	39129.75
845.629	39222.75
845.877	39071.75
846.125	39011.75
846.373	39036.75
846.621	38939.75
846.869	38753.75
847.117	38579.75
847.365	38212.75
847.613	38180.75
847.861	37986.75
848.108	38108.75
848.356	37895.75
848.604	37803.75
848.851	37784.75
849.099	38125.75
849.346	38063.75
849.594	38117.75
849.841	38304.75
850.089	38300.75
850.336	38347.75
850.583	38300.75
850.831	37999.75
851.078	37800.75
851.325	37823.75
851.572	37750.75
851.819	37544.75
852.066	36913.75
852.313	36485.75
852.56	36255.75
852.807	36035.75
853.054	36041.75
853.301	35957.75
853.548	35993.75
853.794	36019.75
854.041	36201.75
854.288	36306.75
854.534	36791.75
854.781	36528.75
855.028	36447.75
855.274	36528.75
855.52	36092.75
855.767	36017.75
856.013	35982.75
856.26	36296.75
856.506	35650.75
856.752	35520.75
856.998	35623.75
857.244	35814.75
857.49	35819.75
857.736	35988.75
857.982	35968.75
858.228	35882.75
858.474	35637.75
858.72	35329.75
858.966	35197.75
859.212	34922.75
859.458	34487.75
859.703	34155.75
859.949	33757.75
860.195	33552.75
860.44	33413.75
860.686	33359.75
860.931	33221.75
861.177	33049.75
861.422	32891.75
861.667	32803.75
861.913	32848.75
862.158	32854.75
862.403	33103.75
862.648	33131.75
862.893	33096.75
863.138	33048.75
863.384	32944.75
863.629	32896.75
863.873	32794.75
864.118	32761.75
864.363	32664.75
864.608	32525.75
864.853	32373.75
865.098	32203.75
865.342	32165.75
865.587	31948.75
865.832	32007.75
866.076	31797.75
866.321	31606.75
866.565	31710.75
866.81	31541.75
867.054	31370.75
867.298	31452.75
867.543	31266.75
867.787	31279.75
868.031	31149.75
868.275	30968.75
868.519	30986.75
868.764	30919.75
869.008	30756.75
869.252	30777.75
869.496	30731.75
869.739	30661.75
869.983	30574.75
870.227	30669.75
870.471	30481.75
870.715	30536.75
870.958	30621.75
871.202	30765.75
871.446	30853.75
871.689	30759.75
871.933	30771.75
872.176	30703.75
872.42	30779.75
872.663	30763.75
872.906	30472.75
873.15	30285.75
873.393	30287.75
873.636	30151.75
873.879	29890.75
874.122	29600.75
874.366	29327.75
874.609	29015.75
874.852	28918.75
875.095	28793.75
875.337	28600.75
875.58	28441.75
875.823	28426.75
876.066	28269.75
876.309	28266.75
876.551	28049.75
876.794	27942.75
877.037	27837.75
877.279	27683.75
877.522	27836.75
877.764	27853.75
878.007	27768.75
878.249	27665.75
878.491	27562.75
878.734	27611.75
878.976	27661.75
879.218	27425.75
879.46	27308.75
879.702	26989.75
879.945	26797.75
880.187	26679.75
880.429	26481.75
880.671	26245.75
880.912	26264.75
881.154	26208.75
881.396	26013.75
881.638	26124.75
881.88	26065.75
882.121	26059.75
882.363	25990.75
882.605	25966.75
882.846	25729.75
883.088	25702.75
883.329	25778.75
883.571	25674.75
883.812	25870.75
884.053	26061.75
884.295	26484.75
884.536	26656.75
884.777	26471.75
885.018	26391.75
885.259	26282.75
885.5	26149.75
885.742	26191.75
885.982	25993.75
886.223	25750.75
886.464	25737.75
886.705	25482.75
886.946	25347.75
887.187	24983.75
887.428	24753.75
887.668	24487.75
887.909	24123.75
888.15	23946.75
888.39	23886.75
888.631	23614.75
888.871	23480.75
889.111	23317.75
889.352	23125.75
889.592	22985.75
889.833	22694.75
890.073	22674.75
890.313	22661.75
890.553	22307.75
890.793	22305.75
891.033	22194.75
891.273	22064.75
891.513	21989.75
891.753	21937.75
891.993	21894.75
892.233	21875.75
892.473	21993.75
892.713	21959.75
892.952	21924.75
893.192	21976.75
893.432	21922.75
893.671	21865.75
893.911	21689.75
894.15	21722.75
894.39	21471.75
894.629	21285.75
894.869	21285.75
895.108	21160.75
895.347	21083.75
895.587	20986.75
895.826	20940.75
896.065	20783.75
896.304	20782.75
896.543	20967.75
896.782	20605.75
897.021	20644.75
897.26	20529.75
897.499	20547.75
897.738	20527.75
897.977	20278.75
898.216	20202.75
898.454	19974.75
898.693	19952.75
898.932	19805.75
899.17	19752.75
899.409	19629.75
899.647	19543.75
899.886	19520.75
900.124	19561.75
900.363	19591.75
900.601	19565.75
900.839	19592.75
901.078	19691.75
901.316	19696.75
901.554	19721.75
901.792	19825.75
902.03	19767.75
902.268	19567.75
902.506	19605.75
902.744	19636.75
902.982	19498.75
903.22	19133.75
903.458	18966.75
903.695	18754.75
903.933	18519.75
904.171	18157.75
904.409	17982.75
904.646	17790.75
904.884	17482.75
905.121	17286.75
905.359	17187.75
905.596	17075.75
905.833	16893.75
906.071	16753.75
906.308	16682.75
906.545	16632.75
906.783	16522.75
907.02	16631.75
907.257	16484.75
907.494	16452.75
907.731	16388.75
907.968	16410.75
908.205	16225.75
908.442	16138.75
908.679	16008.75
908.915	15865.75
909.152	15810.75
909.389	15616.75
909.626	15576.75
909.862	15455.75
910.099	15330.75
910.335	15318.75
910.572	15202.75
910.808	15119.75
911.045	15155.75
911.281	15015.75
911.518	15015.75
911.754	14824.75
911.99	14776.75
912.226	14725.75
912.463	14645.75
912.699	14534.75
912.935	14346.75
913.171	14211.75
913.407	14190.75
913.643	14141.75
913.879	13914.75
914.114	13829.75
914.35	13618.75
914.586	13583.75
914.822	13433.75
915.057	13448.75
915.293	13287.75
915.529	13097.75
915.764	13153.75
916	13038.75
916.235	13054.75
916.471	13091.75
916.706	13012.75
916.941	12962.75
917.177	12955.75
917.412	12963.75
917.647	12898.75
917.882	12886.75
918.117	12906.75
918.352	12798.75
918.588	12696.75
918.823	12544.75
919.057	12510.75
919.292	12213.75
919.527	12338.75
919.762	12157.75
919.997	12019.75
920.232	11900.75
920.466	11821.75
920.701	11643.75
920.935	11618.75
921.17	11497.75
921.405	11478.75
921.639	11521.75
921.873	11366.75
922.108	11428.75
922.342	11338.75
922.576	11335.75
922.811	11204.75
923.045	11155.75
923.279	11232.75
923.513	11091.75
923.747	10960.75
923.981	10938.75
924.215	10861.75
924.449	10758.75
924.683	10670.75
924.917	10630.75
925.151	10621.75
925.385	10608.75
925.618	10583.75
925.852	10502.75
926.086	10415.75
926.319	10468.75
926.553	10446.75
926.786	10395.75
927.02	10388.75
927.253	10402.75
927.486	10407.75
927.72	10267.75
927.953	10300.75
928.186	10279.75
928.42	10254.75
928.653	10090.75
928.886	10113.75
929.119	10063.75
929.352	10127.75
929.585	9961.75
929.818	9869.75
930.051	9784.75
930.284	9727.75
930.516	9614.75
930.749	9583.75
930.982	9482.75
931.215	9521.75
931.447	9299.75
931.68	9373.75
931.912	9361.75
932.145	9272.75
932.377	9319.75
932.61	9420.75
932.842	9291.75
933.074	9226.75
933.307	9203.75
933.539	9344.75
933.771	9312.75
934.003	9199.75
934.236	9296.75
934.468	9275.75
934.7	9199.75
934.932	9153.75
935.164	9111.75
935.395	9042.75
935.627	9066.75
935.859	9059.75
936.091	8906.75
936.323	8990.75
936.554	9011.75
936.786	8829.75
937.017	8880.75
937.249	8842.75
937.481	8751.75
937.712	8846.75
937.943	8711.75
938.175	8642.75
938.406	8686.75
938.637	8704.75
938.869	8617.75
939.1	8656.75
939.331	8608.75
939.562	8523.75
939.793	8573.75
940.024	8587.75
940.255	8562.75
940.486	8380.75
940.717	8375.75
940.948	8280.75
941.179	8328.75
941.409	8310.75
941.64	8221.75
941.871	8256.75
942.102	8199.75
942.332	8213.75
942.563	8307.75
942.793	8248.75
943.024	8149.75
943.254	8213.75
943.484	8258.75
943.715	8239.75
943.945	8218.75
944.175	8161.75
944.405	8078.75
944.636	8059.75
944.866	8124.75
945.096	8080.75
945.326	8018.75
945.556	8017.75
945.786	8032.75
946.016	7941.75
946.245	7860.75
946.475	7753.75
946.705	7762.75
946.935	7757.75
947.164	7676.75
947.394	7620.75
947.624	7589.75
947.853	7613.75
948.083	7550.75
948.312	7483.75
948.542	7452.75
948.771	7375.75
949	7390.75
949.23	7435.75
949.459	7338.75
949.688	7436.75
949.917	7371.75
950.146	7338.75
950.375	7365.75
950.604	7270.75
950.833	7290.75
951.062	7260.75
951.291	7227.75
951.52	7215.75
951.749	7211.75
951.978	7112.75
952.206	7088.75
952.435	7086.75
952.664	7099.75
952.892	7079.75
953.121	7027.75
953.349	6968.75
953.578	6995.75
953.806	6921.75
954.035	6841.75
954.263	6875.75
954.491	6745.75
954.719	6826.75
954.948	6788.75
955.176	6739.75
955.404	6596.75
955.632	6645.75
955.86	6632.75
956.088	6632.75
956.316	6586.75
956.544	6588.75
956.772	6468.75
956.999	6423.75
957.227	6520.75
957.455	6375.75
957.683	6319.75
957.91	6274.75
958.138	6185.75
958.365	6273.75
958.593	6252.75
958.82	6153.75
959.048	6182.75
959.275	6177.75
959.502	6119.75
959.73	6060.75
959.957	6119.75
960.184	6156.75
960.411	6043.75
960.638	6145.75
960.865	6065.75
961.092	6087.75
961.319	5921.75
961.546	6054.75
961.773	6012.75
962	5997.75
962.227	5995.75
962.454	5980.75
962.68	5909.75
962.907	5897.75
963.134	5893.75
963.36	5823.75
963.587	5789.75
963.813	5724.75
964.04	5773.75
964.266	5653.75
964.493	5701.75
964.719	5651.75
964.945	5635.75
965.171	5507.75
965.398	5500.75
965.624	5504.75
965.85	5466.75
966.076	5430.75
966.302	5443.75
966.528	5432.75
966.754	5441.75
966.98	5385.75
967.206	5352.75
967.431	5250.75
967.657	5345.75
967.883	5272.75
968.109	5273.75
968.334	5214.75
968.56	5137.75
968.785	5211.75
969.011	5147.75
969.236	5199.75
969.462	5068.75
969.687	5100.75
969.912	5166.75
970.138	5111.75
970.363	5065.75
970.588	5020.75
970.813	5022.75
971.038	4948.75
971.263	4944.75
971.488	4987.75
971.713	4956.75
971.938	4931.75
972.163	4859.75
972.388	4912.75
972.613	4828.75
972.838	4825.75
973.062	4787.75
973.287	4775.75
973.512	4675.75
973.736	4725.75
973.961	4670.75
974.185	4642.75
974.41	4646.75
974.634	4545.75
974.858	4565.75
975.083	4585.75
975.307	4546.75
975.531	4467.75
975.755	4426.75
975.98	4396.75
976.204	4330.75
976.428	4336.75
976.652	4293.75
976.876	4298.75
977.1	4336.75
977.324	4288.75
977.547	4291.75
977.771	4255.75
977.995	4292.75
978.219	4199.75
978.442	4265.75
978.666	4202.75
978.89	4207.75
979.113	4181.75
979.337	4147.75
979.56	4109.75
979.783	4165.75
980.007	4045.75
980.23	4094.75
980.453	4069.75
980.677	4063.75
980.9	4035.75
981.123	3972.75
981.346	4031.75
981.569	4027.75
981.792	3994.75
982.015	3913.75
982.238	3871.75
982.461	3839.75
982.684	3860.75
982.907	3747.75
983.129	3779.75
983.352	3793.75
983.575	3785.75
983.797	3774.75
984.02	3699.75
984.242	3680.75
984.465	3685.75
984.687	3715.75
984.91	3714.75
985.132	3607.75
985.354	3655.75
985.577	3618.75
985.799	3606.75
986.021	3505.75
986.243	3541.75
986.465	3514.75
986.687	3566.75
986.909	3617.75
987.131	3480.75
987.353	3468.75
987.575	3500.75
987.797	3438.75
988.019	3399.75
988.241	3444.75
988.462	3370.75
988.684	3405.75
988.906	3459.75
989.127	3456.75
989.349	3348.75
989.57	3355.75
989.792	3400.75
990.013	3361.75
990.234	3374.75
990.456	3327.75
990.677	3360.75
990.898	3293.75
991.119	3262.75
991.341	3273.75
991.562	3190.75
991.783	3267.75
992.004	3146.75
992.225	3143.75
992.446	3179.75
992.667	3079.75
992.887	3082.75
993.108	3011.75
993.329	3123.75
993.55	3050.75
993.77	2997.75
993.991	2984.75
994.212	3030.75
994.432	2979.75
994.653	2945.75
994.873	2965.75
995.093	2871.75
995.314	2889.75
995.534	2936.75
995.754	2986.75
995.975	2955.75
996.195	2810.75
996.415	2897.75
996.635	2877.75
996.855	2875.75
997.075	2835.75
997.295	2804.75
997.515	2785.75
997.735	2845.75
997.955	2815.75
998.174	2791.75
998.394	2790.75
998.614	2800.75
998.834	2727.75
999.053	2813.75
999.273	2773.75
999.492	2835.75
999.712	2685.75
999.931	2722.75
1000.151	2776.75
1000.37	2690.75
1000.589	2738.75
1000.809	2679.75
1001.028	2738.75
1001.247	2695.75
1001.466	2557.75
1001.685	2678.75
1001.904	2644.75
1002.123	2617.75
1002.342	2607.75
1002.561	2502.75
1002.78	2540.75
1002.999	2593.75
1003.218	2518.75
1003.436	2495.75
1003.655	2538.75
1003.874	2487.75
1004.092	2498.75
1004.311	2564.75
1004.53	2450.75
1004.748	2543.75
1004.966	2457.75
1005.185	2475.75
1005.403	2480.75
1005.622	2421.75
1005.84	2495.75
1006.058	2386.75
1006.276	2443.75
1006.494	2915.75
1006.712	2430.75
1006.931	2460.75
1007.149	2376.75
1007.367	2363.75
1007.584	2435.75
1007.802	2466.75
1008.02	2376.75
1008.238	2506.75
1008.456	2504.75
1008.673	2357.75
1008.891	2484.75
1009.109	2426.75
1009.326	2488.75
1009.544	2586.75
1009.761	2527.75
1009.979	2658.75
1010.196	2653.75
1010.413	2769.75
1010.631	2855.75
1010.848	2898.75
1011.065	2945.75
1011.282	2861.75
1011.5	2789.75
1011.717	2893.75
1011.934	2792.75
1012.151	2819.75
1012.368	2795.75
1012.585	2788.75
1012.801	2802.75
1013.018	2788.75
1013.235	2748.75
1013.452	2758.75
1013.669	2760.75
1013.885	2756.75
1014.102	2844.75
1014.318	2791.75
1014.535	2737.75
1014.751	2730.75
1014.968	2750.75
1015.184	2716.75
1015.401	2637.75
1015.617	2675.75
1015.833	2588.75
1016.049	2589.75
1016.266	2544.75
1016.482	2574.75
1016.698	2470.75
1016.914	2520.75
1017.13	2466.75
1017.346	2439.75
1017.562	2487.75
1017.778	2414.75
1017.993	2380.75
1018.209	2444.75
1018.425	2393.75
1018.641	2370.75
1018.856	2311.75
1019.072	2349.75
1019.288	2385.75
1019.503	2341.75
1019.719	2298.75
1019.934	2308.75
1020.149	2333.75
1020.365	2247.75
1020.58	2191.75
1020.795	2236.75
1021.011	2172.75
1021.226	2094.75
1021.441	2139.75
1021.656	2057.75
1021.871	1952.75
1022.086	1940.75
1022.301	1918.75
1022.516	1889.75
1022.731	1894.75
1022.946	1844.75
1023.16	1792.75
1023.375	1746.75
1023.59	1755.75
1023.804	1659.75
1024.019	1762.75
1024.234	1639.75
1024.448	1621.75
1024.663	1569.75
1024.877	1564.75
1025.092	1589.75
1025.306	1558.75
1025.52	1415.75
1025.734	1540.75
1025.949	1413.75
1026.163	1377.75
1026.377	1312.75
1026.591	1387.75
1026.805	1266.75
1027.019	1255.75
1027.233	1222.75
1027.447	1156.75
1027.661	1243.75
1027.875	1180.75
1028.088	1180.75
1028.302	1080.75
1028.516	1083.75
1028.73	1069.75
1028.943	1052.75
1029.157	968.75
1029.37	920.75
1029.584	0.75
1029.797	-2.25
1030.011	-2.25
1030.224	-4.25
