Data from QEP037381__295__16-18-59-908.txt Node

Date: Fri Dec 16 16:18:59 EST 2022
User: dcclab
Spectrometer: QEP03738
Trigger mode: 4
Integration Time (sec): 1.000000E1
Scans to average: 1
Electric dark correction enabled: true
Nonlinearity correction enabled: false
Boxcar width: 0
XAxis mode: Wavelengths
Number of Pixels in Spectrum: 1044
>>>>>Begin Spectral Data<<<<<
784.041	12.5
784.3	-0.5
784.558	-1.5
784.817	-5.5
785.075	110919.5
785.334	19245.5
785.592	9077.5
785.851	6304.5
786.109	4738.5
786.368	3709.5
786.626	2957.5
786.884	2499.5
787.143	2084.5
787.401	1705.5
787.659	1539.5
787.917	1321.5
788.175	1207.5
788.433	1060.5
788.691	937.5
788.949	868.5
789.207	821.5
789.465	712.5
789.723	687.5
789.98	625.5
790.238	676.5
790.496	631.5
790.753	580.5
791.011	641.5
791.268	580.5
791.526	551.5
791.783	574.5
792.041	559.5
792.298	457.5
792.556	549.5
792.813	515.5
793.07	502.5
793.327	469.5
793.584	556.5
793.841	483.5
794.099	495.5
794.356	563.5
794.613	455.5
794.869	503.5
795.126	455.5
795.383	444.5
795.64	457.5
795.897	406.5
796.153	469.5
796.41	460.5
796.667	451.5
796.923	453.5
797.18	449.5
797.436	473.5
797.693	443.5
797.949	499.5
798.206	528.5
798.462	441.5
798.718	508.5
798.974	480.5
799.231	535.5
799.487	514.5
799.743	531.5
799.999	570.5
800.255	559.5
800.511	550.5
800.767	592.5
801.023	598.5
801.279	635.5
801.534	682.5
801.79	747.5
802.046	773.5
802.302	962.5
802.557	1112.5
802.813	1398.5
803.068	1749.5
803.324	2433.5
803.579	3349.5
803.835	4619.5
804.09	6412.5
804.345	8365.5
804.601	10561.5
804.856	12844.5
805.111	14893.5
805.366	16387.5
805.621	17620.5
805.876	18324.5
806.131	18901.5
806.386	19314.5
806.641	19641.5
806.896	19965.5
807.151	20414.5
807.406	20675.5
807.661	21109.5
807.915	21517.5
808.17	21715.5
808.425	22063.5
808.679	22184.5
808.934	22415.5
809.188	22589.5
809.443	22893.5
809.697	23189.5
809.951	23306.5
810.206	23463.5
810.46	23791.5
810.714	23959.5
810.968	24117.5
811.223	24366.5
811.477	24655.5
811.731	24770.5
811.985	24978.5
812.239	24940.5
812.493	25081.5
812.747	25286.5
813	25279.5
813.254	25539.5
813.508	25555.5
813.762	25673.5
814.015	25710.5
814.269	25968.5
814.522	26134.5
814.776	26371.5
815.03	26665.5
815.283	27177.5
815.536	27625.5
815.79	28039.5
816.043	28491.5
816.296	28736.5
816.55	29090.5
816.803	29303.5
817.056	29840.5
817.309	30147.5
817.562	30351.5
817.815	30659.5
818.068	30928.5
818.321	31269.5
818.574	31485.5
818.827	31978.5
819.079	32251.5
819.332	32920.5
819.585	33140.5
819.838	33729.5
820.09	33876.5
820.343	34189.5
820.595	34326.5
820.848	34634.5
821.1	34664.5
821.353	34575.5
821.605	34679.5
821.857	34608.5
822.11	34565.5
822.362	34342.5
822.614	34418.5
822.866	34357.5
823.118	34316.5
823.37	34497.5
823.622	34552.5
823.874	34695.5
824.126	34689.5
824.378	34809.5
824.63	34894.5
824.882	35070.5
825.134	34842.5
825.385	34857.5
825.637	34833.5
825.888	34781.5
826.14	34677.5
826.392	34478.5
826.643	34239.5
826.895	34300.5
827.146	34063.5
827.397	33937.5
827.649	34157.5
827.9	33943.5
828.151	33989.5
828.402	33983.5
828.653	34178.5
828.905	34331.5
829.156	34346.5
829.407	34287.5
829.658	34305.5
829.909	34436.5
830.159	34435.5
830.41	34172.5
830.661	34055.5
830.912	33815.5
831.162	33574.5
831.413	33536.5
831.664	33653.5
831.914	33622.5
832.165	33550.5
832.415	33607.5
832.666	33461.5
832.916	33580.5
833.167	33393.5
833.417	33441.5
833.667	33287.5
833.917	33228.5
834.168	33200.5
834.418	33101.5
834.668	32984.5
834.918	32796.5
835.168	32634.5
835.418	32570.5
835.668	32320.5
835.918	32409.5
836.167	32175.5
836.417	32093.5
836.667	32282.5
836.917	32024.5
837.166	31999.5
837.416	32206.5
837.666	32038.5
837.915	32126.5
838.165	31996.5
838.414	31835.5
838.663	31748.5
838.913	31741.5
839.162	31720.5
839.411	31680.5
839.661	31421.5
839.91	31467.5
840.159	31320.5
840.408	31388.5
840.657	31322.5
840.906	31438.5
841.155	31302.5
841.404	31259.5
841.653	31206.5
841.902	31315.5
842.15	31415.5
842.399	31386.5
842.648	31375.5
842.897	31336.5
843.145	30979.5
843.394	30965.5
843.642	30672.5
843.891	30506.5
844.139	30499.5
844.388	30201.5
844.636	29955.5
844.884	30084.5
845.133	29952.5
845.381	29959.5
845.629	29979.5
845.877	29966.5
846.125	29956.5
846.373	29893.5
846.621	29813.5
846.869	29643.5
847.117	29586.5
847.365	29329.5
847.613	29209.5
847.861	29148.5
848.108	29072.5
848.356	28933.5
848.604	28895.5
848.851	28983.5
849.099	28934.5
849.346	29089.5
849.594	29075.5
849.841	29225.5
850.089	29096.5
850.336	29263.5
850.583	29183.5
850.831	29003.5
851.078	28952.5
851.325	28967.5
851.572	28982.5
851.819	28670.5
852.066	28253.5
852.313	27854.5
852.56	27564.5
852.807	27478.5
853.054	27318.5
853.301	27334.5
853.548	27349.5
853.794	27505.5
854.041	27615.5
854.288	27654.5
854.534	28035.5
854.781	27774.5
855.028	27752.5
855.274	27651.5
855.52	27589.5
855.767	27511.5
856.013	27436.5
856.26	27850.5
856.506	27135.5
856.752	27163.5
856.998	27228.5
857.244	27219.5
857.49	27397.5
857.736	27455.5
857.982	27366.5
858.228	27376.5
858.474	27030.5
858.72	26891.5
858.966	26717.5
859.212	26466.5
859.458	26086.5
859.703	25911.5
859.949	25645.5
860.195	25502.5
860.44	25385.5
860.686	25273.5
860.931	25270.5
861.177	25087.5
861.422	25038.5
861.667	24869.5
861.913	24926.5
862.158	24809.5
862.403	24907.5
862.648	24941.5
862.893	24888.5
863.138	24922.5
863.384	24798.5
863.629	24906.5
863.873	24936.5
864.118	24772.5
864.363	24641.5
864.608	24589.5
864.853	24459.5
865.098	24240.5
865.342	24196.5
865.587	24090.5
865.832	24032.5
866.076	24007.5
866.321	23910.5
866.565	23818.5
866.81	23808.5
867.054	23646.5
867.298	23567.5
867.543	23585.5
867.787	23604.5
868.031	23417.5
868.275	23407.5
868.519	23449.5
868.764	23360.5
869.008	23179.5
869.252	23250.5
869.496	23176.5
869.739	23048.5
869.983	23168.5
870.227	23138.5
870.471	23029.5
870.715	23243.5
870.958	23244.5
871.202	23297.5
871.446	23450.5
871.689	23331.5
871.933	23334.5
872.176	23243.5
872.42	23234.5
872.663	23170.5
872.906	23186.5
873.15	23175.5
873.393	23026.5
873.636	22955.5
873.879	22735.5
874.122	22533.5
874.366	22258.5
874.609	22074.5
874.852	21801.5
875.095	21775.5
875.337	21617.5
875.58	21437.5
875.823	21381.5
876.066	21498.5
876.309	21319.5
876.551	21047.5
876.794	21026.5
877.037	21110.5
877.279	20889.5
877.522	20945.5
877.764	20958.5
878.007	20839.5
878.249	20791.5
878.491	20814.5
878.734	20688.5
878.976	20701.5
879.218	20514.5
879.46	20468.5
879.702	20255.5
879.945	20024.5
880.187	19945.5
880.429	19879.5
880.671	19684.5
880.912	19674.5
881.154	19675.5
881.396	19470.5
881.638	19518.5
881.88	19503.5
882.121	19412.5
882.363	19502.5
882.605	19436.5
882.846	19275.5
883.088	19343.5
883.329	19322.5
883.571	19385.5
883.812	19525.5
884.053	19923.5
884.295	20144.5
884.536	20495.5
884.777	20454.5
885.018	20191.5
885.259	20172.5
885.5	19956.5
885.742	20064.5
885.982	19848.5
886.223	19762.5
886.464	19464.5
886.705	19387.5
886.946	19245.5
887.187	18760.5
887.428	18658.5
887.668	18404.5
887.909	18090.5
888.15	17908.5
888.39	17747.5
888.631	17656.5
888.871	17538.5
889.111	17360.5
889.352	17223.5
889.592	17148.5
889.833	16995.5
890.073	16901.5
890.313	16832.5
890.553	16687.5
890.793	16540.5
891.033	16424.5
891.273	16508.5
891.513	16456.5
891.753	16314.5
891.993	16296.5
892.233	16346.5
892.473	16469.5
892.713	16310.5
892.952	16319.5
893.192	16405.5
893.432	16253.5
893.671	16305.5
893.911	16115.5
894.15	16164.5
894.39	15932.5
894.629	15889.5
894.869	15837.5
895.108	15744.5
895.347	15700.5
895.587	15641.5
895.826	15567.5
896.065	15494.5
896.304	15577.5
896.543	15498.5
896.782	15474.5
897.021	15421.5
897.26	15351.5
897.499	15438.5
897.738	15373.5
897.977	15202.5
898.216	15114.5
898.454	14933.5
898.693	14748.5
898.932	14867.5
899.17	14763.5
899.409	14783.5
899.647	14646.5
899.886	14679.5
900.124	14680.5
900.363	14756.5
900.601	14747.5
900.839	14764.5
901.078	14798.5
901.316	14800.5
901.554	14902.5
901.792	15020.5
902.03	14930.5
902.268	14933.5
902.506	14962.5
902.744	14857.5
902.982	14682.5
903.22	14474.5
903.458	14391.5
903.695	14083.5
903.933	13902.5
904.171	13617.5
904.409	13460.5
904.646	13269.5
904.884	13079.5
905.121	12985.5
905.359	12807.5
905.596	12732.5
905.833	12500.5
906.071	12502.5
906.308	12534.5
906.545	12453.5
906.783	12342.5
907.02	12271.5
907.257	12246.5
907.494	12225.5
907.731	12253.5
907.968	12084.5
908.205	12127.5
908.442	11951.5
908.679	11950.5
908.915	11796.5
909.152	11746.5
909.389	11637.5
909.626	11513.5
909.862	11436.5
910.099	11510.5
910.335	11405.5
910.572	11281.5
910.808	11389.5
911.045	11252.5
911.281	11119.5
911.518	11159.5
911.754	11132.5
911.99	11041.5
912.226	10931.5
912.463	10770.5
912.699	10761.5
912.935	10659.5
913.171	10591.5
913.407	10477.5
913.643	10506.5
913.879	10313.5
914.114	10264.5
914.35	10169.5
914.586	10071.5
914.822	9958.5
915.057	9973.5
915.293	9756.5
915.529	9767.5
915.764	9819.5
916	9747.5
916.235	9727.5
916.471	9772.5
916.706	9602.5
916.941	9630.5
917.177	9633.5
917.412	9585.5
917.647	9624.5
917.882	9530.5
918.117	9567.5
918.352	9542.5
918.588	9574.5
918.823	9363.5
919.057	9310.5
919.292	9151.5
919.527	9180.5
919.762	9040.5
919.997	9028.5
920.232	8874.5
920.466	8874.5
920.701	8684.5
920.935	8701.5
921.17	8582.5
921.405	8624.5
921.639	8638.5
921.873	8533.5
922.108	8415.5
922.342	8460.5
922.576	8355.5
922.811	8367.5
923.045	8350.5
923.279	8340.5
923.513	8180.5
923.747	8219.5
923.981	8136.5
924.215	8064.5
924.449	8047.5
924.683	7957.5
924.917	7901.5
925.151	7905.5
925.385	7928.5
925.618	7869.5
925.852	7871.5
926.086	7789.5
926.319	7799.5
926.553	7766.5
926.786	7826.5
927.02	7814.5
927.253	7761.5
927.486	7797.5
927.72	7658.5
927.953	7753.5
928.186	7643.5
928.42	7665.5
928.653	7640.5
928.886	7562.5
929.119	7546.5
929.352	7517.5
929.585	7447.5
929.818	7348.5
930.051	7334.5
930.284	7321.5
930.516	7133.5
930.749	7183.5
930.982	7155.5
931.215	7066.5
931.447	6994.5
931.68	7006.5
931.912	7000.5
932.145	7030.5
932.377	7017.5
932.61	7139.5
932.842	6897.5
933.074	6993.5
933.307	6946.5
933.539	6991.5
933.771	7001.5
934.003	6944.5
934.236	7001.5
934.468	7042.5
934.7	6875.5
934.932	6920.5
935.164	6826.5
935.395	6801.5
935.627	6794.5
935.859	6803.5
936.091	6782.5
936.323	6762.5
936.554	6774.5
936.786	6676.5
937.017	6610.5
937.249	6630.5
937.481	6549.5
937.712	6655.5
937.943	6559.5
938.175	6602.5
938.406	6498.5
938.637	6614.5
938.869	6469.5
939.1	6507.5
939.331	6438.5
939.562	6498.5
939.793	6428.5
940.024	6433.5
940.255	6424.5
940.486	6404.5
940.717	6368.5
940.948	6327.5
941.179	6224.5
941.409	6253.5
941.64	6198.5
941.871	6211.5
942.102	6206.5
942.332	6239.5
942.563	6251.5
942.793	6186.5
943.024	6121.5
943.254	6201.5
943.484	6212.5
943.715	6166.5
943.945	6137.5
944.175	6110.5
944.405	6093.5
944.636	6076.5
944.866	6123.5
945.096	6187.5
945.326	6086.5
945.556	6022.5
945.786	6030.5
946.016	6011.5
946.245	5899.5
946.475	5923.5
946.705	5844.5
946.935	5859.5
947.164	5868.5
947.394	5729.5
947.624	5744.5
947.853	5764.5
948.083	5737.5
948.312	5685.5
948.542	5589.5
948.771	5577.5
949	5579.5
949.23	5574.5
949.459	5582.5
949.688	5700.5
949.917	5538.5
950.146	5531.5
950.375	5655.5
950.604	5455.5
950.833	5542.5
951.062	5596.5
951.291	5529.5
951.52	5446.5
951.749	5435.5
951.978	5404.5
952.206	5376.5
952.435	5389.5
952.664	5386.5
952.892	5416.5
953.121	5320.5
953.349	5313.5
953.578	5301.5
953.806	5272.5
954.035	5224.5
954.263	5222.5
954.491	5133.5
954.719	5179.5
954.948	5090.5
955.176	5128.5
955.404	5009.5
955.632	5050.5
955.86	5121.5
956.088	5041.5
956.316	5039.5
956.544	4962.5
956.772	4884.5
956.999	4883.5
957.227	4987.5
957.455	4837.5
957.683	4848.5
957.91	4819.5
958.138	4743.5
958.365	4728.5
958.593	4764.5
958.82	4691.5
959.048	4735.5
959.275	4723.5
959.502	4633.5
959.73	4646.5
959.957	4685.5
960.184	4658.5
960.411	4636.5
960.638	4662.5
960.865	4595.5
961.092	4576.5
961.319	4528.5
961.546	4631.5
961.773	4551.5
962	4570.5
962.227	4609.5
962.454	4546.5
962.68	4515.5
962.907	4510.5
963.134	4423.5
963.36	4485.5
963.587	4482.5
963.813	4386.5
964.04	4356.5
964.266	4269.5
964.493	4361.5
964.719	4322.5
964.945	4277.5
965.171	4166.5
965.398	4276.5
965.624	4200.5
965.85	4141.5
966.076	4149.5
966.302	4176.5
966.528	4107.5
966.754	4078.5
966.98	4141.5
967.206	4144.5
967.431	3998.5
967.657	4121.5
967.883	4083.5
968.109	4051.5
968.334	4018.5
968.56	3981.5
968.785	3981.5
969.011	3952.5
969.236	3982.5
969.462	3895.5
969.687	3912.5
969.912	3977.5
970.138	3933.5
970.363	3916.5
970.588	3910.5
970.813	3821.5
971.038	3813.5
971.263	3844.5
971.488	3840.5
971.713	3868.5
971.938	3865.5
972.163	3701.5
972.388	3746.5
972.613	3735.5
972.838	3688.5
973.062	3684.5
973.287	3721.5
973.512	3590.5
973.736	3653.5
973.961	3660.5
974.185	3574.5
974.41	3661.5
974.634	3509.5
974.858	3524.5
975.083	3508.5
975.307	3537.5
975.531	3496.5
975.755	3360.5
975.98	3403.5
976.204	3337.5
976.428	3344.5
976.652	3316.5
976.876	3312.5
977.1	3357.5
977.324	3283.5
977.547	3322.5
977.771	3324.5
977.995	3263.5
978.219	3233.5
978.442	3303.5
978.666	3242.5
978.89	3248.5
979.113	3269.5
979.337	3195.5
979.56	3157.5
979.783	3298.5
980.007	3144.5
980.23	3177.5
980.453	3142.5
980.677	3182.5
980.9	3147.5
981.123	3052.5
981.346	3131.5
981.569	3121.5
981.792	3096.5
982.015	3035.5
982.238	3039.5
982.461	3004.5
982.684	3016.5
982.907	2910.5
983.129	2964.5
983.352	2943.5
983.575	2933.5
983.797	2931.5
984.02	2896.5
984.242	2892.5
984.465	2880.5
984.687	2934.5
984.91	2899.5
985.132	2902.5
985.354	2867.5
985.577	2823.5
985.799	2783.5
986.021	2753.5
986.243	2777.5
986.465	2800.5
986.687	2788.5
986.909	2841.5
987.131	2751.5
987.353	2709.5
987.575	2744.5
987.797	2708.5
988.019	2636.5
988.241	2683.5
988.462	2652.5
988.684	2711.5
988.906	2716.5
989.127	2747.5
989.349	2599.5
989.57	2613.5
989.792	2710.5
990.013	2689.5
990.234	2660.5
990.456	2713.5
990.677	2685.5
990.898	2616.5
991.119	2597.5
991.341	2648.5
991.562	2571.5
991.783	2563.5
992.004	2508.5
992.225	2463.5
992.446	2526.5
992.667	2433.5
992.887	2494.5
993.108	2437.5
993.329	2543.5
993.55	2438.5
993.77	2395.5
993.991	2404.5
994.212	2406.5
994.432	2368.5
994.653	2433.5
994.873	2384.5
995.093	2272.5
995.314	2321.5
995.534	2364.5
995.754	2411.5
995.975	2414.5
996.195	2272.5
996.415	2350.5
996.635	2307.5
996.855	2315.5
997.075	2282.5
997.295	2275.5
997.515	2263.5
997.735	2296.5
997.955	2255.5
998.174	2261.5
998.394	2221.5
998.614	2267.5
998.834	2256.5
999.053	2259.5
999.273	2264.5
999.492	2299.5
999.712	2229.5
999.931	2200.5
1000.151	2226.5
1000.37	2210.5
1000.589	2258.5
1000.809	2176.5
1001.028	2290.5
1001.247	2219.5
1001.466	2102.5
1001.685	2225.5
1001.904	2138.5
1002.123	2108.5
1002.342	2140.5
1002.561	2063.5
1002.78	2097.5
1002.999	2157.5
1003.218	2094.5
1003.436	2035.5
1003.655	2112.5
1003.874	2014.5
1004.092	2050.5
1004.311	2091.5
1004.53	2032.5
1004.748	2121.5
1004.966	2033.5
1005.185	2048.5
1005.403	2052.5
1005.622	2027.5
1005.84	2081.5
1006.058	1996.5
1006.276	1978.5
1006.494	2531.5
1006.712	2026.5
1006.931	2082.5
1007.149	1983.5
1007.367	1977.5
1007.584	2031.5
1007.802	2072.5
1008.02	2036.5
1008.238	2121.5
1008.456	2139.5
1008.673	1992.5
1008.891	2102.5
1009.109	2101.5
1009.326	2128.5
1009.544	2235.5
1009.761	2161.5
1009.979	2285.5
1010.196	2352.5
1010.413	2432.5
1010.631	2519.5
1010.848	2604.5
1011.065	2563.5
1011.282	2517.5
1011.5	2469.5
1011.717	2592.5
1011.934	2494.5
1012.151	2515.5
1012.368	2498.5
1012.585	2443.5
1012.801	2495.5
1013.018	2455.5
1013.235	2441.5
1013.452	2453.5
1013.669	2487.5
1013.885	2434.5
1014.102	2491.5
1014.318	2461.5
1014.535	2422.5
1014.751	2502.5
1014.968	2428.5
1015.184	2427.5
1015.401	2359.5
1015.617	2402.5
1015.833	2340.5
1016.049	2306.5
1016.266	2287.5
1016.482	2267.5
1016.698	2194.5
1016.914	2261.5
1017.13	2140.5
1017.346	2135.5
1017.562	2284.5
1017.778	2165.5
1017.993	2103.5
1018.209	2186.5
1018.425	2143.5
1018.641	2125.5
1018.856	2085.5
1019.072	2115.5
1019.288	2167.5
1019.503	2108.5
1019.719	2031.5
1019.934	2013.5
1020.149	2096.5
1020.365	2023.5
1020.58	1969.5
1020.795	1963.5
1021.011	1893.5
1021.226	1872.5
1021.441	1887.5
1021.656	1761.5
1021.871	1707.5
1022.086	1718.5
1022.301	1691.5
1022.516	1670.5
1022.731	1697.5
1022.946	1623.5
1023.16	1615.5
1023.375	1559.5
1023.59	1523.5
1023.804	1505.5
1024.019	1558.5
1024.234	1431.5
1024.448	1427.5
1024.663	1367.5
1024.877	1388.5
1025.092	1387.5
1025.306	1355.5
1025.52	1252.5
1025.734	1345.5
1025.949	1255.5
1026.163	1196.5
1026.377	1144.5
1026.591	1207.5
1026.805	1119.5
1027.019	1123.5
1027.233	1072.5
1027.447	1027.5
1027.661	1115.5
1027.875	1001.5
1028.088	1035.5
1028.302	943.5
1028.516	941.5
1028.73	930.5
1028.943	911.5
1029.157	868.5
1029.37	794.5
1029.584	-2.5
1029.797	1.5
1030.011	-2.5
1030.224	-1.5
