Data from QEP037381__348__16-27-49-914.txt Node

Date: Fri Dec 16 16:27:49 EST 2022
User: dcclab
Spectrometer: QEP03738
Trigger mode: 4
Integration Time (sec): 1.000000E1
Scans to average: 1
Electric dark correction enabled: true
Nonlinearity correction enabled: false
Boxcar width: 0
XAxis mode: Wavelengths
Number of Pixels in Spectrum: 1044
>>>>>Begin Spectral Data<<<<<
784.041	12.75
784.3	1.75
784.558	-2.25
784.817	-0.25
785.075	118200.75
785.334	20193.75
785.592	9330.75
785.851	6411.75
786.109	4842.75
786.368	3722.75
786.626	3046.75
786.884	2522.75
787.143	2137.75
787.401	1731.75
787.659	1561.75
787.917	1328.75
788.175	1200.75
788.433	1059.75
788.691	948.75
788.949	856.75
789.207	838.75
789.465	725.75
789.723	686.75
789.98	636.75
790.238	660.75
790.496	630.75
790.753	606.75
791.011	641.75
791.268	571.75
791.526	558.75
791.783	567.75
792.041	543.75
792.298	468.75
792.556	544.75
792.813	506.75
793.07	493.75
793.327	483.75
793.584	559.75
793.841	468.75
794.099	497.75
794.356	546.75
794.613	448.75
794.869	488.75
795.126	444.75
795.383	441.75
795.64	453.75
795.897	403.75
796.153	460.75
796.41	458.75
796.667	434.75
796.923	442.75
797.18	445.75
797.436	486.75
797.693	428.75
797.949	470.75
798.206	510.75
798.462	418.75
798.718	483.75
798.974	468.75
799.231	508.75
799.487	512.75
799.743	509.75
799.999	545.75
800.255	542.75
800.511	532.75
800.767	568.75
801.023	572.75
801.279	585.75
801.534	643.75
801.79	687.75
802.046	728.75
802.302	879.75
802.557	1016.75
802.813	1240.75
803.068	1567.75
803.324	2164.75
803.579	2976.75
803.835	4127.75
804.09	5675.75
804.345	7348.75
804.601	9317.75
804.856	11263.75
805.111	12983.75
805.366	14205.75
805.621	15294.75
805.876	15928.75
806.131	16263.75
806.386	16733.75
806.641	17128.75
806.896	17328.75
807.151	17700.75
807.406	17877.75
807.661	18110.75
807.915	18586.75
808.17	18856.75
808.425	19013.75
808.679	19226.75
808.934	19549.75
809.188	19630.75
809.443	19762.75
809.697	20120.75
809.951	20079.75
810.206	20314.75
810.46	20522.75
810.714	20771.75
810.968	20994.75
811.223	21091.75
811.477	21256.75
811.731	21385.75
811.985	21540.75
812.239	21685.75
812.493	21736.75
812.747	21832.75
813	21874.75
813.254	22000.75
813.508	22091.75
813.762	22218.75
814.015	22257.75
814.269	22431.75
814.522	22699.75
814.776	22821.75
815.03	23155.75
815.283	23441.75
815.536	23789.75
815.79	24221.75
816.043	24589.75
816.296	24842.75
816.55	25072.75
816.803	25378.75
817.056	25934.75
817.309	25991.75
817.562	26231.75
817.815	26595.75
818.068	26707.75
818.321	26956.75
818.574	27345.75
818.827	27552.75
819.079	27965.75
819.332	28447.75
819.585	28611.75
819.838	29133.75
820.09	29270.75
820.343	29491.75
820.595	29502.75
820.848	29736.75
821.1	29904.75
821.353	29923.75
821.605	29880.75
821.857	29885.75
822.11	29694.75
822.362	29652.75
822.614	29501.75
822.866	29691.75
823.118	29659.75
823.37	29796.75
823.622	29984.75
823.874	30006.75
824.126	30053.75
824.378	30061.75
824.63	30210.75
824.882	30186.75
825.134	30188.75
825.385	30257.75
825.637	30082.75
825.888	30169.75
826.14	29820.75
826.392	29829.75
826.643	29649.75
826.895	29545.75
827.146	29467.75
827.397	29394.75
827.649	29389.75
827.9	29304.75
828.151	29404.75
828.402	29429.75
828.653	29583.75
828.905	29576.75
829.156	29701.75
829.407	29712.75
829.658	29685.75
829.909	29767.75
830.159	29856.75
830.41	29667.75
830.661	29507.75
830.912	29253.75
831.162	29124.75
831.413	29248.75
831.664	29166.75
831.914	29230.75
832.165	29005.75
832.415	28934.75
832.666	29012.75
832.916	29144.75
833.167	29000.75
833.417	29003.75
833.667	28880.75
833.917	28940.75
834.168	28688.75
834.418	28677.75
834.668	28547.75
834.918	28488.75
835.168	28316.75
835.418	28116.75
835.668	28039.75
835.918	27932.75
836.167	27988.75
836.417	27798.75
836.667	27832.75
836.917	27847.75
837.166	27816.75
837.416	27823.75
837.666	27774.75
837.915	27733.75
838.165	27707.75
838.414	27690.75
838.663	27597.75
838.913	27653.75
839.162	27645.75
839.411	27555.75
839.661	27428.75
839.91	27329.75
840.159	27305.75
840.408	27349.75
840.657	27149.75
840.906	27270.75
841.155	27354.75
841.404	27356.75
841.653	27320.75
841.902	27330.75
842.15	27307.75
842.399	27484.75
842.648	27337.75
842.897	27264.75
843.145	27045.75
843.394	26847.75
843.642	26761.75
843.891	26605.75
844.139	26515.75
844.388	26385.75
844.636	26077.75
844.884	26219.75
845.133	26241.75
845.381	26236.75
845.629	26261.75
845.877	26049.75
846.125	26098.75
846.373	26122.75
846.621	25948.75
846.869	25844.75
847.117	25754.75
847.365	25519.75
847.613	25484.75
847.861	25466.75
848.108	25376.75
848.356	25344.75
848.604	25182.75
848.851	25268.75
849.099	25299.75
849.346	25360.75
849.594	25440.75
849.841	25683.75
850.089	25536.75
850.336	25585.75
850.583	25554.75
850.831	25398.75
851.078	25349.75
851.325	25311.75
851.572	25481.75
851.819	25122.75
852.066	24643.75
852.313	24333.75
852.56	24157.75
852.807	24102.75
853.054	24057.75
853.301	23855.75
853.548	24076.75
853.794	24058.75
854.041	24167.75
854.288	24341.75
854.534	24581.75
854.781	24482.75
855.028	24305.75
855.274	24374.75
855.52	24158.75
855.767	24151.75
856.013	24209.75
856.26	24581.75
856.506	23944.75
856.752	23845.75
856.998	23922.75
857.244	23930.75
857.49	24072.75
857.736	24094.75
857.982	24188.75
858.228	23983.75
858.474	23816.75
858.72	23726.75
858.966	23515.75
859.212	23311.75
859.458	23058.75
859.703	22849.75
859.949	22540.75
860.195	22503.75
860.44	22386.75
860.686	22274.75
860.931	22241.75
861.177	22112.75
861.422	22048.75
861.667	21917.75
861.913	21826.75
862.158	21927.75
862.403	21993.75
862.648	22041.75
862.893	22071.75
863.138	22161.75
863.384	22005.75
863.629	21898.75
863.873	21837.75
864.118	21809.75
864.363	21731.75
864.608	21704.75
864.853	21500.75
865.098	21396.75
865.342	21329.75
865.587	21240.75
865.832	21209.75
866.076	21167.75
866.321	21066.75
866.565	21132.75
866.81	20920.75
867.054	20968.75
867.298	20839.75
867.543	20761.75
867.787	20830.75
868.031	20714.75
868.275	20666.75
868.519	20696.75
868.764	20626.75
869.008	20601.75
869.252	20572.75
869.496	20463.75
869.739	20470.75
869.983	20446.75
870.227	20517.75
870.471	20488.75
870.715	20514.75
870.958	20562.75
871.202	20602.75
871.446	20722.75
871.689	20641.75
871.933	20659.75
872.176	20612.75
872.42	20530.75
872.663	20509.75
872.906	20460.75
873.15	20458.75
873.393	20437.75
873.636	20406.75
873.879	20257.75
874.122	19954.75
874.366	19771.75
874.609	19615.75
874.852	19436.75
875.095	19250.75
875.337	19237.75
875.58	19010.75
875.823	19039.75
876.066	18981.75
876.309	18963.75
876.551	18748.75
876.794	18744.75
877.037	18732.75
877.279	18633.75
877.522	18605.75
877.764	18625.75
878.007	18459.75
878.249	18558.75
878.491	18467.75
878.734	18446.75
878.976	18469.75
879.218	18262.75
879.46	18209.75
879.702	18118.75
879.945	17949.75
880.187	17721.75
880.429	17693.75
880.671	17529.75
880.912	17480.75
881.154	17450.75
881.396	17374.75
881.638	17353.75
881.88	17409.75
882.121	17237.75
882.363	17285.75
882.605	17371.75
882.846	17298.75
883.088	17248.75
883.329	17267.75
883.571	17260.75
883.812	17471.75
884.053	17807.75
884.295	18187.75
884.536	18387.75
884.777	18233.75
885.018	18062.75
885.259	18025.75
885.5	17805.75
885.742	18045.75
885.982	17776.75
886.223	17660.75
886.464	17437.75
886.705	17313.75
886.946	17124.75
887.187	16813.75
887.428	16719.75
887.668	16384.75
887.909	16087.75
888.15	15957.75
888.39	15827.75
888.631	15788.75
888.871	15632.75
889.111	15535.75
889.352	15504.75
889.592	15247.75
889.833	15109.75
890.073	15139.75
890.313	15039.75
890.553	14842.75
890.793	14771.75
891.033	14766.75
891.273	14663.75
891.513	14711.75
891.753	14646.75
891.993	14593.75
892.233	14553.75
892.473	14697.75
892.713	14585.75
892.952	14567.75
893.192	14611.75
893.432	14486.75
893.671	14578.75
893.911	14484.75
894.15	14347.75
894.39	14259.75
894.629	14214.75
894.869	14110.75
895.108	14039.75
895.347	14050.75
895.587	14039.75
895.826	13885.75
896.065	13947.75
896.304	13863.75
896.543	14059.75
896.782	13841.75
897.021	13875.75
897.26	13870.75
897.499	13804.75
897.738	13717.75
897.977	13671.75
898.216	13559.75
898.454	13451.75
898.693	13244.75
898.932	13302.75
899.17	13352.75
899.409	13189.75
899.647	13120.75
899.886	13127.75
900.124	13222.75
900.363	13158.75
900.601	13230.75
900.839	13248.75
901.078	13309.75
901.316	13320.75
901.554	13366.75
901.792	13441.75
902.03	13503.75
902.268	13350.75
902.506	13443.75
902.744	13257.75
902.982	13261.75
903.22	13048.75
903.458	12886.75
903.695	12592.75
903.933	12474.75
904.171	12278.75
904.409	12013.75
904.646	11996.75
904.884	11820.75
905.121	11613.75
905.359	11591.75
905.596	11459.75
905.833	11274.75
906.071	11196.75
906.308	11226.75
906.545	11155.75
906.783	11058.75
907.02	11118.75
907.257	11045.75
907.494	10979.75
907.731	10984.75
907.968	10936.75
908.205	10879.75
908.442	10765.75
908.679	10743.75
908.915	10610.75
909.152	10532.75
909.389	10470.75
909.626	10392.75
909.862	10327.75
910.099	10325.75
910.335	10354.75
910.572	10184.75
910.808	10108.75
911.045	10128.75
911.281	10001.75
911.518	10097.75
911.754	9984.75
911.99	10000.75
912.226	9885.75
912.463	9806.75
912.699	9763.75
912.935	9619.75
913.171	9591.75
913.407	9391.75
913.643	9470.75
913.879	9349.75
914.114	9258.75
914.35	9221.75
914.586	9108.75
914.822	8951.75
915.057	8994.75
915.293	8808.75
915.529	8810.75
915.764	8859.75
916	8783.75
916.235	8798.75
916.471	8808.75
916.706	8725.75
916.941	8735.75
917.177	8675.75
917.412	8774.75
917.647	8722.75
917.882	8590.75
918.117	8653.75
918.352	8601.75
918.588	8637.75
918.823	8485.75
919.057	8334.75
919.292	8285.75
919.527	8360.75
919.762	8169.75
919.997	8181.75
920.232	7998.75
920.466	8041.75
920.701	7846.75
920.935	7893.75
921.17	7769.75
921.405	7751.75
921.639	7769.75
921.873	7758.75
922.108	7682.75
922.342	7667.75
922.576	7623.75
922.811	7583.75
923.045	7542.75
923.279	7602.75
923.513	7357.75
923.747	7487.75
923.981	7419.75
924.215	7296.75
924.449	7257.75
924.683	7253.75
924.917	7180.75
925.151	7197.75
925.385	7216.75
925.618	7119.75
925.852	7209.75
926.086	7033.75
926.319	7097.75
926.553	7093.75
926.786	7111.75
927.02	7093.75
927.253	7121.75
927.486	7065.75
927.72	6925.75
927.953	7075.75
928.186	6993.75
928.42	6949.75
928.653	6921.75
928.886	6837.75
929.119	6863.75
929.352	6825.75
929.585	6844.75
929.818	6658.75
930.051	6667.75
930.284	6655.75
930.516	6518.75
930.749	6516.75
930.982	6561.75
931.215	6455.75
931.447	6372.75
931.68	6402.75
931.912	6396.75
932.145	6332.75
932.377	6388.75
932.61	6540.75
932.842	6233.75
933.074	6351.75
933.307	6300.75
933.539	6368.75
933.771	6404.75
934.003	6310.75
934.236	6370.75
934.468	6414.75
934.7	6287.75
934.932	6297.75
935.164	6238.75
935.395	6188.75
935.627	6178.75
935.859	6143.75
936.091	6113.75
936.323	6169.75
936.554	6137.75
936.786	6113.75
937.017	6071.75
937.249	6113.75
937.481	5960.75
937.712	6065.75
937.943	5967.75
938.175	5974.75
938.406	5947.75
938.637	6005.75
938.869	5935.75
939.1	5913.75
939.331	5938.75
939.562	5910.75
939.793	5890.75
940.024	5872.75
940.255	5884.75
940.486	5750.75
940.717	5790.75
940.948	5711.75
941.179	5690.75
941.409	5698.75
941.64	5694.75
941.871	5771.75
942.102	5655.75
942.332	5656.75
942.563	5728.75
942.793	5692.75
943.024	5624.75
943.254	5670.75
943.484	5677.75
943.715	5643.75
943.945	5617.75
944.175	5590.75
944.405	5567.75
944.636	5605.75
944.866	5618.75
945.096	5564.75
945.326	5467.75
945.556	5568.75
945.786	5544.75
946.016	5453.75
946.245	5360.75
946.475	5406.75
946.705	5357.75
946.935	5325.75
947.164	5278.75
947.394	5277.75
947.624	5243.75
947.853	5263.75
948.083	5235.75
948.312	5202.75
948.542	5123.75
948.771	5060.75
949	5128.75
949.23	5075.75
949.459	5115.75
949.688	5149.75
949.917	5092.75
950.146	5066.75
950.375	5084.75
950.604	5056.75
950.833	5125.75
951.062	5112.75
951.291	5018.75
951.52	5017.75
951.749	4986.75
951.978	4922.75
952.206	4882.75
952.435	4911.75
952.664	4919.75
952.892	4951.75
953.121	4905.75
953.349	4950.75
953.578	4887.75
953.806	4831.75
954.035	4756.75
954.263	4803.75
954.491	4721.75
954.719	4760.75
954.948	4658.75
955.176	4613.75
955.404	4582.75
955.632	4639.75
955.86	4661.75
956.088	4628.75
956.316	4629.75
956.544	4616.75
956.772	4541.75
956.999	4477.75
957.227	4574.75
957.455	4468.75
957.683	4492.75
957.91	4430.75
958.138	4405.75
958.365	4395.75
958.593	4369.75
958.82	4339.75
959.048	4361.75
959.275	4283.75
959.502	4328.75
959.73	4249.75
959.957	4287.75
960.184	4325.75
960.411	4236.75
960.638	4349.75
960.865	4226.75
961.092	4302.75
961.319	4178.75
961.546	4302.75
961.773	4228.75
962	4163.75
962.227	4253.75
962.454	4215.75
962.68	4171.75
962.907	4201.75
963.134	4136.75
963.36	4087.75
963.587	4109.75
963.813	4023.75
964.04	4024.75
964.266	3955.75
964.493	4041.75
964.719	4005.75
964.945	3954.75
965.171	3854.75
965.398	3935.75
965.624	3898.75
965.85	3815.75
966.076	3800.75
966.302	3912.75
966.528	3814.75
966.754	3818.75
966.98	3797.75
967.206	3789.75
967.431	3743.75
967.657	3791.75
967.883	3782.75
968.109	3763.75
968.334	3684.75
968.56	3679.75
968.785	3671.75
969.011	3638.75
969.236	3732.75
969.462	3648.75
969.687	3627.75
969.912	3662.75
970.138	3720.75
970.363	3560.75
970.588	3598.75
970.813	3555.75
971.038	3528.75
971.263	3533.75
971.488	3572.75
971.713	3550.75
971.938	3526.75
972.163	3417.75
972.388	3476.75
972.613	3420.75
972.838	3445.75
973.062	3405.75
973.287	3395.75
973.512	3351.75
973.736	3425.75
973.961	3307.75
974.185	3340.75
974.41	3365.75
974.634	3257.75
974.858	3214.75
975.083	3310.75
975.307	3266.75
975.531	3230.75
975.755	3165.75
975.98	3140.75
976.204	3099.75
976.428	3072.75
976.652	3095.75
976.876	3029.75
977.1	3091.75
977.324	3059.75
977.547	3090.75
977.771	3088.75
977.995	3034.75
978.219	2959.75
978.442	3111.75
978.666	3032.75
978.89	2983.75
979.113	3030.75
979.337	2975.75
979.56	2957.75
979.783	3023.75
980.007	2907.75
980.23	2955.75
980.453	2900.75
980.677	2921.75
980.9	2927.75
981.123	2827.75
981.346	2898.75
981.569	2891.75
981.792	2892.75
982.015	2836.75
982.238	2755.75
982.461	2805.75
982.684	2748.75
982.907	2758.75
983.129	2702.75
983.352	2784.75
983.575	2732.75
983.797	2754.75
984.02	2669.75
984.242	2661.75
984.465	2676.75
984.687	2714.75
984.91	2711.75
985.132	2681.75
985.354	2676.75
985.577	2639.75
985.799	2608.75
986.021	2548.75
986.243	2559.75
986.465	2574.75
986.687	2626.75
986.909	2665.75
987.131	2595.75
987.353	2524.75
987.575	2555.75
987.797	2524.75
988.019	2450.75
988.241	2514.75
988.462	2506.75
988.684	2542.75
988.906	2533.75
989.127	2572.75
989.349	2440.75
989.57	2446.75
989.792	2509.75
990.013	2494.75
990.234	2476.75
990.456	2523.75
990.677	2498.75
990.898	2431.75
991.119	2430.75
991.341	2437.75
991.562	2354.75
991.783	2400.75
992.004	2347.75
992.225	2296.75
992.446	2392.75
992.667	2258.75
992.887	2349.75
993.108	2210.75
993.329	2348.75
993.55	2295.75
993.77	2243.75
993.991	2244.75
994.212	2279.75
994.432	2226.75
994.653	2271.75
994.873	2229.75
995.093	2093.75
995.314	2175.75
995.534	2210.75
995.754	2246.75
995.975	2257.75
996.195	2150.75
996.415	2179.75
996.635	2172.75
996.855	2181.75
997.075	2109.75
997.295	2135.75
997.515	2117.75
997.735	2188.75
997.955	2142.75
998.174	2120.75
998.394	2113.75
998.614	2151.75
998.834	2110.75
999.053	2179.75
999.273	2110.75
999.492	2168.75
999.712	2104.75
999.931	2095.75
1000.151	2102.75
1000.37	2069.75
1000.589	2114.75
1000.809	2050.75
1001.028	2179.75
1001.247	2068.75
1001.466	1967.75
1001.685	2155.75
1001.904	2023.75
1002.123	1994.75
1002.342	2005.75
1002.561	1964.75
1002.78	1955.75
1002.999	2023.75
1003.218	1959.75
1003.436	1931.75
1003.655	1950.75
1003.874	1903.75
1004.092	1938.75
1004.311	1937.75
1004.53	1931.75
1004.748	2006.75
1004.966	1899.75
1005.185	1974.75
1005.403	1935.75
1005.622	1932.75
1005.84	2010.75
1006.058	1903.75
1006.276	1930.75
1006.494	2412.75
1006.712	1911.75
1006.931	1961.75
1007.149	1865.75
1007.367	1846.75
1007.584	1930.75
1007.802	1974.75
1008.02	1931.75
1008.238	2021.75
1008.456	2035.75
1008.673	1889.75
1008.891	2009.75
1009.109	1987.75
1009.326	2055.75
1009.544	2128.75
1009.761	2057.75
1009.979	2143.75
1010.196	2192.75
1010.413	2295.75
1010.631	2378.75
1010.848	2399.75
1011.065	2480.75
1011.282	2400.75
1011.5	2336.75
1011.717	2449.75
1011.934	2363.75
1012.151	2419.75
1012.368	2368.75
1012.585	2313.75
1012.801	2378.75
1013.018	2320.75
1013.235	2305.75
1013.452	2323.75
1013.669	2355.75
1013.885	2329.75
1014.102	2343.75
1014.318	2327.75
1014.535	2314.75
1014.751	2305.75
1014.968	2307.75
1015.184	2328.75
1015.401	2215.75
1015.617	2212.75
1015.833	2192.75
1016.049	2182.75
1016.266	2159.75
1016.482	2161.75
1016.698	2085.75
1016.914	2151.75
1017.13	2069.75
1017.346	2038.75
1017.562	2091.75
1017.778	2061.75
1017.993	1987.75
1018.209	2040.75
1018.425	2066.75
1018.641	1992.75
1018.856	1967.75
1019.072	1993.75
1019.288	2027.75
1019.503	2005.75
1019.719	1914.75
1019.934	1899.75
1020.149	1997.75
1020.365	1906.75
1020.58	1875.75
1020.795	1903.75
1021.011	1797.75
1021.226	1776.75
1021.441	1779.75
1021.656	1715.75
1021.871	1618.75
1022.086	1616.75
1022.301	1580.75
1022.516	1589.75
1022.731	1598.75
1022.946	1526.75
1023.16	1496.75
1023.375	1476.75
1023.59	1422.75
1023.804	1409.75
1024.019	1488.75
1024.234	1376.75
1024.448	1369.75
1024.663	1294.75
1024.877	1304.75
1025.092	1313.75
1025.306	1326.75
1025.52	1208.75
1025.734	1287.75
1025.949	1186.75
1026.163	1156.75
1026.377	1091.75
1026.591	1146.75
1026.805	1064.75
1027.019	1059.75
1027.233	1028.75
1027.447	971.75
1027.661	1064.75
1027.875	965.75
1028.088	971.75
1028.302	909.75
1028.516	885.75
1028.73	889.75
1028.943	879.75
1029.157	810.75
1029.37	761.75
1029.584	-3.25
1029.797	-4.25
1030.011	-2.25
1030.224	-2.25
