Data from QEP037381__259__16-12-59-903.txt Node

Date: Fri Dec 16 16:12:59 EST 2022
User: dcclab
Spectrometer: QEP03738
Trigger mode: 4
Integration Time (sec): 1.000000E1
Scans to average: 1
Electric dark correction enabled: true
Nonlinearity correction enabled: false
Boxcar width: 0
XAxis mode: Wavelengths
Number of Pixels in Spectrum: 1044
>>>>>Begin Spectral Data<<<<<
784.041	14.88
784.3	2.88
784.558	-6.12
784.817	-2.12
785.075	108712.88
785.334	18684.88
785.592	8693.88
785.851	5955.88
786.109	4525.88
786.368	3540.88
786.626	2875.88
786.884	2347.88
787.143	1980.88
787.401	1676.88
787.659	1517.88
787.917	1296.88
788.175	1178.88
788.433	1046.88
788.691	915.88
788.949	847.88
789.207	834.88
789.465	711.88
789.723	686.88
789.98	641.88
790.238	661.88
790.496	640.88
790.753	606.88
791.011	654.88
791.268	581.88
791.526	563.88
791.783	575.88
792.041	562.88
792.298	473.88
792.556	537.88
792.813	513.88
793.07	495.88
793.327	487.88
793.584	556.88
793.841	483.88
794.099	502.88
794.356	555.88
794.613	468.88
794.869	520.88
795.126	463.88
795.383	444.88
795.64	478.88
795.897	436.88
796.153	475.88
796.41	465.88
796.667	453.88
796.923	469.88
797.18	480.88
797.436	495.88
797.693	457.88
797.949	511.88
798.206	539.88
798.462	460.88
798.718	512.88
798.974	499.88
799.231	542.88
799.487	539.88
799.743	549.88
799.999	570.88
800.255	595.88
800.511	566.88
800.767	621.88
801.023	628.88
801.279	689.88
801.534	731.88
801.79	806.88
802.046	836.88
802.302	1007.88
802.557	1200.88
802.813	1570.88
803.068	1986.88
803.324	2781.88
803.579	3870.88
803.835	5329.88
804.09	7427.88
804.345	9691.88
804.601	12235.88
804.856	14924.88
805.111	17205.88
805.366	19093.88
805.621	20464.88
805.876	21357.88
806.131	21976.88
806.386	22283.88
806.641	22792.88
806.896	23184.88
807.151	23715.88
807.406	24047.88
807.661	24453.88
807.915	25098.88
808.17	25313.88
808.425	25604.88
808.679	25767.88
808.934	26152.88
809.188	26406.88
809.443	26755.88
809.697	26927.88
809.951	27202.88
810.206	27484.88
810.46	27732.88
810.714	27892.88
810.968	28223.88
811.223	28484.88
811.477	28695.88
811.731	28952.88
811.985	29129.88
812.239	29121.88
812.493	29400.88
812.747	29556.88
813	29632.88
813.254	29793.88
813.508	29948.88
813.762	30052.88
814.015	30180.88
814.269	30468.88
814.522	30767.88
814.776	31049.88
815.03	31383.88
815.283	32021.88
815.536	32445.88
815.79	32953.88
816.043	33330.88
816.296	33773.88
816.55	34284.88
816.803	34593.88
817.056	35030.88
817.309	35395.88
817.562	35861.88
817.815	36134.88
818.068	36500.88
818.321	36812.88
818.574	37274.88
818.827	37826.88
819.079	38153.88
819.332	38848.88
819.585	39396.88
819.838	39801.88
820.09	40150.88
820.343	40372.88
820.595	40540.88
820.848	40902.88
821.1	40926.88
821.353	41070.88
821.605	40994.88
821.857	41227.88
822.11	40720.88
822.362	40677.88
822.614	40628.88
822.866	40574.88
823.118	40567.88
823.37	40996.88
823.622	40939.88
823.874	41105.88
824.126	41214.88
824.378	41295.88
824.63	41406.88
824.882	41640.88
825.134	41529.88
825.385	41458.88
825.637	41294.88
825.888	41207.88
826.14	41206.88
826.392	41153.88
826.643	40921.88
826.895	40749.88
827.146	40760.88
827.397	40466.88
827.649	40625.88
827.9	40471.88
828.151	40535.88
828.402	40786.88
828.653	40825.88
828.905	40836.88
829.156	40968.88
829.407	40980.88
829.658	41082.88
829.909	41220.88
830.159	41060.88
830.41	40865.88
830.661	40705.88
830.912	40321.88
831.162	40236.88
831.413	40145.88
831.664	40096.88
831.914	40238.88
832.165	40136.88
832.415	40034.88
832.666	40055.88
832.916	40219.88
833.167	40220.88
833.417	40169.88
833.667	40032.88
833.917	39892.88
834.168	39836.88
834.418	39768.88
834.668	39631.88
834.918	39422.88
835.168	39280.88
835.418	39200.88
835.668	39032.88
835.918	38809.88
836.167	38714.88
836.417	38608.88
836.667	38818.88
836.917	38562.88
837.166	38558.88
837.416	38467.88
837.666	38691.88
837.915	38462.88
838.165	38485.88
838.414	38350.88
838.663	38130.88
838.913	38323.88
839.162	38041.88
839.411	38184.88
839.661	38046.88
839.91	37786.88
840.159	37788.88
840.408	37698.88
840.657	37892.88
840.906	37951.88
841.155	37681.88
841.404	37868.88
841.653	37969.88
841.902	37925.88
842.15	37975.88
842.399	38227.88
842.648	37950.88
842.897	37828.88
843.145	37654.88
843.394	37452.88
843.642	37189.88
843.891	37109.88
844.139	36831.88
844.388	36587.88
844.636	36413.88
844.884	36422.88
845.133	36465.88
845.381	36335.88
845.629	36428.88
845.877	36419.88
846.125	36227.88
846.373	36272.88
846.621	36151.88
846.869	36218.88
847.117	35862.88
847.365	35531.88
847.613	35500.88
847.861	35433.88
848.108	35294.88
848.356	35313.88
848.604	35250.88
848.851	35200.88
849.099	35339.88
849.346	35318.88
849.594	35563.88
849.841	35568.88
850.089	35669.88
850.336	35738.88
850.583	35676.88
850.831	35543.88
851.078	35306.88
851.325	35273.88
851.572	35459.88
851.819	34942.88
852.066	34544.88
852.313	33961.88
852.56	33666.88
852.807	33588.88
853.054	33479.88
853.301	33304.88
853.548	33391.88
853.794	33574.88
854.041	33765.88
854.288	33881.88
854.534	34244.88
854.781	34065.88
855.028	33968.88
855.274	33946.88
855.52	33753.88
855.767	33532.88
856.013	33379.88
856.26	33962.88
856.506	33356.88
856.752	33228.88
856.998	33300.88
857.244	33483.88
857.49	33420.88
857.736	33595.88
857.982	33500.88
858.228	33393.88
858.474	33223.88
858.72	32928.88
858.966	32704.88
859.212	32418.88
859.458	32065.88
859.703	31800.88
859.949	31497.88
860.195	31368.88
860.44	31251.88
860.686	31101.88
860.931	31147.88
861.177	30867.88
861.422	30672.88
861.667	30646.88
861.913	30698.88
862.158	30780.88
862.403	30759.88
862.648	30828.88
862.893	30838.88
863.138	30712.88
863.384	30644.88
863.629	30640.88
863.873	30795.88
864.118	30592.88
864.363	30474.88
864.608	30357.88
864.853	30227.88
865.098	30167.88
865.342	30058.88
865.587	29853.88
865.832	29915.88
866.076	29721.88
866.321	29645.88
866.565	29655.88
866.81	29382.88
867.054	29349.88
867.298	29303.88
867.543	29204.88
867.787	29179.88
868.031	29043.88
868.275	29093.88
868.519	28994.88
868.764	28964.88
869.008	28999.88
869.252	28803.88
869.496	28694.88
869.739	28647.88
869.983	28612.88
870.227	28661.88
870.471	28647.88
870.715	28696.88
870.958	28732.88
871.202	28749.88
871.446	28975.88
871.689	28848.88
871.933	28873.88
872.176	28783.88
872.42	28714.88
872.663	28778.88
872.906	28577.88
873.15	28424.88
873.393	28385.88
873.636	28236.88
873.879	28046.88
874.122	27786.88
874.366	27494.88
874.609	27308.88
874.852	27178.88
875.095	26922.88
875.337	26809.88
875.58	26662.88
875.823	26618.88
876.066	26498.88
876.309	26465.88
876.551	26211.88
876.794	26158.88
877.037	26188.88
877.279	26076.88
877.522	26154.88
877.764	26090.88
878.007	25967.88
878.249	25879.88
878.491	25915.88
878.734	25921.88
878.976	25833.88
879.218	25542.88
879.46	25514.88
879.702	25332.88
879.945	25162.88
880.187	24964.88
880.429	24756.88
880.671	24692.88
880.912	24569.88
881.154	24523.88
881.396	24329.88
881.638	24459.88
881.88	24393.88
882.121	24300.88
882.363	24296.88
882.605	24279.88
882.846	24221.88
883.088	24194.88
883.329	24127.88
883.571	24347.88
883.812	24230.88
884.053	24561.88
884.295	24861.88
884.536	25074.88
884.777	25046.88
885.018	24966.88
885.259	24785.88
885.5	24753.88
885.742	24765.88
885.982	24511.88
886.223	24508.88
886.464	24277.88
886.705	24037.88
886.946	23907.88
887.187	23591.88
887.428	23320.88
887.668	22862.88
887.909	22744.88
888.15	22400.88
888.39	22241.88
888.631	22177.88
888.871	21992.88
889.111	21823.88
889.352	21738.88
889.592	21516.88
889.833	21448.88
890.073	21123.88
890.313	21094.88
890.553	20956.88
890.793	20858.88
891.033	20796.88
891.273	20687.88
891.513	20521.88
891.753	20546.88
891.993	20449.88
892.233	20548.88
892.473	20630.88
892.713	20587.88
892.952	20597.88
893.192	20596.88
893.432	20514.88
893.671	20498.88
893.911	20418.88
894.15	20356.88
894.39	20075.88
894.629	20087.88
894.869	19921.88
895.108	19730.88
895.347	19666.88
895.587	19680.88
895.826	19521.88
896.065	19567.88
896.304	19598.88
896.543	19635.88
896.782	19396.88
897.021	19433.88
897.26	19322.88
897.499	19358.88
897.738	19299.88
897.977	19240.88
898.216	18888.88
898.454	18838.88
898.693	18801.88
898.932	18686.88
899.17	18622.88
899.409	18538.88
899.647	18497.88
899.886	18356.88
900.124	18346.88
900.363	18454.88
900.601	18438.88
900.839	18470.88
901.078	18570.88
901.316	18609.88
901.554	18625.88
901.792	18702.88
902.03	18669.88
902.268	18714.88
902.506	18568.88
902.744	18477.88
902.982	18331.88
903.22	18024.88
903.458	17879.88
903.695	17587.88
903.933	17477.88
904.171	17165.88
904.409	16835.88
904.646	16736.88
904.884	16395.88
905.121	16257.88
905.359	16036.88
905.596	15965.88
905.833	15781.88
906.071	15645.88
906.308	15679.88
906.545	15689.88
906.783	15543.88
907.02	15530.88
907.257	15473.88
907.494	15392.88
907.731	15444.88
907.968	15277.88
908.205	15207.88
908.442	15089.88
908.679	15043.88
908.915	14901.88
909.152	14784.88
909.389	14678.88
909.626	14635.88
909.862	14426.88
910.099	14327.88
910.335	14357.88
910.572	14142.88
910.808	14245.88
911.045	14156.88
911.281	14173.88
911.518	14034.88
911.754	13957.88
911.99	13865.88
912.226	13786.88
912.463	13677.88
912.699	13565.88
912.935	13485.88
913.171	13475.88
913.407	13255.88
913.643	13158.88
913.879	13106.88
914.114	12896.88
914.35	12683.88
914.586	12565.88
914.822	12520.88
915.057	12569.88
915.293	12360.88
915.529	12293.88
915.764	12340.88
916	12300.88
916.235	12225.88
916.471	12151.88
916.706	12148.88
916.941	12203.88
917.177	12084.88
917.412	12127.88
917.647	11991.88
917.882	12037.88
918.117	12100.88
918.352	11993.88
918.588	12039.88
918.823	11810.88
919.057	11737.88
919.292	11498.88
919.527	11615.88
919.762	11389.88
919.997	11290.88
920.232	11103.88
920.466	11108.88
920.701	10958.88
920.935	10963.88
921.17	10740.88
921.405	10752.88
921.639	10763.88
921.873	10732.88
922.108	10717.88
922.342	10661.88
922.576	10597.88
922.811	10565.88
923.045	10520.88
923.279	10460.88
923.513	10321.88
923.747	10342.88
923.981	10218.88
924.215	10134.88
924.449	10098.88
924.683	10015.88
924.917	10045.88
925.151	9932.88
925.385	9940.88
925.618	9876.88
925.852	9866.88
926.086	9749.88
926.319	9797.88
926.553	9760.88
926.786	9817.88
927.02	9796.88
927.253	9699.88
927.486	9796.88
927.72	9663.88
927.953	9676.88
928.186	9654.88
928.42	9582.88
928.653	9563.88
928.886	9474.88
929.119	9473.88
929.352	9461.88
929.585	9332.88
929.818	9245.88
930.051	9254.88
930.284	9224.88
930.516	9049.88
930.749	9004.88
930.982	8938.88
931.215	8909.88
931.447	8831.88
931.68	8871.88
931.912	8755.88
932.145	8745.88
932.377	8750.88
932.61	8902.88
932.842	8720.88
933.074	8759.88
933.307	8711.88
933.539	8775.88
933.771	8765.88
934.003	8764.88
934.236	8854.88
934.468	8904.88
934.7	8872.88
934.932	8920.88
935.164	8891.88
935.395	8936.88
935.627	8931.88
935.859	8732.88
936.091	8518.88
936.323	8520.88
936.554	8473.88
936.786	8439.88
937.017	8289.88
937.249	8355.88
937.481	8282.88
937.712	8306.88
937.943	8315.88
938.175	8260.88
938.406	8189.88
938.637	8267.88
938.869	8215.88
939.1	8189.88
939.331	8248.88
939.562	8244.88
939.793	8234.88
940.024	8323.88
940.255	8620.88
940.486	9243.88
940.717	9973.88
940.948	10178.88
941.179	9784.88
941.409	9365.88
941.64	8855.88
941.871	8483.88
942.102	8132.88
942.332	7972.88
942.563	7922.88
942.793	7849.88
943.024	7785.88
943.254	7822.88
943.484	7768.88
943.715	7866.88
943.945	7804.88
944.175	7698.88
944.405	7660.88
944.636	7589.88
944.866	7695.88
945.096	7648.88
945.326	7570.88
945.556	7653.88
945.786	7586.88
946.016	7520.88
946.245	7357.88
946.475	7398.88
946.705	7313.88
946.935	7332.88
947.164	7273.88
947.394	7151.88
947.624	7223.88
947.853	7194.88
948.083	7150.88
948.312	7078.88
948.542	6994.88
948.771	6984.88
949	6961.88
949.23	6959.88
949.459	6989.88
949.688	7030.88
949.917	6979.88
950.146	7007.88
950.375	6996.88
950.604	6887.88
950.833	6939.88
951.062	6953.88
951.291	6855.88
951.52	6836.88
951.749	6751.88
951.978	6778.88
952.206	6720.88
952.435	6748.88
952.664	6762.88
952.892	6666.88
953.121	6675.88
953.349	6652.88
953.578	6617.88
953.806	6608.88
954.035	6526.88
954.263	6486.88
954.491	6466.88
954.719	6470.88
954.948	6393.88
955.176	6327.88
955.404	6308.88
955.632	6282.88
955.86	6282.88
956.088	6261.88
956.316	6245.88
956.544	6279.88
956.772	6210.88
956.999	6083.88
957.227	6178.88
957.455	6009.88
957.683	6012.88
957.91	5961.88
958.138	5961.88
958.365	5887.88
958.593	5855.88
958.82	5821.88
959.048	5865.88
959.275	5871.88
959.502	5839.88
959.73	5798.88
959.957	5816.88
960.184	5781.88
960.411	5728.88
960.638	5794.88
960.865	5762.88
961.092	5758.88
961.319	5630.88
961.546	5736.88
961.773	5734.88
962	5727.88
962.227	5772.88
962.454	5651.88
962.68	5670.88
962.907	5618.88
963.134	5565.88
963.36	5538.88
963.587	5572.88
963.813	5440.88
964.04	5408.88
964.266	5375.88
964.493	5397.88
964.719	5390.88
964.945	5296.88
965.171	5204.88
965.398	5274.88
965.624	5314.88
965.85	5225.88
966.076	5154.88
966.302	5191.88
966.528	5154.88
966.754	5134.88
966.98	5099.88
967.206	5094.88
967.431	5031.88
967.657	5094.88
967.883	5055.88
968.109	5009.88
968.334	4969.88
968.56	4912.88
968.785	4953.88
969.011	4885.88
969.236	4955.88
969.462	4872.88
969.687	4846.88
969.912	4880.88
970.138	4929.88
970.363	4808.88
970.588	4839.88
970.813	4768.88
971.038	4754.88
971.263	4756.88
971.488	4744.88
971.713	4841.88
971.938	4732.88
972.163	4577.88
972.388	4602.88
972.613	4599.88
972.838	4636.88
973.062	4568.88
973.287	4582.88
973.512	4452.88
973.736	4509.88
973.961	4463.88
974.185	4429.88
974.41	4476.88
974.634	4348.88
974.858	4357.88
975.083	4335.88
975.307	4336.88
975.531	4257.88
975.755	4237.88
975.98	4222.88
976.204	4120.88
976.428	4133.88
976.652	4117.88
976.876	4086.88
977.1	4168.88
977.324	4049.88
977.547	4089.88
977.771	4105.88
977.995	4036.88
978.219	4016.88
978.442	4079.88
978.666	4042.88
978.89	4020.88
979.113	3994.88
979.337	3975.88
979.56	3929.88
979.783	4020.88
980.007	3851.88
980.23	3899.88
980.453	3845.88
980.677	3830.88
980.9	3855.88
981.123	3782.88
981.346	3812.88
981.569	3831.88
981.792	3804.88
982.015	3761.88
982.238	3705.88
982.461	3712.88
982.684	3671.88
982.907	3639.88
983.129	3605.88
983.352	3641.88
983.575	3602.88
983.797	3645.88
984.02	3555.88
984.242	3520.88
984.465	3520.88
984.687	3525.88
984.91	3535.88
985.132	3497.88
985.354	3465.88
985.577	3494.88
985.799	3436.88
986.021	3355.88
986.243	3381.88
986.465	3379.88
986.687	3416.88
986.909	3467.88
987.131	3339.88
987.353	3322.88
987.575	3354.88
987.797	3284.88
988.019	3197.88
988.241	3300.88
988.462	3222.88
988.684	3320.88
988.906	3329.88
989.127	3341.88
989.349	3215.88
989.57	3224.88
989.792	3235.88
990.013	3294.88
990.234	3235.88
990.456	3274.88
990.677	3265.88
990.898	3148.88
991.119	3174.88
991.341	3148.88
991.562	3061.88
991.783	3133.88
992.004	3020.88
992.225	3016.88
992.446	3057.88
992.667	2967.88
992.887	3039.88
993.108	2897.88
993.329	3063.88
993.55	2926.88
993.77	2866.88
993.991	2879.88
994.212	2950.88
994.432	2908.88
994.653	2898.88
994.873	2879.88
995.093	2745.88
995.314	2802.88
995.534	2843.88
995.754	2826.88
995.975	2848.88
996.195	2728.88
996.415	2843.88
996.635	2783.88
996.855	2776.88
997.075	2742.88
997.295	2773.88
997.515	2700.88
997.735	2762.88
997.955	2741.88
998.174	2735.88
998.394	2663.88
998.614	2726.88
998.834	2715.88
999.053	2720.88
999.273	2688.88
999.492	2729.88
999.712	2646.88
999.931	2630.88
1000.151	2640.88
1000.37	2619.88
1000.589	2647.88
1000.809	2554.88
1001.028	2666.88
1001.247	2614.88
1001.466	2462.88
1001.685	2622.88
1001.904	2582.88
1002.123	2535.88
1002.342	2532.88
1002.561	2486.88
1002.78	2492.88
1002.999	2535.88
1003.218	2454.88
1003.436	2420.88
1003.655	2480.88
1003.874	2410.88
1004.092	2417.88
1004.311	2482.88
1004.53	2397.88
1004.748	2511.88
1004.966	2369.88
1005.185	2468.88
1005.403	2447.88
1005.622	2362.88
1005.84	2435.88
1006.058	2340.88
1006.276	2370.88
1006.494	2855.88
1006.712	2404.88
1006.931	2437.88
1007.149	2330.88
1007.367	2347.88
1007.584	2367.88
1007.802	2426.88
1008.02	2336.88
1008.238	2431.88
1008.456	2468.88
1008.673	2315.88
1008.891	2445.88
1009.109	2402.88
1009.326	2477.88
1009.544	2586.88
1009.761	2500.88
1009.979	2590.88
1010.196	2637.88
1010.413	2757.88
1010.631	2853.88
1010.848	2921.88
1011.065	2914.88
1011.282	2931.88
1011.5	2809.88
1011.717	2927.88
1011.934	2812.88
1012.151	2862.88
1012.368	2831.88
1012.585	2788.88
1012.801	2854.88
1013.018	2819.88
1013.235	2774.88
1013.452	2777.88
1013.669	2827.88
1013.885	2792.88
1014.102	2845.88
1014.318	2837.88
1014.535	2777.88
1014.751	2818.88
1014.968	2779.88
1015.184	2794.88
1015.401	2676.88
1015.617	2736.88
1015.833	2632.88
1016.049	2637.88
1016.266	2591.88
1016.482	2631.88
1016.698	2513.88
1016.914	2542.88
1017.13	2501.88
1017.346	2466.88
1017.562	2556.88
1017.778	2471.88
1017.993	2417.88
1018.209	2457.88
1018.425	2488.88
1018.641	2401.88
1018.856	2416.88
1019.072	2408.88
1019.288	2457.88
1019.503	2404.88
1019.719	2326.88
1019.934	2326.88
1020.149	2390.88
1020.365	2324.88
1020.58	2265.88
1020.795	2269.88
1021.011	2197.88
1021.226	2146.88
1021.441	2148.88
1021.656	2054.88
1021.871	1974.88
1022.086	1961.88
1022.301	1915.88
1022.516	1898.88
1022.731	1940.88
1022.946	1824.88
1023.16	1841.88
1023.375	1807.88
1023.59	1738.88
1023.804	1702.88
1024.019	1805.88
1024.234	1652.88
1024.448	1675.88
1024.663	1583.88
1024.877	1571.88
1025.092	1582.88
1025.306	1578.88
1025.52	1486.88
1025.734	1525.88
1025.949	1425.88
1026.163	1398.88
1026.377	1335.88
1026.591	1349.88
1026.805	1269.88
1027.019	1271.88
1027.233	1224.88
1027.447	1146.88
1027.661	1261.88
1027.875	1190.88
1028.088	1195.88
1028.302	1095.88
1028.516	1073.88
1028.73	1039.88
1028.943	1032.88
1029.157	977.88
1029.37	921.88
1029.584	-2.12
1029.797	-5.12
1030.011	-2.12
1030.224	-0.12
