Data from QEP037381__303__16-20-19-909.txt Node

Date: Fri Dec 16 16:20:19 EST 2022
User: dcclab
Spectrometer: QEP03738
Trigger mode: 4
Integration Time (sec): 1.000000E1
Scans to average: 1
Electric dark correction enabled: true
Nonlinearity correction enabled: false
Boxcar width: 0
XAxis mode: Wavelengths
Number of Pixels in Spectrum: 1044
>>>>>Begin Spectral Data<<<<<
784.041	11.75
784.3	-1.25
784.558	-2.25
784.817	-1.25
785.075	115461.75
785.334	19781.75
785.592	9110.75
785.851	6345.75
786.109	4713.75
786.368	3714.75
786.626	2979.75
786.884	2451.75
787.143	2086.75
787.401	1711.75
787.659	1555.75
787.917	1288.75
788.175	1209.75
788.433	1044.75
788.691	966.75
788.949	876.75
789.207	836.75
789.465	728.75
789.723	706.75
789.98	621.75
790.238	655.75
790.496	635.75
790.753	595.75
791.011	636.75
791.268	573.75
791.526	537.75
791.783	579.75
792.041	543.75
792.298	462.75
792.556	529.75
792.813	518.75
793.07	478.75
793.327	469.75
793.584	573.75
793.841	481.75
794.099	488.75
794.356	547.75
794.613	452.75
794.869	483.75
795.126	449.75
795.383	430.75
795.64	458.75
795.897	388.75
796.153	461.75
796.41	446.75
796.667	417.75
796.923	443.75
797.18	433.75
797.436	467.75
797.693	431.75
797.949	478.75
798.206	503.75
798.462	423.75
798.718	475.75
798.974	463.75
799.231	504.75
799.487	499.75
799.743	497.75
799.999	521.75
800.255	535.75
800.511	516.75
800.767	562.75
801.023	544.75
801.279	594.75
801.534	619.75
801.79	671.75
802.046	710.75
802.302	862.75
802.557	1008.75
802.813	1205.75
803.068	1513.75
803.324	2092.75
803.579	2827.75
803.835	3952.75
804.09	5333.75
804.345	7004.75
804.601	8853.75
804.856	10704.75
805.111	12312.75
805.366	13614.75
805.621	14539.75
805.876	15252.75
806.131	15757.75
806.386	15949.75
806.641	16304.75
806.896	16502.75
807.151	16903.75
807.406	17073.75
807.661	17415.75
807.915	17714.75
808.17	17969.75
808.425	18153.75
808.679	18334.75
808.934	18587.75
809.188	18664.75
809.443	18831.75
809.697	19039.75
809.951	19230.75
810.206	19353.75
810.46	19560.75
810.714	19735.75
810.968	19831.75
811.223	20068.75
811.477	20218.75
811.731	20417.75
811.985	20348.75
812.239	20482.75
812.493	20642.75
812.747	20690.75
813	20732.75
813.254	20885.75
813.508	20963.75
813.762	21157.75
814.015	21088.75
814.269	21330.75
814.522	21562.75
814.776	21771.75
815.03	21986.75
815.283	22293.75
815.536	22609.75
815.79	23053.75
816.043	23328.75
816.296	23512.75
816.55	23835.75
816.803	24053.75
817.056	24450.75
817.309	24648.75
817.562	24776.75
817.815	25117.75
818.068	25166.75
818.321	25476.75
818.574	25718.75
818.827	26047.75
819.079	26314.75
819.332	26958.75
819.585	27186.75
819.838	27412.75
820.09	27696.75
820.343	27768.75
820.595	27859.75
820.848	28033.75
821.1	28311.75
821.353	28358.75
821.605	28284.75
821.857	28342.75
822.11	27921.75
822.362	27998.75
822.614	27911.75
822.866	28005.75
823.118	27999.75
823.37	28109.75
823.622	28184.75
823.874	28272.75
824.126	28319.75
824.378	28285.75
824.63	28294.75
824.882	28430.75
825.134	28434.75
825.385	28441.75
825.637	28192.75
825.888	28101.75
826.14	28190.75
826.392	28003.75
826.643	27859.75
826.895	27766.75
827.146	27682.75
827.397	27571.75
827.649	27691.75
827.9	27548.75
828.151	27550.75
828.402	27562.75
828.653	27683.75
828.905	27774.75
829.156	27830.75
829.407	27748.75
829.658	27849.75
829.909	28027.75
830.159	28016.75
830.41	27935.75
830.661	27645.75
830.912	27403.75
831.162	27235.75
831.413	27278.75
831.664	27296.75
831.914	27259.75
832.165	27190.75
832.415	27271.75
832.666	27143.75
832.916	27408.75
833.167	27261.75
833.417	27309.75
833.667	27114.75
833.917	26902.75
834.168	26926.75
834.418	27011.75
834.668	26768.75
834.918	26742.75
835.168	26551.75
835.418	26390.75
835.668	26285.75
835.918	26211.75
836.167	26272.75
836.417	26049.75
836.667	26118.75
836.917	26198.75
837.166	26043.75
837.416	26099.75
837.666	26059.75
837.915	26037.75
838.165	25986.75
838.414	25877.75
838.663	25866.75
838.913	25773.75
839.162	25776.75
839.411	25746.75
839.661	25671.75
839.91	25593.75
840.159	25471.75
840.408	25716.75
840.657	25553.75
840.906	25446.75
841.155	25541.75
841.404	25355.75
841.653	25483.75
841.902	25545.75
842.15	25542.75
842.399	25572.75
842.648	25573.75
842.897	25495.75
843.145	25317.75
843.394	25265.75
843.642	25093.75
843.891	24882.75
844.139	24737.75
844.388	24580.75
844.636	24381.75
844.884	24450.75
845.133	24406.75
845.381	24319.75
845.629	24326.75
845.877	24315.75
846.125	24257.75
846.373	24351.75
846.621	24134.75
846.869	24050.75
847.117	23879.75
847.365	23854.75
847.613	23708.75
847.861	23729.75
848.108	23686.75
848.356	23589.75
848.604	23582.75
848.851	23470.75
849.099	23597.75
849.346	23559.75
849.594	23756.75
849.841	23708.75
850.089	23619.75
850.336	23790.75
850.583	23789.75
850.831	23732.75
851.078	23432.75
851.325	23561.75
851.572	23611.75
851.819	23408.75
852.066	22933.75
852.313	22673.75
852.56	22490.75
852.807	22379.75
853.054	22289.75
853.301	22264.75
853.548	22281.75
853.794	22429.75
854.041	22575.75
854.288	22636.75
854.534	22896.75
854.781	22834.75
855.028	22498.75
855.274	22744.75
855.52	22553.75
855.767	22477.75
856.013	22570.75
856.26	22788.75
856.506	22225.75
856.752	22155.75
856.998	22288.75
857.244	22291.75
857.49	22309.75
857.736	22448.75
857.982	22374.75
858.228	22248.75
858.474	22145.75
858.72	21900.75
858.966	21745.75
859.212	21491.75
859.458	21379.75
859.703	21092.75
859.949	20958.75
860.195	20757.75
860.44	20634.75
860.686	20586.75
860.931	20591.75
861.177	20515.75
861.422	20436.75
861.667	20276.75
861.913	20239.75
862.158	20301.75
862.403	20395.75
862.648	20342.75
862.893	20361.75
863.138	20281.75
863.384	20187.75
863.629	20251.75
863.873	20185.75
864.118	20169.75
864.363	20027.75
864.608	19997.75
864.853	20006.75
865.098	19811.75
865.342	19741.75
865.587	19611.75
865.832	19647.75
866.076	19634.75
866.321	19465.75
866.565	19405.75
866.81	19358.75
867.054	19325.75
867.298	19217.75
867.543	19175.75
867.787	19164.75
868.031	19129.75
868.275	19077.75
868.519	18953.75
868.764	18840.75
869.008	18985.75
869.252	18940.75
869.496	18802.75
869.739	18796.75
869.983	18855.75
870.227	18857.75
870.471	18790.75
870.715	18955.75
870.958	18955.75
871.202	18997.75
871.446	19033.75
871.689	18954.75
871.933	18985.75
872.176	18884.75
872.42	18847.75
872.663	18863.75
872.906	18836.75
873.15	18888.75
873.393	18866.75
873.636	18955.75
873.879	18622.75
874.122	18361.75
874.366	18065.75
874.609	17960.75
874.852	17775.75
875.095	17732.75
875.337	17606.75
875.58	17510.75
875.823	17528.75
876.066	17395.75
876.309	17312.75
876.551	17184.75
876.794	17021.75
877.037	17093.75
877.279	16953.75
877.522	16932.75
877.764	17006.75
878.007	16958.75
878.249	16913.75
878.491	16804.75
878.734	16977.75
878.976	16856.75
879.218	16689.75
879.46	16671.75
879.702	16527.75
879.945	16417.75
880.187	16138.75
880.429	16104.75
880.671	16027.75
880.912	15943.75
881.154	15953.75
881.396	15860.75
881.638	15912.75
881.88	15815.75
882.121	15784.75
882.363	15879.75
882.605	15738.75
882.846	15789.75
883.088	15835.75
883.329	15723.75
883.571	15768.75
883.812	15997.75
884.053	16276.75
884.295	16649.75
884.536	16900.75
884.777	16727.75
885.018	16689.75
885.259	16415.75
885.5	16356.75
885.742	16451.75
885.982	16328.75
886.223	16144.75
886.464	15962.75
886.705	15829.75
886.946	15634.75
887.187	15416.75
887.428	15247.75
887.668	14900.75
887.909	14721.75
888.15	14584.75
888.39	14486.75
888.631	14430.75
888.871	14234.75
889.111	14148.75
889.352	14072.75
889.592	13880.75
889.833	13821.75
890.073	13721.75
890.313	13681.75
890.553	13568.75
890.793	13476.75
891.033	13386.75
891.273	13283.75
891.513	13321.75
891.753	13282.75
891.993	13203.75
892.233	13254.75
892.473	13389.75
892.713	13357.75
892.952	13212.75
893.192	13234.75
893.432	13132.75
893.671	13229.75
893.911	13181.75
894.15	13079.75
894.39	12947.75
894.629	13001.75
894.869	12896.75
895.108	12812.75
895.347	12739.75
895.587	12705.75
895.826	12637.75
896.065	12671.75
896.304	12640.75
896.543	12609.75
896.782	12514.75
897.021	12571.75
897.26	12406.75
897.499	12415.75
897.738	12500.75
897.977	12305.75
898.216	12206.75
898.454	12125.75
898.693	11988.75
898.932	12014.75
899.17	12008.75
899.409	11904.75
899.647	11970.75
899.886	11894.75
900.124	11948.75
900.363	11904.75
900.601	11889.75
900.839	12012.75
901.078	11963.75
901.316	11986.75
901.554	12075.75
901.792	12094.75
902.03	12104.75
902.268	12201.75
902.506	12141.75
902.744	11949.75
902.982	12038.75
903.22	11742.75
903.458	11529.75
903.695	11407.75
903.933	11271.75
904.171	11045.75
904.409	10828.75
904.646	10820.75
904.884	10592.75
905.121	10597.75
905.359	10398.75
905.596	10260.75
905.833	10197.75
906.071	10099.75
906.308	10125.75
906.545	10101.75
906.783	9987.75
907.02	10023.75
907.257	9901.75
907.494	9953.75
907.731	9887.75
907.968	9835.75
908.205	9751.75
908.442	9720.75
908.679	9674.75
908.915	9537.75
909.152	9517.75
909.389	9366.75
909.626	9377.75
909.862	9231.75
910.099	9283.75
910.335	9202.75
910.572	9127.75
910.808	9090.75
911.045	9131.75
911.281	9048.75
911.518	9041.75
911.754	8929.75
911.99	8927.75
912.226	8903.75
912.463	8747.75
912.699	8683.75
912.935	8667.75
913.171	8615.75
913.407	8475.75
913.643	8514.75
913.879	8370.75
914.114	8272.75
914.35	8173.75
914.586	8244.75
914.822	8098.75
915.057	8086.75
915.293	7974.75
915.529	7912.75
915.764	8004.75
916	7960.75
916.235	7883.75
916.471	7889.75
916.706	7758.75
916.941	7794.75
917.177	7801.75
917.412	7854.75
917.647	7824.75
917.882	7682.75
918.117	7838.75
918.352	7653.75
918.588	7664.75
918.823	7607.75
919.057	7529.75
919.292	7365.75
919.527	7423.75
919.762	7285.75
919.997	7289.75
920.232	7208.75
920.466	7217.75
920.701	6996.75
920.935	7060.75
921.17	7004.75
921.405	6938.75
921.639	6952.75
921.873	6899.75
922.108	6833.75
922.342	6817.75
922.576	6797.75
922.811	6775.75
923.045	6780.75
923.279	6841.75
923.513	6603.75
923.747	6668.75
923.981	6619.75
924.215	6497.75
924.449	6539.75
924.683	6422.75
924.917	6473.75
925.151	6437.75
925.385	6431.75
925.618	6365.75
925.852	6393.75
926.086	6277.75
926.319	6368.75
926.553	6303.75
926.786	6321.75
927.02	6311.75
927.253	6310.75
927.486	6247.75
927.72	6267.75
927.953	6244.75
928.186	6194.75
928.42	6222.75
928.653	6141.75
928.886	6116.75
929.119	6057.75
929.352	6098.75
929.585	6080.75
929.818	5974.75
930.051	5935.75
930.284	5897.75
930.516	5791.75
930.749	5833.75
930.982	5801.75
931.215	5788.75
931.447	5688.75
931.68	5668.75
931.912	5623.75
932.145	5653.75
932.377	5691.75
932.61	5803.75
932.842	5576.75
933.074	5672.75
933.307	5573.75
933.539	5647.75
933.771	5645.75
934.003	5614.75
934.236	5682.75
934.468	5661.75
934.7	5512.75
934.932	5625.75
935.164	5495.75
935.395	5479.75
935.627	5496.75
935.859	5486.75
936.091	5415.75
936.323	5477.75
936.554	5495.75
936.786	5414.75
937.017	5361.75
937.249	5385.75
937.481	5294.75
937.712	5371.75
937.943	5322.75
938.175	5296.75
938.406	5336.75
938.637	5316.75
938.869	5266.75
939.1	5268.75
939.331	5225.75
939.562	5298.75
939.793	5230.75
940.024	5217.75
940.255	5199.75
940.486	5159.75
940.717	5088.75
940.948	5116.75
941.179	5043.75
941.409	5040.75
941.64	5004.75
941.871	5006.75
942.102	5033.75
942.332	5032.75
942.563	5098.75
942.793	4972.75
943.024	4972.75
943.254	5020.75
943.484	5070.75
943.715	5035.75
943.945	5000.75
944.175	4941.75
944.405	4906.75
944.636	4935.75
944.866	4999.75
945.096	4935.75
945.326	4874.75
945.556	4907.75
945.786	4901.75
946.016	4876.75
946.245	4719.75
946.475	4773.75
946.705	4690.75
946.935	4704.75
947.164	4718.75
947.394	4651.75
947.624	4645.75
947.853	4650.75
948.083	4625.75
948.312	4646.75
948.542	4518.75
948.771	4475.75
949	4500.75
949.23	4478.75
949.459	4557.75
949.688	4541.75
949.917	4529.75
950.146	4563.75
950.375	4510.75
950.604	4409.75
950.833	4513.75
951.062	4508.75
951.291	4470.75
951.52	4435.75
951.749	4420.75
951.978	4375.75
952.206	4361.75
952.435	4332.75
952.664	4395.75
952.892	4399.75
953.121	4359.75
953.349	4336.75
953.578	4263.75
953.806	4252.75
954.035	4178.75
954.263	4259.75
954.491	4184.75
954.719	4261.75
954.948	4148.75
955.176	4156.75
955.404	4081.75
955.632	4155.75
955.86	4096.75
956.088	4081.75
956.316	4125.75
956.544	4075.75
956.772	3984.75
956.999	4040.75
957.227	4059.75
957.455	3895.75
957.683	3931.75
957.91	3881.75
958.138	3897.75
958.365	3843.75
958.593	3837.75
958.82	3778.75
959.048	3841.75
959.275	3813.75
959.502	3776.75
959.73	3762.75
959.957	3785.75
960.184	3809.75
960.411	3737.75
960.638	3790.75
960.865	3689.75
961.092	3785.75
961.319	3687.75
961.546	3747.75
961.773	3747.75
962	3694.75
962.227	3735.75
962.454	3710.75
962.68	3653.75
962.907	3676.75
963.134	3652.75
963.36	3615.75
963.587	3648.75
963.813	3557.75
964.04	3588.75
964.266	3490.75
964.493	3607.75
964.719	3530.75
964.945	3516.75
965.171	3426.75
965.398	3455.75
965.624	3476.75
965.85	3381.75
966.076	3362.75
966.302	3443.75
966.528	3376.75
966.754	3389.75
966.98	3344.75
967.206	3333.75
967.431	3269.75
967.657	3385.75
967.883	3345.75
968.109	3294.75
968.334	3278.75
968.56	3227.75
968.785	3220.75
969.011	3171.75
969.236	3277.75
969.462	3191.75
969.687	3231.75
969.912	3230.75
970.138	3310.75
970.363	3152.75
970.588	3182.75
970.813	3155.75
971.038	3141.75
971.263	3171.75
971.488	3144.75
971.713	3194.75
971.938	3114.75
972.163	3028.75
972.388	3091.75
972.613	3043.75
972.838	3063.75
973.062	3010.75
973.287	2990.75
973.512	2965.75
973.736	2968.75
973.961	2927.75
974.185	2884.75
974.41	2940.75
974.634	2845.75
974.858	2848.75
975.083	2933.75
975.307	2889.75
975.531	2834.75
975.755	2788.75
975.98	2783.75
976.204	2726.75
976.428	2740.75
976.652	2754.75
976.876	2735.75
977.1	2737.75
977.324	2695.75
977.547	2719.75
977.771	2739.75
977.995	2698.75
978.219	2600.75
978.442	2760.75
978.666	2685.75
978.89	2684.75
979.113	2671.75
979.337	2635.75
979.56	2600.75
979.783	2687.75
980.007	2574.75
980.23	2617.75
980.453	2587.75
980.677	2615.75
980.9	2596.75
981.123	2480.75
981.346	2572.75
981.569	2573.75
981.792	2572.75
982.015	2497.75
982.238	2462.75
982.461	2493.75
982.684	2454.75
982.907	2420.75
983.129	2430.75
983.352	2471.75
983.575	2458.75
983.797	2431.75
984.02	2396.75
984.242	2384.75
984.465	2390.75
984.687	2400.75
984.91	2445.75
985.132	2390.75
985.354	2401.75
985.577	2369.75
985.799	2324.75
986.021	2271.75
986.243	2243.75
986.465	2300.75
986.687	2340.75
986.909	2368.75
987.131	2295.75
987.353	2262.75
987.575	2298.75
987.797	2284.75
988.019	2202.75
988.241	2240.75
988.462	2186.75
988.684	2258.75
988.906	2265.75
989.127	2292.75
989.349	2191.75
989.57	2203.75
989.792	2225.75
990.013	2226.75
990.234	2226.75
990.456	2271.75
990.677	2211.75
990.898	2189.75
991.119	2157.75
991.341	2189.75
991.562	2095.75
991.783	2185.75
992.004	2066.75
992.225	2059.75
992.446	2134.75
992.667	2033.75
992.887	2101.75
993.108	2019.75
993.329	2096.75
993.55	2074.75
993.77	1983.75
993.991	1971.75
994.212	2017.75
994.432	2006.75
994.653	2049.75
994.873	2005.75
995.093	1891.75
995.314	1941.75
995.534	1974.75
995.754	2009.75
995.975	2029.75
996.195	1909.75
996.415	1965.75
996.635	1946.75
996.855	1956.75
997.075	1920.75
997.295	1920.75
997.515	1881.75
997.735	1978.75
997.955	1912.75
998.174	1932.75
998.394	1901.75
998.614	1975.75
998.834	1912.75
999.053	1975.75
999.273	1954.75
999.492	1945.75
999.712	1892.75
999.931	1847.75
1000.151	1885.75
1000.37	1875.75
1000.589	1930.75
1000.809	1827.75
1001.028	1955.75
1001.247	1870.75
1001.466	1769.75
1001.685	1923.75
1001.904	1851.75
1002.123	1822.75
1002.342	1823.75
1002.561	1780.75
1002.78	1784.75
1002.999	1823.75
1003.218	1792.75
1003.436	1768.75
1003.655	1806.75
1003.874	1738.75
1004.092	1772.75
1004.311	1800.75
1004.53	1751.75
1004.748	1852.75
1004.966	1770.75
1005.185	1819.75
1005.403	1787.75
1005.622	1760.75
1005.84	1844.75
1006.058	1750.75
1006.276	1763.75
1006.494	2252.75
1006.712	1767.75
1006.931	1842.75
1007.149	1717.75
1007.367	1725.75
1007.584	1779.75
1007.802	1810.75
1008.02	1752.75
1008.238	1876.75
1008.456	1851.75
1008.673	1743.75
1008.891	1857.75
1009.109	1831.75
1009.326	1893.75
1009.544	1972.75
1009.761	1907.75
1009.979	1963.75
1010.196	1997.75
1010.413	2126.75
1010.631	2191.75
1010.848	2278.75
1011.065	2254.75
1011.282	2243.75
1011.5	2165.75
1011.717	2307.75
1011.934	2167.75
1012.151	2202.75
1012.368	2204.75
1012.585	2133.75
1012.801	2205.75
1013.018	2161.75
1013.235	2151.75
1013.452	2149.75
1013.669	2169.75
1013.885	2161.75
1014.102	2200.75
1014.318	2175.75
1014.535	2148.75
1014.751	2130.75
1014.968	2138.75
1015.184	2159.75
1015.401	2051.75
1015.617	2108.75
1015.833	2032.75
1016.049	2066.75
1016.266	1978.75
1016.482	2001.75
1016.698	1931.75
1016.914	1960.75
1017.13	1890.75
1017.346	1889.75
1017.562	1960.75
1017.778	1885.75
1017.993	1845.75
1018.209	1871.75
1018.425	1856.75
1018.641	1825.75
1018.856	1795.75
1019.072	1817.75
1019.288	1898.75
1019.503	1825.75
1019.719	1733.75
1019.934	1768.75
1020.149	1836.75
1020.365	1777.75
1020.58	1691.75
1020.795	1736.75
1021.011	1661.75
1021.226	1628.75
1021.441	1655.75
1021.656	1555.75
1021.871	1500.75
1022.086	1495.75
1022.301	1460.75
1022.516	1468.75
1022.731	1489.75
1022.946	1417.75
1023.16	1369.75
1023.375	1366.75
1023.59	1323.75
1023.804	1287.75
1024.019	1368.75
1024.234	1215.75
1024.448	1245.75
1024.663	1195.75
1024.877	1208.75
1025.092	1230.75
1025.306	1204.75
1025.52	1090.75
1025.734	1198.75
1025.949	1089.75
1026.163	1067.75
1026.377	990.75
1026.591	1061.75
1026.805	965.75
1027.019	979.75
1027.233	951.75
1027.447	879.75
1027.661	954.75
1027.875	928.75
1028.088	929.75
1028.302	831.75
1028.516	817.75
1028.73	820.75
1028.943	820.75
1029.157	766.75
1029.37	690.75
1029.584	-4.25
1029.797	-1.25
1030.011	-1.25
1030.224	-0.25
