Data from QEP037381__277__16-15-59-906.txt Node

Date: Fri Dec 16 16:15:59 EST 2022
User: dcclab
Spectrometer: QEP03738
Trigger mode: 4
Integration Time (sec): 1.000000E1
Scans to average: 1
Electric dark correction enabled: true
Nonlinearity correction enabled: false
Boxcar width: 0
XAxis mode: Wavelengths
Number of Pixels in Spectrum: 1044
>>>>>Begin Spectral Data<<<<<
784.041	15
784.3	1
784.558	-3
784.817	-5
785.075	112808
785.334	19486
785.592	9039
785.851	6301
786.109	4755
786.368	3650
786.626	2966
786.884	2433
787.143	2060
787.401	1701
787.659	1523
787.917	1306
788.175	1194
788.433	1056
788.691	930
788.949	869
789.207	839
789.465	720
789.723	698
789.98	643
790.238	660
790.496	637
790.753	596
791.011	639
791.268	578
791.526	549
791.783	561
792.041	553
792.298	470
792.556	513
792.813	518
793.07	481
793.327	468
793.584	536
793.841	466
794.099	493
794.356	533
794.613	445
794.869	483
795.126	454
795.383	430
795.64	455
795.897	414
796.153	475
796.41	453
796.667	455
796.923	460
797.18	441
797.436	472
797.693	429
797.949	490
798.206	509
798.462	426
798.718	490
798.974	452
799.231	513
799.487	503
799.743	509
799.999	536
800.255	539
800.511	529
800.767	572
801.023	573
801.279	610
801.534	652
801.79	709
802.046	716
802.302	898
802.557	1051
802.813	1286
803.068	1630
803.324	2255
803.579	3083
803.835	4275
804.09	5859
804.345	7700
804.601	9563
804.856	11739
805.111	13466
805.366	14797
805.621	15886
805.876	16657
806.131	17047
806.386	17383
806.641	17677
806.896	17989
807.151	18450
807.406	18522
807.661	19004
807.915	19364
808.17	19693
808.425	19881
808.679	20025
808.934	20230
809.188	20329
809.443	20634
809.697	20886
809.951	20998
810.206	21082
810.46	21378
810.714	21595
810.968	21782
811.223	21903
811.477	22211
811.731	22365
811.985	22493
812.239	22441
812.493	22623
812.747	22696
813	22747
813.254	22949
813.508	23083
813.762	23127
814.015	23220
814.269	23413
814.522	23600
814.776	23803
815.03	24232
815.283	24410
815.536	24903
815.79	25257
816.043	25443
816.296	25891
816.55	26174
816.803	26496
817.056	26858
817.309	27159
817.562	27309
817.815	27593
818.068	27852
818.321	28129
818.574	28390
818.827	28760
819.079	29037
819.332	29542
819.585	29951
819.838	30437
820.09	30521
820.343	30793
820.595	30838
820.848	31101
821.1	31115
821.353	31135
821.605	31264
821.857	31220
822.11	30952
822.362	30984
822.614	30874
822.866	31054
823.118	30949
823.37	30985
823.622	31121
823.874	31192
824.126	31265
824.378	31327
824.63	31354
824.882	31548
825.134	31415
825.385	31540
825.637	31237
825.888	31221
826.14	31349
826.392	31043
826.643	30960
826.895	30883
827.146	30684
827.397	30600
827.649	30753
827.9	30493
828.151	30657
828.402	30675
828.653	30817
828.905	30925
829.156	30824
829.407	30890
829.658	30911
829.909	31158
830.159	31199
830.41	30870
830.661	30649
830.912	30495
831.162	30372
831.413	30324
831.664	30258
831.914	30231
832.165	30114
832.415	30125
832.666	30142
832.916	30259
833.167	30118
833.417	30250
833.667	30050
833.917	29965
834.168	29836
834.418	29857
834.668	29627
834.918	29563
835.168	29440
835.418	29219
835.668	29339
835.918	29170
836.167	29126
836.417	29003
836.667	29024
836.917	29031
837.166	28888
837.416	28963
837.666	28975
837.915	29001
838.165	28857
838.414	28829
838.663	28722
838.913	28715
839.162	28603
839.411	28665
839.661	28554
839.91	28408
840.159	28296
840.408	28282
840.657	28422
840.906	28345
841.155	28355
841.404	28293
841.653	28292
841.902	28385
842.15	28416
842.399	28519
842.648	28398
842.897	28185
843.145	28020
843.394	27893
843.642	27766
843.891	27686
844.139	27555
844.388	27326
844.636	27256
844.884	27294
845.133	27203
845.381	27169
845.629	27195
845.877	27096
846.125	27101
846.373	26993
846.621	26853
846.869	26871
847.117	26592
847.365	26461
847.613	26388
847.861	26323
848.108	26268
848.356	26261
848.604	26166
848.851	26257
849.099	26218
849.346	26154
849.594	26320
849.841	26412
850.089	26346
850.336	26472
850.583	26421
850.831	26420
851.078	26225
851.325	26201
851.572	26240
851.819	26008
852.066	25514
852.313	25166
852.56	24909
852.807	24950
853.054	24866
853.301	24814
853.548	24748
853.794	24969
854.041	24981
854.288	25111
854.534	25267
854.781	25264
855.028	25193
855.274	25166
855.52	25073
855.767	24999
856.013	24985
856.26	25378
856.506	24735
856.752	24655
856.998	24750
857.244	24735
857.49	24829
857.736	24917
857.982	24877
858.228	24753
858.474	24657
858.72	24457
858.966	24196
859.212	24010
859.458	23746
859.703	23507
859.949	23251
860.195	23060
860.44	23069
860.686	22979
860.931	22997
861.177	22779
861.422	22690
861.667	22599
861.913	22585
862.158	22687
862.403	22591
862.648	22605
862.893	22672
863.138	22577
863.384	22522
863.629	22543
863.873	22572
864.118	22425
864.363	22314
864.608	22275
864.853	22210
865.098	22134
865.342	21879
865.587	21868
865.832	21877
866.076	21904
866.321	21755
866.565	21654
866.81	21642
867.054	21530
867.298	21452
867.543	21363
867.787	21361
868.031	21320
868.275	21300
868.519	21297
868.764	21216
869.008	21086
869.252	21180
869.496	21065
869.739	21097
869.983	21005
870.227	21110
870.471	20969
870.715	21124
870.958	21077
871.202	21274
871.446	21350
871.689	21232
871.933	21224
872.176	21265
872.42	21106
872.663	21099
872.906	21133
873.15	21038
873.393	21086
873.636	21000
873.879	20812
874.122	20646
874.366	20272
874.609	20046
874.852	19830
875.095	19834
875.337	19701
875.58	19498
875.823	19565
876.066	19424
876.309	19430
876.551	19183
876.794	19049
877.037	19169
877.279	18984
877.522	19079
877.764	18930
878.007	19031
878.249	19065
878.491	18905
878.734	18900
878.976	18813
879.218	18787
879.46	18619
879.702	18466
879.945	18239
880.187	18130
880.429	17970
880.671	17903
880.912	17973
881.154	17756
881.396	17774
881.638	17756
881.88	17770
882.121	17678
882.363	17718
882.605	17744
882.846	17618
883.088	17654
883.329	17646
883.571	17697
883.812	17873
884.053	18197
884.295	18629
884.536	18854
884.777	18782
885.018	18619
885.259	18483
885.5	18332
885.742	18466
885.982	18229
886.223	18028
886.464	17966
886.705	17683
886.946	17580
887.187	17156
887.428	17047
887.668	16784
887.909	16499
888.15	16279
888.39	16220
888.631	16097
888.871	15876
889.111	15890
889.352	15823
889.592	15653
889.833	15537
890.073	15396
890.313	15300
890.553	15166
890.793	15024
891.033	15062
891.273	14978
891.513	14877
891.753	14876
891.993	14874
892.233	14882
892.473	14962
892.713	14921
892.952	14865
893.192	14882
893.432	14816
893.671	14999
893.911	14780
894.15	14665
894.39	14581
894.629	14509
894.869	14483
895.108	14309
895.347	14286
895.587	14320
895.826	14171
896.065	14187
896.304	14204
896.543	14201
896.782	14085
897.021	14114
897.26	14039
897.499	14116
897.738	14035
897.977	13903
898.216	13742
898.454	13675
898.693	13645
898.932	13649
899.17	13462
899.409	13481
899.647	13456
899.886	13393
900.124	13488
900.363	13391
900.601	13425
900.839	13472
901.078	13522
901.316	13682
901.554	13666
901.792	13712
902.03	13725
902.268	13690
902.506	13732
902.744	13604
902.982	13566
903.22	13305
903.458	13096
903.695	12941
903.933	12749
904.171	12414
904.409	12256
904.646	12171
904.884	11937
905.121	11774
905.359	11751
905.596	11690
905.833	11461
906.071	11409
906.308	11347
906.545	11365
906.783	11315
907.02	11287
907.257	11227
907.494	11226
907.731	11187
907.968	11114
908.205	11035
908.442	10949
908.679	10898
908.915	10817
909.152	10709
909.389	10569
909.626	10621
909.862	10477
910.099	10421
910.335	10431
910.572	10319
910.808	10288
911.045	10318
911.281	10207
911.518	10255
911.754	10105
911.99	10066
912.226	10008
912.463	9903
912.699	9828
912.935	9769
913.171	9703
913.407	9564
913.643	9499
913.879	9511
914.114	9398
914.35	9340
914.586	9169
914.822	9083
915.057	9156
915.293	8934
915.529	8953
915.764	9001
916	9031
916.235	8880
916.471	8925
916.706	8800
916.941	8803
917.177	8805
917.412	8833
917.647	8771
917.882	8759
918.117	8787
918.352	8695
918.588	8735
918.823	8551
919.057	8482
919.292	8376
919.527	8453
919.762	8322
919.997	8252
920.232	8125
920.466	8059
920.701	7931
920.935	7984
921.17	7877
921.405	7819
921.639	7855
921.873	7761
922.108	7825
922.342	7726
922.576	7640
922.811	7661
923.045	7695
923.279	7643
923.513	7486
923.747	7508
923.981	7461
924.215	7348
924.449	7404
924.683	7323
924.917	7231
925.151	7224
925.385	7349
925.618	7237
925.852	7227
926.086	7120
926.319	7099
926.553	7101
926.786	7120
927.02	7125
927.253	7167
927.486	7112
927.72	7021
927.953	7135
928.186	7026
928.42	7080
928.653	6968
928.886	6932
929.119	6933
929.352	6847
929.585	6825
929.818	6724
930.051	6715
930.284	6697
930.516	6618
930.749	6575
930.982	6613
931.215	6600
931.447	6455
931.68	6475
931.912	6472
932.145	6442
932.377	6413
932.61	6547
932.842	6329
933.074	6388
933.307	6319
933.539	6400
933.771	6437
934.003	6354
934.236	6466
934.468	6484
934.7	6356
934.932	6341
935.164	6271
935.395	6192
935.627	6280
935.859	6303
936.091	6155
936.323	6198
936.554	6202
936.786	6102
937.017	6015
937.249	6061
937.481	6021
937.712	6118
937.943	6069
938.175	6024
938.406	6005
938.637	6074
938.869	5967
939.1	5998
939.331	5895
939.562	5970
939.793	5925
940.024	5931
940.255	5875
940.486	5816
940.717	5801
940.948	5763
941.179	5653
941.409	5748
941.64	5736
941.871	5760
942.102	5673
942.332	5729
942.563	5752
942.793	5730
943.024	5629
943.254	5658
943.484	5710
943.715	5673
943.945	5659
944.175	5538
944.405	5576
944.636	5592
944.866	5648
945.096	5589
945.326	5554
945.556	5640
945.786	5607
946.016	5501
946.245	5416
946.475	5415
946.705	5378
946.935	5395
947.164	5366
947.394	5257
947.624	5258
947.853	5313
948.083	5273
948.312	5190
948.542	5164
948.771	5102
949	5183
949.23	5133
949.459	5093
949.688	5178
949.917	5122
950.146	5110
950.375	5118
950.604	5052
950.833	5094
951.062	5115
951.291	5017
951.52	5043
951.749	5035
951.978	4966
952.206	4955
952.435	4915
952.664	4982
952.892	4967
953.121	4934
953.349	4886
953.578	4878
953.806	4859
954.035	4756
954.263	4816
954.491	4739
954.719	4842
954.948	4710
955.176	4681
955.404	4560
955.632	4665
955.86	4665
956.088	4649
956.316	4604
956.544	4589
956.772	4595
956.999	4533
957.227	4566
957.455	4480
957.683	4458
957.91	4419
958.138	4360
958.365	4387
958.593	4351
958.82	4323
959.048	4317
959.275	4289
959.502	4304
959.73	4309
959.957	4314
960.184	4320
960.411	4211
960.638	4329
960.865	4230
961.092	4275
961.319	4153
961.546	4287
961.773	4264
962	4191
962.227	4263
962.454	4181
962.68	4147
962.907	4133
963.134	4113
963.36	4135
963.587	4126
963.813	4017
964.04	4039
964.266	3932
964.493	4050
964.719	4015
964.945	3986
965.171	3880
965.398	3902
965.624	3926
965.85	3859
966.076	3881
966.302	3868
966.528	3822
966.754	3852
966.98	3831
967.206	3853
967.431	3729
967.657	3777
967.883	3769
968.109	3748
968.334	3674
968.56	3663
968.785	3688
969.011	3643
969.236	3685
969.462	3633
969.687	3643
969.912	3640
970.138	3688
970.363	3549
970.588	3572
970.813	3554
971.038	3545
971.263	3551
971.488	3572
971.713	3561
971.938	3557
972.163	3430
972.388	3465
972.613	3412
972.838	3449
973.062	3453
973.287	3401
973.512	3368
973.736	3398
973.961	3324
974.185	3338
974.41	3361
974.634	3243
974.858	3272
975.083	3292
975.307	3253
975.531	3164
975.755	3155
975.98	3154
976.204	3099
976.428	3088
976.652	3089
976.876	3047
977.1	3076
977.324	3021
977.547	3101
977.771	3077
977.995	3056
978.219	2978
978.442	3125
978.666	3025
978.89	3035
979.113	2976
979.337	2994
979.56	2976
979.783	3044
980.007	2954
980.23	2927
980.453	2874
980.677	2932
980.9	2917
981.123	2855
981.346	2905
981.569	2887
981.792	2906
982.015	2837
982.238	2794
982.461	2806
982.684	2753
982.907	2736
983.129	2742
983.352	2738
983.575	2761
983.797	2761
984.02	2696
984.242	2688
984.465	2662
984.687	2709
984.91	2717
985.132	2628
985.354	2686
985.577	2669
985.799	2608
986.021	2559
986.243	2591
986.465	2577
986.687	2641
986.909	2681
987.131	2586
987.353	2524
987.575	2583
987.797	2527
988.019	2479
988.241	2500
988.462	2462
988.684	2551
988.906	2529
989.127	2559
989.349	2426
989.57	2491
989.792	2513
990.013	2501
990.234	2482
990.456	2514
990.677	2484
990.898	2447
991.119	2421
991.341	2456
991.562	2373
991.783	2405
992.004	2377
992.225	2311
992.446	2390
992.667	2302
992.887	2358
993.108	2214
993.329	2370
993.55	2317
993.77	2236
993.991	2228
994.212	2240
994.432	2255
994.653	2252
994.873	2247
995.093	2116
995.314	2203
995.534	2248
995.754	2235
995.975	2237
996.195	2135
996.415	2201
996.635	2150
996.855	2167
997.075	2130
997.295	2138
997.515	2164
997.735	2180
997.955	2153
998.174	2130
998.394	2095
998.614	2155
998.834	2102
999.053	2160
999.273	2101
999.492	2166
999.712	2140
999.931	2051
1000.151	2093
1000.37	2068
1000.589	2147
1000.809	2007
1001.028	2134
1001.247	2071
1001.466	1993
1001.685	2101
1001.904	2013
1002.123	1988
1002.342	2003
1002.561	1970
1002.78	1981
1002.999	2031
1003.218	1965
1003.436	1944
1003.655	2003
1003.874	1919
1004.092	1919
1004.311	1969
1004.53	1938
1004.748	2022
1004.966	1932
1005.185	1960
1005.403	1933
1005.622	1937
1005.84	2022
1006.058	1929
1006.276	1914
1006.494	2395
1006.712	1886
1006.931	1976
1007.149	1898
1007.367	1911
1007.584	1952
1007.802	1991
1008.02	1931
1008.238	2032
1008.456	2055
1008.673	1878
1008.891	2029
1009.109	2008
1009.326	2059
1009.544	2175
1009.761	2104
1009.979	2207
1010.196	2273
1010.413	2392
1010.631	2478
1010.848	2516
1011.065	2537
1011.282	2493
1011.5	2452
1011.717	2529
1011.934	2473
1012.151	2481
1012.368	2469
1012.585	2405
1012.801	2465
1013.018	2451
1013.235	2423
1013.452	2438
1013.669	2436
1013.885	2404
1014.102	2459
1014.318	2408
1014.535	2398
1014.751	2436
1014.968	2417
1015.184	2440
1015.401	2317
1015.617	2339
1015.833	2305
1016.049	2278
1016.266	2246
1016.482	2216
1016.698	2172
1016.914	2189
1017.13	2160
1017.346	2105
1017.562	2179
1017.778	2106
1017.993	2084
1018.209	2126
1018.425	2103
1018.641	2064
1018.856	2063
1019.072	2084
1019.288	2125
1019.503	2091
1019.719	2009
1019.934	1988
1020.149	2060
1020.365	1996
1020.58	1930
1020.795	1951
1021.011	1869
1021.226	1834
1021.441	1842
1021.656	1750
1021.871	1700
1022.086	1675
1022.301	1640
1022.516	1607
1022.731	1665
1022.946	1556
1023.16	1549
1023.375	1508
1023.59	1471
1023.804	1416
1024.019	1524
1024.234	1395
1024.448	1388
1024.663	1322
1024.877	1324
1025.092	1328
1025.306	1333
1025.52	1234
1025.734	1318
1025.949	1220
1026.163	1170
1026.377	1120
1026.591	1154
1026.805	1067
1027.019	1053
1027.233	1025
1027.447	968
1027.661	1069
1027.875	1020
1028.088	1010
1028.302	927
1028.516	912
1028.73	920
1028.943	899
1029.157	833
1029.37	761
1029.584	-4
1029.797	-1
1030.011	-2
1030.224	-1
