Data from QEP037381__296__16-19-09-908.txt Node

Date: Fri Dec 16 16:19:09 EST 2022
User: dcclab
Spectrometer: QEP03738
Trigger mode: 4
Integration Time (sec): 1.000000E1
Scans to average: 1
Electric dark correction enabled: true
Nonlinearity correction enabled: false
Boxcar width: 0
XAxis mode: Wavelengths
Number of Pixels in Spectrum: 1044
>>>>>Begin Spectral Data<<<<<
784.041	11.75
784.3	-0.25
784.558	-3.25
784.817	-3.25
785.075	110957.75
785.334	19391.75
785.592	9123.75
785.851	6256.75
786.109	4717.75
786.368	3731.75
786.626	2980.75
786.884	2473.75
787.143	2075.75
787.401	1707.75
787.659	1556.75
787.917	1319.75
788.175	1203.75
788.433	1049.75
788.691	945.75
788.949	859.75
789.207	839.75
789.465	707.75
789.723	707.75
789.98	638.75
790.238	673.75
790.496	649.75
790.753	606.75
791.011	657.75
791.268	588.75
791.526	575.75
791.783	579.75
792.041	544.75
792.298	483.75
792.556	544.75
792.813	517.75
793.07	510.75
793.327	486.75
793.584	566.75
793.841	493.75
794.099	524.75
794.356	571.75
794.613	451.75
794.869	503.75
795.126	481.75
795.383	456.75
795.64	482.75
795.897	414.75
796.153	506.75
796.41	488.75
796.667	459.75
796.923	473.75
797.18	454.75
797.436	505.75
797.693	457.75
797.949	504.75
798.206	545.75
798.462	448.75
798.718	514.75
798.974	498.75
799.231	545.75
799.487	544.75
799.743	563.75
799.999	597.75
800.255	579.75
800.511	571.75
800.767	635.75
801.023	614.75
801.279	675.75
801.534	739.75
801.79	792.75
802.046	853.75
802.302	1043.75
802.557	1219.75
802.813	1526.75
803.068	1987.75
803.324	2774.75
803.579	3855.75
803.835	5452.75
804.09	7468.75
804.345	9704.75
804.601	12395.75
804.856	14981.75
805.111	17367.75
805.366	19129.75
805.621	20518.75
805.876	21484.75
806.131	22127.75
806.386	22532.75
806.641	23024.75
806.896	23345.75
807.151	23729.75
807.406	24202.75
807.661	24665.75
807.915	25155.75
808.17	25475.75
808.425	25754.75
808.679	25968.75
808.934	26391.75
809.188	26570.75
809.443	26929.75
809.697	27225.75
809.951	27376.75
810.206	27606.75
810.46	27912.75
810.714	28098.75
810.968	28375.75
811.223	28663.75
811.477	28968.75
811.731	29320.75
811.985	29371.75
812.239	29541.75
812.493	29613.75
812.747	29787.75
813	29996.75
813.254	30071.75
813.508	30223.75
813.762	30401.75
814.015	30436.75
814.269	30729.75
814.522	30999.75
814.776	31358.75
815.03	31894.75
815.283	32292.75
815.536	32693.75
815.79	33252.75
816.043	33785.75
816.296	34306.75
816.55	34701.75
816.803	35031.75
817.056	35643.75
817.309	35818.75
817.562	36312.75
817.815	36509.75
818.068	36897.75
818.321	37291.75
818.574	37822.75
818.827	38312.75
819.079	38730.75
819.332	39398.75
819.585	39795.75
819.838	40307.75
820.09	40675.75
820.343	40952.75
820.595	41106.75
820.848	41510.75
821.1	41752.75
821.353	41729.75
821.605	41603.75
821.857	41725.75
822.11	41546.75
822.362	41335.75
822.614	41305.75
822.866	41487.75
823.118	41305.75
823.37	41607.75
823.622	41712.75
823.874	41680.75
824.126	41913.75
824.378	42037.75
824.63	42205.75
824.882	42229.75
825.134	42086.75
825.385	42302.75
825.637	42072.75
825.888	42060.75
826.14	41945.75
826.392	41696.75
826.643	41603.75
826.895	41456.75
827.146	41318.75
827.397	41257.75
827.649	41332.75
827.9	41141.75
828.151	41320.75
828.402	41466.75
828.653	41557.75
828.905	41704.75
829.156	41832.75
829.407	41695.75
829.658	41905.75
829.909	41810.75
830.159	41865.75
830.41	41613.75
830.661	41405.75
830.912	41088.75
831.162	40864.75
831.413	41104.75
831.664	40880.75
831.914	40992.75
832.165	40840.75
832.415	40884.75
832.666	40822.75
832.916	40957.75
833.167	40930.75
833.417	40870.75
833.667	40788.75
833.917	40738.75
834.168	40682.75
834.418	40587.75
834.668	40345.75
834.918	40052.75
835.168	40082.75
835.418	39830.75
835.668	39817.75
835.918	39705.75
836.167	39552.75
836.417	39419.75
836.667	39360.75
836.917	39379.75
837.166	39359.75
837.416	39514.75
837.666	39463.75
837.915	39409.75
838.165	39395.75
838.414	39231.75
838.663	39136.75
838.913	39163.75
839.162	38965.75
839.411	38946.75
839.661	38803.75
839.91	38709.75
840.159	38706.75
840.408	38565.75
840.657	38575.75
840.906	38717.75
841.155	38636.75
841.404	38611.75
841.653	38765.75
841.902	38742.75
842.15	38703.75
842.399	38880.75
842.648	38732.75
842.897	38702.75
843.145	38327.75
843.394	38196.75
843.642	37903.75
843.891	37790.75
844.139	37705.75
844.388	37469.75
844.636	37312.75
844.884	37320.75
845.133	37222.75
845.381	37239.75
845.629	37268.75
845.877	37150.75
846.125	37173.75
846.373	37096.75
846.621	36953.75
846.869	36810.75
847.117	36676.75
847.365	36530.75
847.613	36239.75
847.861	36259.75
848.108	36196.75
848.356	36134.75
848.604	36015.75
848.851	36135.75
849.099	36179.75
849.346	36108.75
849.594	36392.75
849.841	36502.75
850.089	36424.75
850.336	36524.75
850.583	36655.75
850.831	36378.75
851.078	36203.75
851.325	36032.75
851.572	36150.75
851.819	35833.75
852.066	35269.75
852.313	34854.75
852.56	34689.75
852.807	34494.75
853.054	34310.75
853.301	34310.75
853.548	34260.75
853.794	34527.75
854.041	34580.75
854.288	34796.75
854.534	34958.75
854.781	35069.75
855.028	34866.75
855.274	34666.75
855.52	34454.75
855.767	34479.75
856.013	34466.75
856.26	34768.75
856.506	34331.75
856.752	34087.75
856.998	34135.75
857.244	34213.75
857.49	34402.75
857.736	34399.75
857.982	34404.75
858.228	34398.75
858.474	34092.75
858.72	34008.75
858.966	33624.75
859.212	33332.75
859.458	33005.75
859.703	32646.75
859.949	32309.75
860.195	32201.75
860.44	32056.75
860.686	31878.75
860.931	31879.75
861.177	31765.75
861.422	31505.75
861.667	31502.75
861.913	31606.75
862.158	31708.75
862.403	31596.75
862.648	31628.75
862.893	31684.75
863.138	31772.75
863.384	31758.75
863.629	31674.75
863.873	31596.75
864.118	31471.75
864.363	31278.75
864.608	31241.75
864.853	31125.75
865.098	30975.75
865.342	30732.75
865.587	30797.75
865.832	30693.75
866.076	30531.75
866.321	30614.75
866.565	30423.75
866.81	30296.75
867.054	30329.75
867.298	30152.75
867.543	30074.75
867.787	30023.75
868.031	30034.75
868.275	29892.75
868.519	29942.75
868.764	29772.75
869.008	29674.75
869.252	29791.75
869.496	29634.75
869.739	29456.75
869.983	29587.75
870.227	29410.75
870.471	29486.75
870.715	29517.75
870.958	29566.75
871.202	29610.75
871.446	29713.75
871.689	29683.75
871.933	29687.75
872.176	29638.75
872.42	29637.75
872.663	29652.75
872.906	29440.75
873.15	29501.75
873.393	29195.75
873.636	29104.75
873.879	28857.75
874.122	28658.75
874.366	28222.75
874.609	28107.75
874.852	27904.75
875.095	27735.75
875.337	27617.75
875.58	27428.75
875.823	27370.75
876.066	27433.75
876.309	27413.75
876.551	27134.75
876.794	26964.75
877.037	26862.75
877.279	26852.75
877.522	26933.75
877.764	26937.75
878.007	26809.75
878.249	26877.75
878.491	26768.75
878.734	26674.75
878.976	26616.75
879.218	26505.75
879.46	26362.75
879.702	26195.75
879.945	26029.75
880.187	25808.75
880.429	25703.75
880.671	25504.75
880.912	25477.75
881.154	25278.75
881.396	25290.75
881.638	25315.75
881.88	25235.75
882.121	25178.75
882.363	25218.75
882.605	25136.75
882.846	25113.75
883.088	24930.75
883.329	24906.75
883.571	24961.75
883.812	25089.75
884.053	25322.75
884.295	25771.75
884.536	25798.75
884.777	25667.75
885.018	25607.75
885.259	25532.75
885.5	25321.75
885.742	25442.75
885.982	25332.75
886.223	25249.75
886.464	25057.75
886.705	24894.75
886.946	24623.75
887.187	24320.75
887.428	24073.75
887.668	23826.75
887.909	23499.75
888.15	23304.75
888.39	23154.75
888.631	23004.75
888.871	22923.75
889.111	22708.75
889.352	22491.75
889.592	22277.75
889.833	22231.75
890.073	22082.75
890.313	22054.75
890.553	21789.75
890.793	21723.75
891.033	21636.75
891.273	21517.75
891.513	21396.75
891.753	21450.75
891.993	21367.75
892.233	21403.75
892.473	21439.75
892.713	21459.75
892.952	21349.75
893.192	21364.75
893.432	21414.75
893.671	21342.75
893.911	21232.75
894.15	21219.75
894.39	21037.75
894.629	20849.75
894.869	20737.75
895.108	20651.75
895.347	20489.75
895.587	20503.75
895.826	20559.75
896.065	20340.75
896.304	20459.75
896.543	20401.75
896.782	20277.75
897.021	20234.75
897.26	20184.75
897.499	20172.75
897.738	20092.75
897.977	19806.75
898.216	19776.75
898.454	19580.75
898.693	19403.75
898.932	19415.75
899.17	19296.75
899.409	19298.75
899.647	19183.75
899.886	19203.75
900.124	19298.75
900.363	19141.75
900.601	19217.75
900.839	19284.75
901.078	19194.75
901.316	19366.75
901.554	19258.75
901.792	19389.75
902.03	19306.75
902.268	19319.75
902.506	19333.75
902.744	19143.75
902.982	19234.75
903.22	18864.75
903.458	18684.75
903.695	18500.75
903.933	18200.75
904.171	17911.75
904.409	17690.75
904.646	17494.75
904.884	17241.75
905.121	17101.75
905.359	16849.75
905.596	16771.75
905.833	16552.75
906.071	16436.75
906.308	16497.75
906.545	16434.75
906.783	16425.75
907.02	16402.75
907.257	16267.75
907.494	16178.75
907.731	16182.75
907.968	16053.75
908.205	15980.75
908.442	15866.75
908.679	15769.75
908.915	15672.75
909.152	15526.75
909.389	15433.75
909.626	15328.75
909.862	15187.75
910.099	15191.75
910.335	15116.75
910.572	15043.75
910.808	14986.75
911.045	14920.75
911.281	14851.75
911.518	14794.75
911.754	14756.75
911.99	14701.75
912.226	14560.75
912.463	14406.75
912.699	14332.75
912.935	14244.75
913.171	14075.75
913.407	13966.75
913.643	13962.75
913.879	13752.75
914.114	13674.75
914.35	13530.75
914.586	13446.75
914.822	13253.75
915.057	13313.75
915.293	12970.75
915.529	13050.75
915.764	13012.75
916	13008.75
916.235	12901.75
916.471	12978.75
916.706	12858.75
916.941	12865.75
917.177	12813.75
917.412	12881.75
917.647	12814.75
917.882	12712.75
918.117	12737.75
918.352	12686.75
918.588	12686.75
918.823	12536.75
919.057	12421.75
919.292	12286.75
919.527	12274.75
919.762	12073.75
919.997	12000.75
920.232	11813.75
920.466	11809.75
920.701	11567.75
920.935	11654.75
921.17	11430.75
921.405	11488.75
921.639	11484.75
921.873	11311.75
922.108	11363.75
922.342	11239.75
922.576	11254.75
922.811	11165.75
923.045	11158.75
923.279	11047.75
923.513	10928.75
923.747	11038.75
923.981	10910.75
924.215	10783.75
924.449	10770.75
924.683	10647.75
924.917	10574.75
925.151	10581.75
925.385	10520.75
925.618	10457.75
925.852	10492.75
926.086	10450.75
926.319	10434.75
926.553	10386.75
926.786	10458.75
927.02	10321.75
927.253	10451.75
927.486	10303.75
927.72	10302.75
927.953	10268.75
928.186	10237.75
928.42	10324.75
928.653	10115.75
928.886	10062.75
929.119	10035.75
929.352	10050.75
929.585	9960.75
929.818	9811.75
930.051	9811.75
930.284	9688.75
930.516	9571.75
930.749	9632.75
930.982	9502.75
931.215	9552.75
931.447	9432.75
931.68	9400.75
931.912	9319.75
932.145	9291.75
932.377	9374.75
932.61	9466.75
932.842	9252.75
933.074	9347.75
933.307	9220.75
933.539	9308.75
933.771	9329.75
934.003	9228.75
934.236	9300.75
934.468	9254.75
934.7	9192.75
934.932	9262.75
935.164	9158.75
935.395	9135.75
935.627	9069.75
935.859	9041.75
936.091	8972.75
936.323	9034.75
936.554	8917.75
936.786	8931.75
937.017	8767.75
937.249	8882.75
937.481	8787.75
937.712	8826.75
937.943	8841.75
938.175	8754.75
938.406	8682.75
938.637	8747.75
938.869	8657.75
939.1	8735.75
939.331	8609.75
939.562	8636.75
939.793	8545.75
940.024	8559.75
940.255	8509.75
940.486	8450.75
940.717	8438.75
940.948	8349.75
941.179	8326.75
941.409	8304.75
941.64	8293.75
941.871	8315.75
942.102	8319.75
942.332	8240.75
942.563	8321.75
942.793	8298.75
943.024	8219.75
943.254	8287.75
943.484	8226.75
943.715	8307.75
943.945	8285.75
944.175	8202.75
944.405	8102.75
944.636	8110.75
944.866	8138.75
945.096	8172.75
945.326	8037.75
945.556	8090.75
945.786	8092.75
946.016	7894.75
946.245	7892.75
946.475	7819.75
946.705	7783.75
946.935	7736.75
947.164	7740.75
947.394	7642.75
947.624	7629.75
947.853	7630.75
948.083	7596.75
948.312	7596.75
948.542	7425.75
948.771	7447.75
949	7439.75
949.23	7405.75
949.459	7387.75
949.688	7478.75
949.917	7398.75
950.146	7459.75
950.375	7468.75
950.604	7316.75
950.833	7419.75
951.062	7387.75
951.291	7346.75
951.52	7257.75
951.749	7309.75
951.978	7163.75
952.206	7202.75
952.435	7174.75
952.664	7186.75
952.892	7169.75
953.121	7137.75
953.349	7118.75
953.578	7071.75
953.806	7076.75
954.035	6924.75
954.263	6933.75
954.491	6826.75
954.719	6867.75
954.948	6850.75
955.176	6775.75
955.404	6695.75
955.632	6725.75
955.86	6753.75
956.088	6686.75
956.316	6684.75
956.544	6664.75
956.772	6554.75
956.999	6548.75
957.227	6501.75
957.455	6381.75
957.683	6460.75
957.91	6329.75
958.138	6338.75
958.365	6223.75
958.593	6279.75
958.82	6223.75
959.048	6228.75
959.275	6205.75
959.502	6187.75
959.73	6174.75
959.957	6196.75
960.184	6151.75
960.411	6097.75
960.638	6162.75
960.865	6131.75
961.092	6178.75
961.319	5992.75
961.546	6111.75
961.773	6107.75
962	6017.75
962.227	6055.75
962.454	5998.75
962.68	5997.75
962.907	5963.75
963.134	5950.75
963.36	5873.75
963.587	5879.75
963.813	5781.75
964.04	5758.75
964.266	5703.75
964.493	5755.75
964.719	5722.75
964.945	5704.75
965.171	5602.75
965.398	5587.75
965.624	5565.75
965.85	5521.75
966.076	5432.75
966.302	5504.75
966.528	5444.75
966.754	5463.75
966.98	5424.75
967.206	5398.75
967.431	5335.75
967.657	5399.75
967.883	5398.75
968.109	5315.75
968.334	5226.75
968.56	5266.75
968.785	5249.75
969.011	5208.75
969.236	5270.75
969.462	5197.75
969.687	5155.75
969.912	5239.75
970.138	5144.75
970.363	5116.75
970.588	5141.75
970.813	5048.75
971.038	4996.75
971.263	5020.75
971.488	5076.75
971.713	5068.75
971.938	5020.75
972.163	4915.75
972.388	4896.75
972.613	4901.75
972.838	4868.75
973.062	4869.75
973.287	4775.75
973.512	4752.75
973.736	4826.75
973.961	4705.75
974.185	4735.75
974.41	4723.75
974.634	4626.75
974.858	4584.75
975.083	4583.75
975.307	4613.75
975.531	4523.75
975.755	4464.75
975.98	4446.75
976.204	4404.75
976.428	4374.75
976.652	4394.75
976.876	4359.75
977.1	4359.75
977.324	4339.75
977.547	4365.75
977.771	4373.75
977.995	4289.75
978.219	4211.75
978.442	4362.75
978.666	4250.75
978.89	4250.75
979.113	4223.75
979.337	4229.75
979.56	4207.75
979.783	4299.75
980.007	4120.75
980.23	4110.75
980.453	4077.75
980.677	4098.75
980.9	4106.75
981.123	3979.75
981.346	4090.75
981.569	4017.75
981.792	4080.75
982.015	3972.75
982.238	3920.75
982.461	3955.75
982.684	3910.75
982.907	3844.75
983.129	3828.75
983.352	3844.75
983.575	3872.75
983.797	3819.75
984.02	3761.75
984.242	3726.75
984.465	3743.75
984.687	3750.75
984.91	3760.75
985.132	3729.75
985.354	3701.75
985.577	3676.75
985.799	3656.75
986.021	3571.75
986.243	3544.75
986.465	3574.75
986.687	3604.75
986.909	3591.75
987.131	3535.75
987.353	3495.75
987.575	3503.75
987.797	3455.75
988.019	3408.75
988.241	3472.75
988.462	3443.75
988.684	3474.75
988.906	3490.75
989.127	3504.75
989.349	3362.75
989.57	3423.75
989.792	3416.75
990.013	3447.75
990.234	3418.75
990.456	3391.75
990.677	3402.75
990.898	3341.75
991.119	3303.75
991.341	3307.75
991.562	3265.75
991.783	3312.75
992.004	3199.75
992.225	3165.75
992.446	3221.75
992.667	3124.75
992.887	3195.75
993.108	3137.75
993.329	3201.75
993.55	3107.75
993.77	3058.75
993.991	3046.75
994.212	3074.75
994.432	3004.75
994.653	3058.75
994.873	2987.75
995.093	2873.75
995.314	2934.75
995.534	2980.75
995.754	2976.75
995.975	2991.75
996.195	2874.75
996.415	2941.75
996.635	2911.75
996.855	2948.75
997.075	2854.75
997.295	2823.75
997.515	2787.75
997.735	2872.75
997.955	2866.75
998.174	2814.75
998.394	2818.75
998.614	2835.75
998.834	2795.75
999.053	2858.75
999.273	2816.75
999.492	2835.75
999.712	2775.75
999.931	2717.75
1000.151	2753.75
1000.37	2719.75
1000.589	2811.75
1000.809	2682.75
1001.028	2752.75
1001.247	2704.75
1001.466	2601.75
1001.685	2701.75
1001.904	2664.75
1002.123	2600.75
1002.342	2624.75
1002.561	2582.75
1002.78	2621.75
1002.999	2612.75
1003.218	2573.75
1003.436	2543.75
1003.655	2567.75
1003.874	2523.75
1004.092	2505.75
1004.311	2534.75
1004.53	2505.75
1004.748	2566.75
1004.966	2514.75
1005.185	2524.75
1005.403	2537.75
1005.622	2467.75
1005.84	2536.75
1006.058	2399.75
1006.276	2442.75
1006.494	2973.75
1006.712	2414.75
1006.931	2506.75
1007.149	2420.75
1007.367	2419.75
1007.584	2436.75
1007.802	2489.75
1008.02	2447.75
1008.238	2531.75
1008.456	2514.75
1008.673	2387.75
1008.891	2529.75
1009.109	2455.75
1009.326	2480.75
1009.544	2568.75
1009.761	2505.75
1009.979	2611.75
1010.196	2635.75
1010.413	2792.75
1010.631	2823.75
1010.848	2889.75
1011.065	2921.75
1011.282	2866.75
1011.5	2792.75
1011.717	2869.75
1011.934	2799.75
1012.151	2820.75
1012.368	2774.75
1012.585	2770.75
1012.801	2759.75
1013.018	2748.75
1013.235	2727.75
1013.452	2725.75
1013.669	2746.75
1013.885	2733.75
1014.102	2779.75
1014.318	2777.75
1014.535	2699.75
1014.751	2719.75
1014.968	2656.75
1015.184	2750.75
1015.401	2611.75
1015.617	2631.75
1015.833	2570.75
1016.049	2568.75
1016.266	2556.75
1016.482	2537.75
1016.698	2472.75
1016.914	2471.75
1017.13	2437.75
1017.346	2391.75
1017.562	2450.75
1017.778	2405.75
1017.993	2356.75
1018.209	2433.75
1018.425	2396.75
1018.641	2334.75
1018.856	2341.75
1019.072	2360.75
1019.288	2365.75
1019.503	2326.75
1019.719	2249.75
1019.934	2269.75
1020.149	2339.75
1020.365	2273.75
1020.58	2176.75
1020.795	2242.75
1021.011	2103.75
1021.226	2130.75
1021.441	2100.75
1021.656	2019.75
1021.871	1922.75
1022.086	1902.75
1022.301	1901.75
1022.516	1879.75
1022.731	1913.75
1022.946	1822.75
1023.16	1800.75
1023.375	1764.75
1023.59	1735.75
1023.804	1686.75
1024.019	1784.75
1024.234	1618.75
1024.448	1650.75
1024.663	1545.75
1024.877	1560.75
1025.092	1570.75
1025.306	1576.75
1025.52	1446.75
1025.734	1502.75
1025.949	1422.75
1026.163	1397.75
1026.377	1280.75
1026.591	1362.75
1026.805	1282.75
1027.019	1270.75
1027.233	1226.75
1027.447	1180.75
1027.661	1272.75
1027.875	1197.75
1028.088	1189.75
1028.302	1108.75
1028.516	1079.75
1028.73	1085.75
1028.943	1040.75
1029.157	979.75
1029.37	926.75
1029.584	-2.25
1029.797	1.75
1030.011	-4.25
1030.224	-0.25
