Data from QEP037381__346__16-27-29-915.txt Node

Date: Fri Dec 16 16:27:29 EST 2022
User: dcclab
Spectrometer: QEP03738
Trigger mode: 4
Integration Time (sec): 1.000000E1
Scans to average: 1
Electric dark correction enabled: true
Nonlinearity correction enabled: false
Boxcar width: 0
XAxis mode: Wavelengths
Number of Pixels in Spectrum: 1044
>>>>>Begin Spectral Data<<<<<
784.041	8.5
784.3	-0.5
784.558	-0.5
784.817	-3.5
785.075	113721.5
785.334	19649.5
785.592	9163.5
785.851	6336.5
786.109	4748.5
786.368	3688.5
786.626	2956.5
786.884	2461.5
787.143	2049.5
787.401	1718.5
787.659	1572.5
787.917	1305.5
788.175	1214.5
788.433	1069.5
788.691	943.5
788.949	870.5
789.207	823.5
789.465	725.5
789.723	689.5
789.98	639.5
790.238	681.5
790.496	626.5
790.753	595.5
791.011	652.5
791.268	591.5
791.526	554.5
791.783	583.5
792.041	546.5
792.298	473.5
792.556	542.5
792.813	522.5
793.07	480.5
793.327	481.5
793.584	559.5
793.841	473.5
794.099	498.5
794.356	549.5
794.613	456.5
794.869	491.5
795.126	451.5
795.383	421.5
795.64	449.5
795.897	397.5
796.153	470.5
796.41	451.5
796.667	437.5
796.923	456.5
797.18	452.5
797.436	479.5
797.693	436.5
797.949	488.5
798.206	517.5
798.462	433.5
798.718	490.5
798.974	478.5
799.231	510.5
799.487	513.5
799.743	527.5
799.999	564.5
800.255	533.5
800.511	528.5
800.767	582.5
801.023	578.5
801.279	618.5
801.534	653.5
801.79	732.5
802.046	774.5
802.302	922.5
802.557	1063.5
802.813	1341.5
803.068	1699.5
803.324	2346.5
803.579	3231.5
803.835	4490.5
804.09	6145.5
804.345	8028.5
804.601	10106.5
804.856	12278.5
805.111	14229.5
805.366	15608.5
805.621	16613.5
805.876	17480.5
806.131	17999.5
806.386	18369.5
806.641	18612.5
806.896	18855.5
807.151	19329.5
807.406	19544.5
807.661	20018.5
807.915	20298.5
808.17	20628.5
808.425	20819.5
808.679	20823.5
808.934	21285.5
809.188	21408.5
809.443	21642.5
809.697	21888.5
809.951	22152.5
810.206	22324.5
810.46	22456.5
810.714	22742.5
810.968	22884.5
811.223	22993.5
811.477	23337.5
811.731	23491.5
811.985	23573.5
812.239	23737.5
812.493	23766.5
812.747	23889.5
813	23948.5
813.254	24133.5
813.508	24230.5
813.762	24211.5
814.015	24468.5
814.269	24605.5
814.522	24765.5
814.776	25154.5
815.03	25483.5
815.283	25799.5
815.536	26216.5
815.79	26700.5
816.043	26850.5
816.296	27323.5
816.55	27639.5
816.803	27871.5
817.056	28310.5
817.309	28456.5
817.562	28828.5
817.815	29139.5
818.068	29351.5
818.321	29616.5
818.574	30022.5
818.827	30499.5
819.079	30680.5
819.332	31122.5
819.585	31635.5
819.838	32007.5
820.09	32235.5
820.343	32510.5
820.595	32539.5
820.848	32842.5
821.1	32837.5
821.353	32919.5
821.605	32937.5
821.857	32912.5
822.11	32672.5
822.362	32520.5
822.614	32650.5
822.866	32650.5
823.118	32525.5
823.37	32779.5
823.622	32851.5
823.874	32937.5
824.126	33050.5
824.378	33030.5
824.63	33221.5
824.882	33282.5
825.134	33182.5
825.385	33128.5
825.637	33076.5
825.888	33078.5
826.14	33139.5
826.392	33019.5
826.643	32624.5
826.895	32536.5
827.146	32492.5
827.397	32280.5
827.649	32367.5
827.9	32448.5
828.151	32468.5
828.402	32449.5
828.653	32585.5
828.905	32635.5
829.156	32789.5
829.407	32633.5
829.658	32719.5
829.909	32802.5
830.159	32841.5
830.41	32608.5
830.661	32424.5
830.912	32343.5
831.162	32039.5
831.413	32145.5
831.664	32183.5
831.914	32062.5
832.165	32060.5
832.415	32034.5
832.666	31974.5
832.916	32010.5
833.167	31986.5
833.417	32037.5
833.667	31896.5
833.917	31854.5
834.168	31790.5
834.418	31673.5
834.668	31522.5
834.918	31355.5
835.168	31328.5
835.418	31029.5
835.668	30989.5
835.918	30885.5
836.167	30859.5
836.417	30823.5
836.667	30748.5
836.917	30727.5
837.166	30720.5
837.416	30769.5
837.666	30759.5
837.915	30662.5
838.165	30574.5
838.414	30496.5
838.663	30334.5
838.913	30349.5
839.162	30384.5
839.411	30369.5
839.661	30245.5
839.91	30125.5
840.159	30069.5
840.408	30108.5
840.657	30028.5
840.906	30050.5
841.155	30044.5
841.404	29962.5
841.653	30050.5
841.902	30067.5
842.15	30105.5
842.399	30068.5
842.648	30039.5
842.897	29911.5
843.145	29756.5
843.394	29711.5
843.642	29460.5
843.891	29293.5
844.139	29119.5
844.388	29015.5
844.636	28824.5
844.884	28907.5
845.133	28767.5
845.381	28850.5
845.629	28890.5
845.877	28783.5
846.125	28748.5
846.373	28632.5
846.621	28474.5
846.869	28582.5
847.117	28356.5
847.365	28081.5
847.613	28018.5
847.861	28065.5
848.108	27965.5
848.356	27911.5
848.604	27852.5
848.851	27830.5
849.099	27942.5
849.346	28029.5
849.594	28184.5
849.841	28180.5
850.089	28093.5
850.336	28099.5
850.583	28123.5
850.831	27943.5
851.078	27851.5
851.325	27820.5
851.572	27960.5
851.819	27673.5
852.066	27115.5
852.313	26740.5
852.56	26596.5
852.807	26570.5
853.054	26493.5
853.301	26430.5
853.548	26294.5
853.794	26498.5
854.041	26598.5
854.288	26641.5
854.534	26980.5
854.781	26851.5
855.028	26681.5
855.274	26555.5
855.52	26591.5
855.767	26431.5
856.013	26606.5
856.26	26832.5
856.506	26228.5
856.752	26122.5
856.998	26162.5
857.244	26193.5
857.49	26467.5
857.736	26493.5
857.982	26494.5
858.228	26402.5
858.474	26166.5
858.72	25916.5
858.966	25741.5
859.212	25434.5
859.458	25304.5
859.703	24941.5
859.949	24709.5
860.195	24607.5
860.44	24463.5
860.686	24434.5
860.931	24377.5
861.177	24204.5
861.422	24041.5
861.667	23887.5
861.913	24011.5
862.158	23995.5
862.403	23904.5
862.648	24046.5
862.893	24037.5
863.138	23934.5
863.384	23925.5
863.629	23940.5
863.873	23739.5
864.118	23986.5
864.363	23724.5
864.608	23574.5
864.853	23579.5
865.098	23448.5
865.342	23242.5
865.587	23162.5
865.832	23211.5
866.076	23190.5
866.321	23125.5
866.565	22937.5
866.81	22929.5
867.054	22726.5
867.298	22751.5
867.543	22697.5
867.787	22652.5
868.031	22603.5
868.275	22588.5
868.519	22542.5
868.764	22418.5
869.008	22497.5
869.252	22489.5
869.496	22325.5
869.739	22383.5
869.983	22279.5
870.227	22233.5
870.471	22231.5
870.715	22357.5
870.958	22407.5
871.202	22412.5
871.446	22499.5
871.689	22506.5
871.933	22476.5
872.176	22354.5
872.42	22340.5
872.663	22302.5
872.906	22286.5
873.15	22240.5
873.393	22133.5
873.636	22025.5
873.879	21799.5
874.122	21698.5
874.366	21366.5
874.609	21263.5
874.852	21025.5
875.095	20934.5
875.337	20854.5
875.58	20643.5
875.823	20687.5
876.066	20666.5
876.309	20536.5
876.551	20270.5
876.794	20238.5
877.037	20266.5
877.279	20137.5
877.522	20153.5
877.764	20112.5
878.007	20121.5
878.249	20066.5
878.491	19962.5
878.734	19920.5
878.976	19919.5
879.218	19788.5
879.46	19606.5
879.702	19479.5
879.945	19307.5
880.187	19115.5
880.429	19027.5
880.671	18962.5
880.912	18894.5
881.154	18913.5
881.396	18763.5
881.638	18817.5
881.88	18757.5
882.121	18786.5
882.363	18715.5
882.605	18639.5
882.846	18615.5
883.088	18539.5
883.329	18528.5
883.571	18527.5
883.812	18710.5
884.053	19210.5
884.295	19400.5
884.536	19740.5
884.777	19470.5
885.018	19393.5
885.259	19207.5
885.5	19273.5
885.742	19256.5
885.982	19056.5
886.223	18849.5
886.464	18790.5
886.705	18478.5
886.946	18410.5
887.187	17974.5
887.428	17984.5
887.668	17633.5
887.909	17378.5
888.15	17168.5
888.39	17142.5
888.631	16925.5
888.871	16853.5
889.111	16679.5
889.352	16558.5
889.592	16344.5
889.833	16332.5
890.073	16089.5
890.313	16158.5
890.553	15955.5
890.793	15976.5
891.033	15735.5
891.273	15733.5
891.513	15749.5
891.753	15665.5
891.993	15596.5
892.233	15687.5
892.473	15704.5
892.713	15704.5
892.952	15719.5
893.192	15697.5
893.432	15672.5
893.671	15598.5
893.911	15548.5
894.15	15452.5
894.39	15204.5
894.629	15259.5
894.869	15179.5
895.108	15077.5
895.347	14991.5
895.587	14972.5
895.826	14773.5
896.065	14845.5
896.304	14907.5
896.543	14901.5
896.782	14740.5
897.021	14761.5
897.26	14674.5
897.499	14681.5
897.738	14772.5
897.977	14593.5
898.216	14476.5
898.454	14308.5
898.693	14261.5
898.932	14158.5
899.17	14150.5
899.409	14166.5
899.647	14060.5
899.886	14022.5
900.124	14097.5
900.363	14073.5
900.601	14039.5
900.839	14158.5
901.078	14144.5
901.316	14178.5
901.554	14258.5
901.792	14332.5
902.03	14287.5
902.268	14320.5
902.506	14287.5
902.744	14112.5
902.982	14057.5
903.22	13842.5
903.458	13649.5
903.695	13409.5
903.933	13304.5
904.171	13003.5
904.409	12766.5
904.646	12777.5
904.884	12462.5
905.121	12443.5
905.359	12135.5
905.596	12144.5
905.833	11911.5
906.071	11889.5
906.308	11955.5
906.545	11818.5
906.783	11761.5
907.02	11722.5
907.257	11689.5
907.494	11673.5
907.731	11651.5
907.968	11535.5
908.205	11494.5
908.442	11368.5
908.679	11327.5
908.915	11205.5
909.152	11137.5
909.389	10962.5
909.626	10970.5
909.862	10878.5
910.099	10898.5
910.335	10809.5
910.572	10638.5
910.808	10718.5
911.045	10687.5
911.281	10622.5
911.518	10714.5
911.754	10530.5
911.99	10430.5
912.226	10368.5
912.463	10275.5
912.699	10189.5
912.935	10171.5
913.171	9982.5
913.407	9950.5
913.643	9929.5
913.879	9875.5
914.114	9681.5
914.35	9659.5
914.586	9520.5
914.822	9411.5
915.057	9456.5
915.293	9233.5
915.529	9253.5
915.764	9241.5
916	9243.5
916.235	9150.5
916.471	9192.5
916.706	9134.5
916.941	9207.5
917.177	9122.5
917.412	9136.5
917.647	9142.5
917.882	9050.5
918.117	9119.5
918.352	8956.5
918.588	9041.5
918.823	8879.5
919.057	8792.5
919.292	8614.5
919.527	8626.5
919.762	8512.5
919.997	8519.5
920.232	8366.5
920.466	8328.5
920.701	8108.5
920.935	8236.5
921.17	8114.5
921.405	8096.5
921.639	8029.5
921.873	7989.5
922.108	8011.5
922.342	8001.5
922.576	7930.5
922.811	7908.5
923.045	7917.5
923.279	7913.5
923.513	7727.5
923.747	7794.5
923.981	7746.5
924.215	7608.5
924.449	7601.5
924.683	7566.5
924.917	7488.5
925.151	7553.5
925.385	7510.5
925.618	7463.5
925.852	7449.5
926.086	7277.5
926.319	7385.5
926.553	7362.5
926.786	7406.5
927.02	7349.5
927.253	7353.5
927.486	7311.5
927.72	7248.5
927.953	7334.5
928.186	7214.5
928.42	7235.5
928.653	7149.5
928.886	7079.5
929.119	7146.5
929.352	7099.5
929.585	7044.5
929.818	6916.5
930.051	6909.5
930.284	6952.5
930.516	6791.5
930.749	6772.5
930.982	6806.5
931.215	6758.5
931.447	6584.5
931.68	6599.5
931.912	6583.5
932.145	6539.5
932.377	6579.5
932.61	6715.5
932.842	6538.5
933.074	6580.5
933.307	6539.5
933.539	6600.5
933.771	6603.5
934.003	6538.5
934.236	6610.5
934.468	6626.5
934.7	6479.5
934.932	6491.5
935.164	6396.5
935.395	6388.5
935.627	6425.5
935.859	6433.5
936.091	6329.5
936.323	6355.5
936.554	6355.5
936.786	6361.5
937.017	6177.5
937.249	6301.5
937.481	6171.5
937.712	6236.5
937.943	6176.5
938.175	6153.5
938.406	6149.5
938.637	6188.5
938.869	6091.5
939.1	6142.5
939.331	6077.5
939.562	6096.5
939.793	6098.5
940.024	6068.5
940.255	6023.5
940.486	5981.5
940.717	5958.5
940.948	5930.5
941.179	5836.5
941.409	5910.5
941.64	5861.5
941.871	5896.5
942.102	5866.5
942.332	5813.5
942.563	5882.5
942.793	5830.5
943.024	5823.5
943.254	5796.5
943.484	5815.5
943.715	5854.5
943.945	5780.5
944.175	5739.5
944.405	5723.5
944.636	5757.5
944.866	5765.5
945.096	5792.5
945.326	5639.5
945.556	5725.5
945.786	5653.5
946.016	5589.5
946.245	5586.5
946.475	5499.5
946.705	5516.5
946.935	5477.5
947.164	5500.5
947.394	5397.5
947.624	5443.5
947.853	5413.5
948.083	5414.5
948.312	5312.5
948.542	5281.5
948.771	5226.5
949	5209.5
949.23	5237.5
949.459	5198.5
949.688	5308.5
949.917	5257.5
950.146	5196.5
950.375	5296.5
950.604	5143.5
950.833	5256.5
951.062	5254.5
951.291	5201.5
951.52	5120.5
951.749	5158.5
951.978	5067.5
952.206	5065.5
952.435	5041.5
952.664	5123.5
952.892	5050.5
953.121	5041.5
953.349	5003.5
953.578	5005.5
953.806	4976.5
954.035	4859.5
954.263	4938.5
954.491	4826.5
954.719	4827.5
954.948	4844.5
955.176	4767.5
955.404	4692.5
955.632	4799.5
955.86	4733.5
956.088	4726.5
956.316	4751.5
956.544	4746.5
956.772	4643.5
956.999	4621.5
957.227	4673.5
957.455	4558.5
957.683	4557.5
957.91	4532.5
958.138	4436.5
958.365	4432.5
958.593	4468.5
958.82	4396.5
959.048	4470.5
959.275	4383.5
959.502	4408.5
959.73	4339.5
959.957	4366.5
960.184	4386.5
960.411	4322.5
960.638	4404.5
960.865	4331.5
961.092	4385.5
961.319	4256.5
961.546	4359.5
961.773	4310.5
962	4323.5
962.227	4354.5
962.454	4302.5
962.68	4224.5
962.907	4270.5
963.134	4208.5
963.36	4197.5
963.587	4170.5
963.813	4115.5
964.04	4151.5
964.266	4032.5
964.493	4102.5
964.719	4038.5
964.945	4052.5
965.171	3914.5
965.398	3984.5
965.624	3981.5
965.85	3876.5
966.076	3945.5
966.302	3886.5
966.528	3874.5
966.754	3873.5
966.98	3880.5
967.206	3873.5
967.431	3797.5
967.657	3852.5
967.883	3821.5
968.109	3800.5
968.334	3716.5
968.56	3755.5
968.785	3755.5
969.011	3731.5
969.236	3753.5
969.462	3663.5
969.687	3711.5
969.912	3706.5
970.138	3699.5
970.363	3659.5
970.588	3682.5
970.813	3655.5
971.038	3590.5
971.263	3613.5
971.488	3656.5
971.713	3612.5
971.938	3599.5
972.163	3514.5
972.388	3531.5
972.613	3488.5
972.838	3517.5
973.062	3488.5
973.287	3464.5
973.512	3377.5
973.736	3450.5
973.961	3403.5
974.185	3358.5
974.41	3404.5
974.634	3305.5
974.858	3282.5
975.083	3324.5
975.307	3320.5
975.531	3230.5
975.755	3181.5
975.98	3236.5
976.204	3129.5
976.428	3169.5
976.652	3117.5
976.876	3097.5
977.1	3150.5
977.324	3086.5
977.547	3148.5
977.771	3178.5
977.995	3069.5
978.219	3057.5
978.442	3116.5
978.666	3064.5
978.89	3079.5
979.113	3060.5
979.337	3003.5
979.56	2988.5
979.783	3069.5
980.007	2971.5
980.23	2963.5
980.453	2948.5
980.677	2958.5
980.9	2980.5
981.123	2859.5
981.346	2974.5
981.569	2924.5
981.792	2940.5
982.015	2930.5
982.238	2884.5
982.461	2854.5
982.684	2803.5
982.907	2774.5
983.129	2719.5
983.352	2820.5
983.575	2757.5
983.797	2792.5
984.02	2731.5
984.242	2725.5
984.465	2694.5
984.687	2754.5
984.91	2737.5
985.132	2690.5
985.354	2710.5
985.577	2649.5
985.799	2660.5
986.021	2601.5
986.243	2629.5
986.465	2582.5
986.687	2640.5
986.909	2689.5
987.131	2606.5
987.353	2506.5
987.575	2616.5
987.797	2573.5
988.019	2474.5
988.241	2576.5
988.462	2476.5
988.684	2568.5
988.906	2558.5
989.127	2590.5
989.349	2521.5
989.57	2522.5
989.792	2498.5
990.013	2554.5
990.234	2552.5
990.456	2552.5
990.677	2528.5
990.898	2481.5
991.119	2466.5
991.341	2455.5
991.562	2406.5
991.783	2452.5
992.004	2364.5
992.225	2345.5
992.446	2370.5
992.667	2271.5
992.887	2407.5
993.108	2265.5
993.329	2373.5
993.55	2303.5
993.77	2251.5
993.991	2285.5
994.212	2299.5
994.432	2238.5
994.653	2250.5
994.873	2269.5
995.093	2157.5
995.314	2199.5
995.534	2239.5
995.754	2291.5
995.975	2284.5
996.195	2142.5
996.415	2221.5
996.635	2218.5
996.855	2210.5
997.075	2197.5
997.295	2156.5
997.515	2183.5
997.735	2209.5
997.955	2141.5
998.174	2132.5
998.394	2125.5
998.614	2151.5
998.834	2127.5
999.053	2199.5
999.273	2118.5
999.492	2185.5
999.712	2101.5
999.931	2097.5
1000.151	2108.5
1000.37	2085.5
1000.589	2124.5
1000.809	2030.5
1001.028	2190.5
1001.247	2076.5
1001.466	1988.5
1001.685	2103.5
1001.904	2072.5
1002.123	2024.5
1002.342	2015.5
1002.561	1977.5
1002.78	2001.5
1002.999	2053.5
1003.218	1982.5
1003.436	1960.5
1003.655	2009.5
1003.874	1952.5
1004.092	1978.5
1004.311	1994.5
1004.53	1966.5
1004.748	2034.5
1004.966	1941.5
1005.185	1963.5
1005.403	1989.5
1005.622	1940.5
1005.84	2029.5
1006.058	1920.5
1006.276	1948.5
1006.494	2423.5
1006.712	1924.5
1006.931	2025.5
1007.149	1902.5
1007.367	1907.5
1007.584	1974.5
1007.802	1959.5
1008.02	1920.5
1008.238	2031.5
1008.456	2020.5
1008.673	1876.5
1008.891	2041.5
1009.109	1984.5
1009.326	2066.5
1009.544	2159.5
1009.761	2044.5
1009.979	2129.5
1010.196	2193.5
1010.413	2308.5
1010.631	2396.5
1010.848	2495.5
1011.065	2474.5
1011.282	2425.5
1011.5	2384.5
1011.717	2437.5
1011.934	2394.5
1012.151	2436.5
1012.368	2390.5
1012.585	2335.5
1012.801	2404.5
1013.018	2352.5
1013.235	2325.5
1013.452	2337.5
1013.669	2371.5
1013.885	2347.5
1014.102	2404.5
1014.318	2387.5
1014.535	2346.5
1014.751	2409.5
1014.968	2322.5
1015.184	2364.5
1015.401	2256.5
1015.617	2304.5
1015.833	2188.5
1016.049	2240.5
1016.266	2179.5
1016.482	2202.5
1016.698	2128.5
1016.914	2147.5
1017.13	2100.5
1017.346	2084.5
1017.562	2143.5
1017.778	2038.5
1017.993	2030.5
1018.209	2088.5
1018.425	2058.5
1018.641	2033.5
1018.856	1987.5
1019.072	2073.5
1019.288	2084.5
1019.503	2055.5
1019.719	1969.5
1019.934	1958.5
1020.149	2055.5
1020.365	1975.5
1020.58	1886.5
1020.795	1917.5
1021.011	1879.5
1021.226	1830.5
1021.441	1825.5
1021.656	1720.5
1021.871	1624.5
1022.086	1646.5
1022.301	1657.5
1022.516	1640.5
1022.731	1656.5
1022.946	1538.5
1023.16	1534.5
1023.375	1499.5
1023.59	1473.5
1023.804	1447.5
1024.019	1517.5
1024.234	1388.5
1024.448	1418.5
1024.663	1312.5
1024.877	1342.5
1025.092	1336.5
1025.306	1341.5
1025.52	1222.5
1025.734	1295.5
1025.949	1221.5
1026.163	1174.5
1026.377	1098.5
1026.591	1154.5
1026.805	1072.5
1027.019	1073.5
1027.233	1048.5
1027.447	967.5
1027.661	1080.5
1027.875	999.5
1028.088	991.5
1028.302	933.5
1028.516	917.5
1028.73	897.5
1028.943	867.5
1029.157	827.5
1029.37	770.5
1029.584	1.5
1029.797	-2.5
1030.011	1.5
1030.224	-4.5
