Data from QEP037381__286__16-17-29-908.txt Node

Date: Fri Dec 16 16:17:29 EST 2022
User: dcclab
Spectrometer: QEP03738
Trigger mode: 4
Integration Time (sec): 1.000000E1
Scans to average: 1
Electric dark correction enabled: true
Nonlinearity correction enabled: false
Boxcar width: 0
XAxis mode: Wavelengths
Number of Pixels in Spectrum: 1044
>>>>>Begin Spectral Data<<<<<
784.041	14.12
784.3	-0.88
784.558	-3.88
784.817	-4.88
785.075	111953.12
785.334	19424.12
785.592	9126.12
785.851	6286.12
786.109	4671.12
786.368	3656.12
786.626	2940.12
786.884	2436.12
787.143	2019.12
787.401	1691.12
787.659	1526.12
787.917	1323.12
788.175	1205.12
788.433	1026.12
788.691	948.12
788.949	872.12
789.207	840.12
789.465	725.12
789.723	706.12
789.98	640.12
790.238	676.12
790.496	641.12
790.753	608.12
791.011	647.12
791.268	567.12
791.526	560.12
791.783	589.12
792.041	573.12
792.298	474.12
792.556	547.12
792.813	523.12
793.07	482.12
793.327	487.12
793.584	555.12
793.841	479.12
794.099	486.12
794.356	553.12
794.613	467.12
794.869	503.12
795.126	452.12
795.383	446.12
795.64	465.12
795.897	432.12
796.153	493.12
796.41	464.12
796.667	464.12
796.923	456.12
797.18	473.12
797.436	503.12
797.693	464.12
797.949	513.12
798.206	542.12
798.462	449.12
798.718	513.12
798.974	483.12
799.231	533.12
799.487	533.12
799.743	555.12
799.999	579.12
800.255	575.12
800.511	575.12
800.767	615.12
801.023	629.12
801.279	673.12
801.534	707.12
801.79	772.12
802.046	828.12
802.302	988.12
802.557	1189.12
802.813	1489.12
803.068	1908.12
803.324	2628.12
803.579	3652.12
803.835	5060.12
804.09	6979.12
804.345	9158.12
804.601	11611.12
804.856	14192.12
805.111	16390.12
805.366	18148.12
805.621	19484.12
805.876	20456.12
806.131	20842.12
806.386	21348.12
806.641	21774.12
806.896	22144.12
807.151	22587.12
807.406	22981.12
807.661	23426.12
807.915	23836.12
808.17	24261.12
808.425	24506.12
808.679	24735.12
808.934	25064.12
809.188	25241.12
809.443	25529.12
809.697	25868.12
809.951	25987.12
810.206	26195.12
810.46	26478.12
810.714	26620.12
810.968	27108.12
811.223	27209.12
811.477	27409.12
811.731	27665.12
811.985	27843.12
812.239	27823.12
812.493	28225.12
812.747	28324.12
813	28280.12
813.254	28593.12
813.508	28691.12
813.762	28687.12
814.015	28900.12
814.269	29069.12
814.522	29365.12
814.776	29697.12
815.03	30127.12
815.283	30587.12
815.536	31010.12
815.79	31409.12
816.043	31907.12
816.296	32306.12
816.55	32773.12
816.803	33126.12
817.056	33566.12
817.309	34035.12
817.562	34258.12
817.815	34696.12
818.068	34870.12
818.321	35133.12
818.574	35756.12
818.827	36293.12
819.079	36615.12
819.332	37291.12
819.585	37672.12
819.838	38232.12
820.09	38311.12
820.343	38829.12
820.595	38877.12
820.848	39096.12
821.1	39202.12
821.353	39123.12
821.605	39195.12
821.857	39213.12
822.11	39065.12
822.362	38959.12
822.614	38882.12
822.866	39028.12
823.118	39068.12
823.37	39120.12
823.622	39197.12
823.874	39291.12
824.126	39459.12
824.378	39483.12
824.63	39547.12
824.882	39715.12
825.134	39680.12
825.385	39507.12
825.637	39482.12
825.888	39326.12
826.14	39320.12
826.392	39191.12
826.643	38994.12
826.895	38936.12
827.146	38842.12
827.397	38583.12
827.649	38774.12
827.9	38572.12
828.151	38719.12
828.402	38838.12
828.653	38933.12
828.905	38924.12
829.156	39061.12
829.407	39134.12
829.658	39102.12
829.909	39195.12
830.159	39040.12
830.41	39110.12
830.661	38611.12
830.912	38393.12
831.162	38315.12
831.413	38327.12
831.664	38205.12
831.914	38058.12
832.165	38181.12
832.415	38253.12
832.666	38004.12
832.916	38253.12
833.167	38181.12
833.417	38097.12
833.667	37898.12
833.917	37781.12
834.168	37886.12
834.418	37743.12
834.668	37420.12
834.918	37324.12
835.168	37265.12
835.418	37076.12
835.668	36896.12
835.918	36850.12
836.167	36793.12
836.417	36561.12
836.667	36695.12
836.917	36592.12
837.166	36507.12
837.416	36754.12
837.666	36550.12
837.915	36520.12
838.165	36368.12
838.414	36290.12
838.663	36123.12
838.913	36347.12
839.162	36066.12
839.411	36023.12
839.661	35879.12
839.91	35858.12
840.159	35787.12
840.408	35852.12
840.657	35823.12
840.906	35763.12
841.155	35757.12
841.404	35687.12
841.653	35778.12
841.902	35705.12
842.15	35809.12
842.399	35933.12
842.648	35829.12
842.897	35616.12
843.145	35390.12
843.394	35292.12
843.642	34995.12
843.891	35024.12
844.139	34846.12
844.388	34483.12
844.636	34287.12
844.884	34391.12
845.133	34323.12
845.381	34343.12
845.629	34244.12
845.877	34321.12
846.125	34193.12
846.373	34217.12
846.621	33914.12
846.869	34019.12
847.117	33815.12
847.365	33446.12
847.613	33459.12
847.861	33244.12
848.108	33276.12
848.356	33209.12
848.604	33019.12
848.851	33182.12
849.099	33204.12
849.346	33410.12
849.594	33431.12
849.841	33408.12
850.089	33612.12
850.336	33665.12
850.583	33421.12
850.831	33296.12
851.078	33107.12
851.325	33146.12
851.572	33179.12
851.819	32750.12
852.066	32267.12
852.313	31866.12
852.56	31541.12
852.807	31547.12
853.054	31477.12
853.301	31245.12
853.548	31464.12
853.794	31561.12
854.041	31613.12
854.288	31702.12
854.534	31989.12
854.781	31908.12
855.028	31759.12
855.274	31739.12
855.52	31500.12
855.767	31343.12
856.013	31408.12
856.26	31773.12
856.506	31176.12
856.752	31161.12
856.998	31128.12
857.244	31285.12
857.49	31368.12
857.736	31332.12
857.982	31401.12
858.228	31258.12
858.474	31128.12
858.72	30833.12
858.966	30583.12
859.212	30244.12
859.458	30066.12
859.703	29785.12
859.949	29416.12
860.195	29371.12
860.44	29139.12
860.686	28913.12
860.931	28982.12
861.177	28812.12
861.422	28792.12
861.667	28562.12
861.913	28580.12
862.158	28642.12
862.403	28738.12
862.648	28729.12
862.893	28846.12
863.138	28814.12
863.384	28696.12
863.629	28551.12
863.873	28554.12
864.118	28561.12
864.363	28282.12
864.608	28337.12
864.853	28121.12
865.098	28072.12
865.342	27928.12
865.587	27703.12
865.832	27706.12
866.076	27608.12
866.321	27694.12
866.565	27557.12
866.81	27381.12
867.054	27422.12
867.298	27230.12
867.543	27138.12
867.787	27232.12
868.031	27061.12
868.275	26955.12
868.519	27021.12
868.764	26902.12
869.008	26766.12
869.252	26782.12
869.496	26717.12
869.739	26681.12
869.983	26503.12
870.227	26477.12
870.471	26513.12
870.715	26681.12
870.958	26705.12
871.202	26722.12
871.446	26638.12
871.689	26829.12
871.933	26824.12
872.176	26833.12
872.42	26747.12
872.663	26588.12
872.906	26687.12
873.15	26489.12
873.393	26381.12
873.636	26292.12
873.879	26018.12
874.122	25796.12
874.366	25441.12
874.609	25260.12
874.852	25195.12
875.095	24985.12
875.337	24851.12
875.58	24714.12
875.823	24688.12
876.066	24680.12
876.309	24425.12
876.551	24386.12
876.794	24209.12
877.037	24290.12
877.279	24070.12
877.522	24157.12
877.764	24164.12
878.007	23970.12
878.249	24108.12
878.491	23960.12
878.734	23852.12
878.976	23799.12
879.218	23665.12
879.46	23626.12
879.702	23504.12
879.945	23383.12
880.187	23140.12
880.429	22887.12
880.671	22794.12
880.912	22713.12
881.154	22669.12
881.396	22656.12
881.638	22694.12
881.88	22573.12
882.121	22523.12
882.363	22520.12
882.605	22541.12
882.846	22389.12
883.088	22418.12
883.329	22260.12
883.571	22361.12
883.812	22551.12
884.053	22719.12
884.295	23017.12
884.536	23469.12
884.777	23253.12
885.018	23129.12
885.259	22923.12
885.5	22860.12
885.742	23131.12
885.982	22785.12
886.223	22564.12
886.464	22445.12
886.705	22218.12
886.946	22045.12
887.187	21740.12
887.428	21591.12
887.668	21088.12
887.909	20999.12
888.15	20679.12
888.39	20705.12
888.631	20439.12
888.871	20271.12
889.111	20206.12
889.352	20042.12
889.592	19912.12
889.833	19729.12
890.073	19546.12
890.313	19548.12
890.553	19317.12
890.793	19225.12
891.033	19190.12
891.273	19081.12
891.513	18977.12
891.753	18954.12
891.993	18950.12
892.233	18972.12
892.473	19121.12
892.713	19002.12
892.952	18983.12
893.192	19070.12
893.432	18922.12
893.671	18980.12
893.911	18884.12
894.15	18778.12
894.39	18611.12
894.629	18482.12
894.869	18366.12
895.108	18209.12
895.347	18213.12
895.587	18164.12
895.826	18127.12
896.065	18106.12
896.304	18077.12
896.543	17964.12
896.782	17852.12
897.021	17889.12
897.26	17785.12
897.499	17812.12
897.738	17747.12
897.977	17618.12
898.216	17494.12
898.454	17396.12
898.693	17238.12
898.932	17265.12
899.17	17104.12
899.409	17052.12
899.647	17083.12
899.886	17020.12
900.124	16990.12
900.363	16963.12
900.601	17074.12
900.839	16974.12
901.078	17042.12
901.316	17167.12
901.554	17229.12
901.792	17245.12
902.03	17264.12
902.268	17336.12
902.506	17208.12
902.744	17109.12
902.982	16959.12
903.22	16689.12
903.458	16535.12
903.695	16348.12
903.933	16072.12
904.171	15788.12
904.409	15541.12
904.646	15378.12
904.884	15146.12
905.121	15123.12
905.359	14834.12
905.596	14735.12
905.833	14589.12
906.071	14549.12
906.308	14541.12
906.545	14402.12
906.783	14398.12
907.02	14378.12
907.257	14302.12
907.494	14228.12
907.731	14167.12
907.968	14111.12
908.205	14048.12
908.442	13933.12
908.679	13854.12
908.915	13811.12
909.152	13656.12
909.389	13547.12
909.626	13503.12
909.862	13346.12
910.099	13232.12
910.335	13325.12
910.572	13151.12
910.808	13119.12
911.045	13098.12
911.281	13061.12
911.518	13109.12
911.754	12945.12
911.99	12837.12
912.226	12645.12
912.463	12603.12
912.699	12527.12
912.935	12495.12
913.171	12384.12
913.407	12195.12
913.643	12171.12
913.879	12126.12
914.114	11930.12
914.35	11812.12
914.586	11731.12
914.822	11587.12
915.057	11651.12
915.293	11398.12
915.529	11419.12
915.764	11464.12
916	11395.12
916.235	11320.12
916.471	11384.12
916.706	11262.12
916.941	11246.12
917.177	11192.12
917.412	11189.12
917.647	11209.12
917.882	11110.12
918.117	11217.12
918.352	11086.12
918.588	11159.12
918.823	10994.12
919.057	10917.12
919.292	10645.12
919.527	10761.12
919.762	10557.12
919.997	10485.12
920.232	10327.12
920.466	10266.12
920.701	10163.12
920.935	10113.12
921.17	10052.12
921.405	9967.12
921.639	9983.12
921.873	9855.12
922.108	9859.12
922.342	9898.12
922.576	9791.12
922.811	9693.12
923.045	9769.12
923.279	9801.12
923.513	9570.12
923.747	9615.12
923.981	9561.12
924.215	9372.12
924.449	9403.12
924.683	9285.12
924.917	9206.12
925.151	9242.12
925.385	9234.12
925.618	9135.12
925.852	9172.12
926.086	9003.12
926.319	9051.12
926.553	9061.12
926.786	9089.12
927.02	9059.12
927.253	9023.12
927.486	9031.12
927.72	8948.12
927.953	8972.12
928.186	8911.12
928.42	8967.12
928.653	8884.12
928.886	8756.12
929.119	8718.12
929.352	8730.12
929.585	8673.12
929.818	8586.12
930.051	8570.12
930.284	8505.12
930.516	8387.12
930.749	8319.12
930.982	8345.12
931.215	8291.12
931.447	8161.12
931.68	8120.12
931.912	8143.12
932.145	8159.12
932.377	8158.12
932.61	8286.12
932.842	8034.12
933.074	8120.12
933.307	8111.12
933.539	8168.12
933.771	8134.12
934.003	8039.12
934.236	8072.12
934.468	8116.12
934.7	7983.12
934.932	8081.12
935.164	7954.12
935.395	7942.12
935.627	7901.12
935.859	7908.12
936.091	7823.12
936.323	7805.12
936.554	7807.12
936.786	7769.12
937.017	7744.12
937.249	7675.12
937.481	7597.12
937.712	7647.12
937.943	7686.12
938.175	7627.12
938.406	7564.12
938.637	7614.12
938.869	7518.12
939.1	7598.12
939.331	7486.12
939.562	7474.12
939.793	7499.12
940.024	7456.12
940.255	7492.12
940.486	7322.12
940.717	7249.12
940.948	7284.12
941.179	7266.12
941.409	7300.12
941.64	7212.12
941.871	7201.12
942.102	7244.12
942.332	7212.12
942.563	7222.12
942.793	7244.12
943.024	7181.12
943.254	7176.12
943.484	7183.12
943.715	7155.12
943.945	7199.12
944.175	7045.12
944.405	7065.12
944.636	7060.12
944.866	7088.12
945.096	7125.12
945.326	7031.12
945.556	7038.12
945.786	7008.12
946.016	6978.12
946.245	6812.12
946.475	6825.12
946.705	6816.12
946.935	6698.12
947.164	6681.12
947.394	6696.12
947.624	6656.12
947.853	6619.12
948.083	6634.12
948.312	6558.12
948.542	6483.12
948.771	6464.12
949	6498.12
949.23	6454.12
949.459	6449.12
949.688	6545.12
949.917	6445.12
950.146	6433.12
950.375	6494.12
950.604	6332.12
950.833	6462.12
951.062	6404.12
951.291	6306.12
951.52	6364.12
951.749	6317.12
951.978	6327.12
952.206	6223.12
952.435	6194.12
952.664	6235.12
952.892	6222.12
953.121	6147.12
953.349	6141.12
953.578	6137.12
953.806	6051.12
954.035	6012.12
954.263	6070.12
954.491	5969.12
954.719	6017.12
954.948	5955.12
955.176	5907.12
955.404	5784.12
955.632	5886.12
955.86	5841.12
956.088	5785.12
956.316	5757.12
956.544	5832.12
956.772	5702.12
956.999	5651.12
957.227	5780.12
957.455	5608.12
957.683	5634.12
957.91	5578.12
958.138	5532.12
958.365	5468.12
958.593	5529.12
958.82	5410.12
959.048	5464.12
959.275	5376.12
959.502	5413.12
959.73	5366.12
959.957	5413.12
960.184	5390.12
960.411	5359.12
960.638	5361.12
960.865	5359.12
961.092	5371.12
961.319	5297.12
961.546	5359.12
961.773	5273.12
962	5291.12
962.227	5309.12
962.454	5213.12
962.68	5240.12
962.907	5270.12
963.134	5171.12
963.36	5127.12
963.587	5167.12
963.813	4976.12
964.04	5072.12
964.266	4950.12
964.493	5018.12
964.719	4990.12
964.945	4956.12
965.171	4818.12
965.398	4922.12
965.624	4920.12
965.85	4779.12
966.076	4745.12
966.302	4819.12
966.528	4794.12
966.754	4753.12
966.98	4766.12
967.206	4729.12
967.431	4676.12
967.657	4733.12
967.883	4662.12
968.109	4640.12
968.334	4602.12
968.56	4608.12
968.785	4636.12
969.011	4545.12
969.236	4608.12
969.462	4513.12
969.687	4526.12
969.912	4522.12
970.138	4559.12
970.363	4481.12
970.588	4521.12
970.813	4462.12
971.038	4388.12
971.263	4427.12
971.488	4438.12
971.713	4446.12
971.938	4390.12
972.163	4291.12
972.388	4301.12
972.613	4294.12
972.838	4294.12
973.062	4253.12
973.287	4246.12
973.512	4163.12
973.736	4219.12
973.961	4119.12
974.185	4127.12
974.41	4158.12
974.634	4025.12
974.858	4034.12
975.083	4038.12
975.307	4056.12
975.531	3957.12
975.755	3946.12
975.98	3948.12
976.204	3882.12
976.428	3855.12
976.652	3847.12
976.876	3789.12
977.1	3844.12
977.324	3795.12
977.547	3821.12
977.771	3825.12
977.995	3791.12
978.219	3676.12
978.442	3795.12
978.666	3806.12
978.89	3723.12
979.113	3748.12
979.337	3725.12
979.56	3692.12
979.783	3748.12
980.007	3595.12
980.23	3674.12
980.453	3595.12
980.677	3620.12
980.9	3603.12
981.123	3508.12
981.346	3582.12
981.569	3544.12
981.792	3569.12
982.015	3520.12
982.238	3461.12
982.461	3444.12
982.684	3396.12
982.907	3398.12
983.129	3373.12
983.352	3416.12
983.575	3378.12
983.797	3343.12
984.02	3307.12
984.242	3278.12
984.465	3290.12
984.687	3302.12
984.91	3320.12
985.132	3282.12
985.354	3275.12
985.577	3270.12
985.799	3241.12
986.021	3126.12
986.243	3149.12
986.465	3174.12
986.687	3176.12
986.909	3207.12
987.131	3175.12
987.353	3120.12
987.575	3129.12
987.797	3109.12
988.019	3045.12
988.241	3065.12
988.462	3011.12
988.684	3082.12
988.906	3129.12
989.127	3095.12
989.349	2970.12
989.57	2985.12
989.792	3061.12
990.013	3050.12
990.234	3049.12
990.456	3027.12
990.677	3029.12
990.898	2951.12
991.119	2943.12
991.341	2945.12
991.562	2883.12
991.783	2943.12
992.004	2835.12
992.225	2824.12
992.446	2862.12
992.667	2762.12
992.887	2821.12
993.108	2714.12
993.329	2832.12
993.55	2792.12
993.77	2712.12
993.991	2726.12
994.212	2747.12
994.432	2664.12
994.653	2711.12
994.873	2711.12
995.093	2564.12
995.314	2637.12
995.534	2661.12
995.754	2703.12
995.975	2651.12
996.195	2590.12
996.415	2616.12
996.635	2600.12
996.855	2616.12
997.075	2574.12
997.295	2574.12
997.515	2509.12
997.735	2617.12
997.955	2564.12
998.174	2553.12
998.394	2526.12
998.614	2568.12
998.834	2531.12
999.053	2572.12
999.273	2540.12
999.492	2596.12
999.712	2488.12
999.931	2462.12
1000.151	2490.12
1000.37	2517.12
1000.589	2516.12
1000.809	2457.12
1001.028	2538.12
1001.247	2442.12
1001.466	2339.12
1001.685	2478.12
1001.904	2396.12
1002.123	2374.12
1002.342	2367.12
1002.561	2310.12
1002.78	2346.12
1002.999	2404.12
1003.218	2335.12
1003.436	2290.12
1003.655	2331.12
1003.874	2286.12
1004.092	2276.12
1004.311	2314.12
1004.53	2289.12
1004.748	2343.12
1004.966	2236.12
1005.185	2286.12
1005.403	2278.12
1005.622	2275.12
1005.84	2323.12
1006.058	2244.12
1006.276	2243.12
1006.494	2765.12
1006.712	2209.12
1006.931	2305.12
1007.149	2218.12
1007.367	2197.12
1007.584	2248.12
1007.802	2282.12
1008.02	2207.12
1008.238	2352.12
1008.456	2325.12
1008.673	2199.12
1008.891	2315.12
1009.109	2282.12
1009.326	2350.12
1009.544	2433.12
1009.761	2359.12
1009.979	2454.12
1010.196	2495.12
1010.413	2619.12
1010.631	2699.12
1010.848	2750.12
1011.065	2773.12
1011.282	2706.12
1011.5	2677.12
1011.717	2730.12
1011.934	2707.12
1012.151	2724.12
1012.368	2677.12
1012.585	2622.12
1012.801	2677.12
1013.018	2655.12
1013.235	2653.12
1013.452	2654.12
1013.669	2625.12
1013.885	2645.12
1014.102	2686.12
1014.318	2677.12
1014.535	2586.12
1014.751	2625.12
1014.968	2587.12
1015.184	2663.12
1015.401	2519.12
1015.617	2554.12
1015.833	2467.12
1016.049	2484.12
1016.266	2444.12
1016.482	2424.12
1016.698	2360.12
1016.914	2451.12
1017.13	2338.12
1017.346	2332.12
1017.562	2375.12
1017.778	2298.12
1017.993	2290.12
1018.209	2333.12
1018.425	2284.12
1018.641	2298.12
1018.856	2245.12
1019.072	2269.12
1019.288	2337.12
1019.503	2254.12
1019.719	2179.12
1019.934	2187.12
1020.149	2263.12
1020.365	2187.12
1020.58	2110.12
1020.795	2131.12
1021.011	2036.12
1021.226	2009.12
1021.441	2018.12
1021.656	1920.12
1021.871	1844.12
1022.086	1841.12
1022.301	1806.12
1022.516	1788.12
1022.731	1813.12
1022.946	1787.12
1023.16	1703.12
1023.375	1679.12
1023.59	1624.12
1023.804	1617.12
1024.019	1669.12
1024.234	1546.12
1024.448	1565.12
1024.663	1485.12
1024.877	1484.12
1025.092	1514.12
1025.306	1479.12
1025.52	1367.12
1025.734	1462.12
1025.949	1327.12
1026.163	1306.12
1026.377	1239.12
1026.591	1291.12
1026.805	1205.12
1027.019	1193.12
1027.233	1167.12
1027.447	1093.12
1027.661	1159.12
1027.875	1122.12
1028.088	1109.12
1028.302	1027.12
1028.516	1016.12
1028.73	1006.12
1028.943	996.12
1029.157	907.12
1029.37	874.12
1029.584	-2.88
1029.797	-0.88
1030.011	2.12
1030.224	-2.88
