Data from QEP037381__328__16-24-29-913.txt Node

Date: Fri Dec 16 16:24:29 EST 2022
User: dcclab
Spectrometer: QEP03738
Trigger mode: 4
Integration Time (sec): 1.000000E1
Scans to average: 1
Electric dark correction enabled: true
Nonlinearity correction enabled: false
Boxcar width: 0
XAxis mode: Wavelengths
Number of Pixels in Spectrum: 1044
>>>>>Begin Spectral Data<<<<<
784.041	12.62
784.3	2.62
784.558	-2.38
784.817	-1.38
785.075	119206.62
785.334	20179.62
785.592	9361.62
785.851	6396.62
786.109	4842.62
786.368	3713.62
786.626	2954.62
786.884	2469.62
787.143	2045.62
787.401	1711.62
787.659	1538.62
787.917	1317.62
788.175	1193.62
788.433	1036.62
788.691	952.62
788.949	862.62
789.207	837.62
789.465	710.62
789.723	686.62
789.98	630.62
790.238	666.62
790.496	632.62
790.753	597.62
791.011	656.62
791.268	562.62
791.526	556.62
791.783	577.62
792.041	543.62
792.298	448.62
792.556	545.62
792.813	511.62
793.07	494.62
793.327	474.62
793.584	550.62
793.841	460.62
794.099	487.62
794.356	543.62
794.613	449.62
794.869	476.62
795.126	443.62
795.383	424.62
795.64	443.62
795.897	409.62
796.153	465.62
796.41	439.62
796.667	428.62
796.923	427.62
797.18	428.62
797.436	458.62
797.693	427.62
797.949	477.62
798.206	501.62
798.462	422.62
798.718	487.62
798.974	445.62
799.231	504.62
799.487	482.62
799.743	482.62
799.999	522.62
800.255	518.62
800.511	483.62
800.767	541.62
801.023	550.62
801.279	562.62
801.534	610.62
801.79	670.62
802.046	678.62
802.302	820.62
802.557	951.62
802.813	1174.62
803.068	1443.62
803.324	1998.62
803.579	2696.62
803.835	3711.62
804.09	5057.62
804.345	6566.62
804.601	8287.62
804.856	9987.62
805.111	11611.62
805.366	12747.62
805.621	13683.62
805.876	14282.62
806.131	14733.62
806.386	15069.62
806.641	15246.62
806.896	15532.62
807.151	15784.62
807.406	16074.62
807.661	16318.62
807.915	16639.62
808.17	16953.62
808.425	17019.62
808.679	17168.62
808.934	17438.62
809.188	17461.62
809.443	17686.62
809.697	17930.62
809.951	18019.62
810.206	18222.62
810.46	18353.62
810.714	18570.62
810.968	18680.62
811.223	18858.62
811.477	19133.62
811.731	19209.62
811.985	19259.62
812.239	19349.62
812.493	19462.62
812.747	19432.62
813	19484.62
813.254	19560.62
813.508	19686.62
813.762	19769.62
814.015	19894.62
814.269	20019.62
814.522	20151.62
814.776	20387.62
815.03	20684.62
815.283	20879.62
815.536	21252.62
815.79	21452.62
816.043	21868.62
816.296	22180.62
816.55	22401.62
816.803	22647.62
817.056	22857.62
817.309	23126.62
817.562	23436.62
817.815	23579.62
818.068	23718.62
818.321	24034.62
818.574	24281.62
818.827	24512.62
819.079	24826.62
819.332	25329.62
819.585	25616.62
819.838	26033.62
820.09	25836.62
820.343	26175.62
820.595	26241.62
820.848	26521.62
821.1	26630.62
821.353	26492.62
821.605	26567.62
821.857	26515.62
822.11	26326.62
822.362	26246.62
822.614	26211.62
822.866	26333.62
823.118	26324.62
823.37	26372.62
823.622	26510.62
823.874	26580.62
824.126	26586.62
824.378	26643.62
824.63	26754.62
824.882	26661.62
825.134	26671.62
825.385	26647.62
825.637	26576.62
825.888	26546.62
826.14	26519.62
826.392	26366.62
826.643	26171.62
826.895	26120.62
827.146	25995.62
827.397	25950.62
827.649	26047.62
827.9	25922.62
828.151	25939.62
828.402	26008.62
828.653	26072.62
828.905	26149.62
829.156	26191.62
829.407	26127.62
829.658	26305.62
829.909	26402.62
830.159	26307.62
830.41	26146.62
830.661	26152.62
830.912	25864.62
831.162	25705.62
831.413	25765.62
831.664	25732.62
831.914	25701.62
832.165	25514.62
832.415	25614.62
832.666	25651.62
832.916	25675.62
833.167	25576.62
833.417	25604.62
833.667	25429.62
833.917	25498.62
834.168	25380.62
834.418	25335.62
834.668	25115.62
834.918	25029.62
835.168	25000.62
835.418	24847.62
835.668	24733.62
835.918	24683.62
836.167	24631.62
836.417	24533.62
836.667	24555.62
836.917	24535.62
837.166	24546.62
837.416	24537.62
837.666	24475.62
837.915	24442.62
838.165	24503.62
838.414	24400.62
838.663	24264.62
838.913	24222.62
839.162	24123.62
839.411	24262.62
839.661	24064.62
839.91	24126.62
840.159	24091.62
840.408	24092.62
840.657	23986.62
840.906	24044.62
841.155	24035.62
841.404	24020.62
841.653	24009.62
841.902	23968.62
842.15	24083.62
842.399	24135.62
842.648	24044.62
842.897	23934.62
843.145	23670.62
843.394	23621.62
843.642	23487.62
843.891	23401.62
844.139	23266.62
844.388	23082.62
844.636	22994.62
844.884	23002.62
845.133	23060.62
845.381	23000.62
845.629	22955.62
845.877	22872.62
846.125	22891.62
846.373	22896.62
846.621	22775.62
846.869	22761.62
847.117	22575.62
847.365	22469.62
847.613	22336.62
847.861	22301.62
848.108	22262.62
848.356	22230.62
848.604	22215.62
848.851	22009.62
849.099	22127.62
849.346	22139.62
849.594	22337.62
849.841	22318.62
850.089	22300.62
850.336	22350.62
850.583	22363.62
850.831	22226.62
851.078	22130.62
851.325	22094.62
851.572	22238.62
851.819	22004.62
852.066	21681.62
852.313	21329.62
852.56	21080.62
852.807	21067.62
853.054	21000.62
853.301	21017.62
853.548	21015.62
853.794	21137.62
854.041	21228.62
854.288	21264.62
854.534	21480.62
854.781	21350.62
855.028	21282.62
855.274	21422.62
855.52	21157.62
855.767	21148.62
856.013	21246.62
856.26	21534.62
856.506	21055.62
856.752	20928.62
856.998	20911.62
857.244	20997.62
857.49	21071.62
857.736	21204.62
857.982	21166.62
858.228	21053.62
858.474	20831.62
858.72	20704.62
858.966	20530.62
859.212	20237.62
859.458	20082.62
859.703	19944.62
859.949	19639.62
860.195	19557.62
860.44	19497.62
860.686	19439.62
860.931	19464.62
861.177	19248.62
861.422	19150.62
861.667	19074.62
861.913	19005.62
862.158	19030.62
862.403	19131.62
862.648	19177.62
862.893	19114.62
863.138	19102.62
863.384	19097.62
863.629	19054.62
863.873	18973.62
864.118	19038.62
864.363	18932.62
864.608	18724.62
864.853	18824.62
865.098	18514.62
865.342	18586.62
865.587	18501.62
865.832	18390.62
866.076	18443.62
866.321	18324.62
866.565	18456.62
866.81	18302.62
867.054	18226.62
867.298	18103.62
867.543	18005.62
867.787	18097.62
868.031	18025.62
868.275	17927.62
868.519	17987.62
868.764	17918.62
869.008	17840.62
869.252	17937.62
869.496	17838.62
869.739	17758.62
869.983	17804.62
870.227	17815.62
870.471	17789.62
870.715	17929.62
870.958	17956.62
871.202	17899.62
871.446	17930.62
871.689	17862.62
871.933	18025.62
872.176	17882.62
872.42	17811.62
872.663	17909.62
872.906	17886.62
873.15	17778.62
873.393	17841.62
873.636	17850.62
873.879	17569.62
874.122	17343.62
874.366	17128.62
874.609	17023.62
874.852	16854.62
875.095	16803.62
875.337	16713.62
875.58	16575.62
875.823	16552.62
876.066	16420.62
876.309	16452.62
876.551	16220.62
876.794	16103.62
877.037	16268.62
877.279	16109.62
877.522	16082.62
877.764	16149.62
878.007	16050.62
878.249	16026.62
878.491	15882.62
878.734	15949.62
878.976	15945.62
879.218	15799.62
879.46	15726.62
879.702	15589.62
879.945	15408.62
880.187	15355.62
880.429	15221.62
880.671	15136.62
880.912	15046.62
881.154	15027.62
881.396	14997.62
881.638	15016.62
881.88	15009.62
882.121	14919.62
882.363	14964.62
882.605	14928.62
882.846	14906.62
883.088	14883.62
883.329	14910.62
883.571	15001.62
883.812	15140.62
884.053	15551.62
884.295	15938.62
884.536	16080.62
884.777	15872.62
885.018	15853.62
885.259	15725.62
885.5	15611.62
885.742	15718.62
885.982	15507.62
886.223	15408.62
886.464	15263.62
886.705	15021.62
886.946	14785.62
887.187	14598.62
887.428	14393.62
887.668	14099.62
887.909	13928.62
888.15	13721.62
888.39	13647.62
888.631	13571.62
888.871	13444.62
889.111	13347.62
889.352	13303.62
889.592	13162.62
889.833	13010.62
890.073	12973.62
890.313	12973.62
890.553	12834.62
890.793	12649.62
891.033	12611.62
891.273	12524.62
891.513	12537.62
891.753	12527.62
891.993	12557.62
892.233	12532.62
892.473	12562.62
892.713	12550.62
892.952	12511.62
893.192	12597.62
893.432	12588.62
893.671	12577.62
893.911	12411.62
894.15	12417.62
894.39	12217.62
894.629	12216.62
894.869	12155.62
895.108	12051.62
895.347	12028.62
895.587	12049.62
895.826	11913.62
896.065	11902.62
896.304	11973.62
896.543	11940.62
896.782	11902.62
897.021	11802.62
897.26	11875.62
897.499	11891.62
897.738	11760.62
897.977	11707.62
898.216	11580.62
898.454	11527.62
898.693	11434.62
898.932	11398.62
899.17	11408.62
899.409	11360.62
899.647	11340.62
899.886	11293.62
900.124	11408.62
900.363	11305.62
900.601	11370.62
900.839	11392.62
901.078	11403.62
901.316	11415.62
901.554	11507.62
901.792	11626.62
902.03	11578.62
902.268	11580.62
902.506	11592.62
902.744	11492.62
902.982	11418.62
903.22	11149.62
903.458	11052.62
903.695	10909.62
903.933	10767.62
904.171	10486.62
904.409	10332.62
904.646	10301.62
904.884	10060.62
905.121	10063.62
905.359	9877.62
905.596	9767.62
905.833	9664.62
906.071	9631.62
906.308	9581.62
906.545	9544.62
906.783	9496.62
907.02	9489.62
907.257	9445.62
907.494	9396.62
907.731	9457.62
907.968	9312.62
908.205	9317.62
908.442	9169.62
908.679	9172.62
908.915	9123.62
909.152	8978.62
909.389	8854.62
909.626	8858.62
909.862	8834.62
910.099	8796.62
910.335	8837.62
910.572	8622.62
910.808	8682.62
911.045	8581.62
911.281	8551.62
911.518	8616.62
911.754	8508.62
911.99	8443.62
912.226	8456.62
912.463	8318.62
912.699	8292.62
912.935	8254.62
913.171	8143.62
913.407	8077.62
913.643	8047.62
913.879	7988.62
914.114	7904.62
914.35	7784.62
914.586	7754.62
914.822	7640.62
915.057	7687.62
915.293	7554.62
915.529	7504.62
915.764	7533.62
916	7487.62
916.235	7446.62
916.471	7484.62
916.706	7386.62
916.941	7365.62
917.177	7386.62
917.412	7430.62
917.647	7434.62
917.882	7364.62
918.117	7362.62
918.352	7368.62
918.588	7420.62
918.823	7188.62
919.057	7168.62
919.292	7021.62
919.527	7067.62
919.762	6927.62
919.997	6935.62
920.232	6733.62
920.466	6773.62
920.701	6684.62
920.935	6674.62
921.17	6636.62
921.405	6556.62
921.639	6574.62
921.873	6536.62
922.108	6566.62
922.342	6545.62
922.576	6410.62
922.811	6424.62
923.045	6420.62
923.279	6440.62
923.513	6292.62
923.747	6410.62
923.981	6276.62
924.215	6260.62
924.449	6218.62
924.683	6086.62
924.917	6121.62
925.151	6106.62
925.385	6147.62
925.618	6050.62
925.852	5987.62
926.086	5924.62
926.319	5996.62
926.553	5973.62
926.786	5989.62
927.02	5921.62
927.253	6003.62
927.486	6001.62
927.72	5937.62
927.953	5988.62
928.186	5906.62
928.42	5895.62
928.653	5871.62
928.886	5798.62
929.119	5815.62
929.352	5800.62
929.585	5769.62
929.818	5698.62
930.051	5690.62
930.284	5636.62
930.516	5570.62
930.749	5493.62
930.982	5577.62
931.215	5465.62
931.447	5376.62
931.68	5421.62
931.912	5356.62
932.145	5391.62
932.377	5401.62
932.61	5527.62
932.842	5340.62
933.074	5404.62
933.307	5290.62
933.539	5441.62
933.771	5382.62
934.003	5365.62
934.236	5430.62
934.468	5394.62
934.7	5319.62
934.932	5355.62
935.164	5230.62
935.395	5284.62
935.627	5276.62
935.859	5240.62
936.091	5151.62
936.323	5206.62
936.554	5227.62
936.786	5156.62
937.017	5119.62
937.249	5142.62
937.481	5069.62
937.712	5125.62
937.943	5076.62
938.175	5085.62
938.406	5046.62
938.637	5168.62
938.869	5000.62
939.1	5047.62
939.331	4973.62
939.562	5003.62
939.793	4973.62
940.024	4926.62
940.255	4981.62
940.486	4929.62
940.717	4850.62
940.948	4889.62
941.179	4776.62
941.409	4875.62
941.64	4795.62
941.871	4822.62
942.102	4783.62
942.332	4785.62
942.563	4851.62
942.793	4764.62
943.024	4795.62
943.254	4773.62
943.484	4837.62
943.715	4844.62
943.945	4788.62
944.175	4690.62
944.405	4669.62
944.636	4674.62
944.866	4687.62
945.096	4726.62
945.326	4691.62
945.556	4689.62
945.786	4700.62
946.016	4604.62
946.245	4567.62
946.475	4580.62
946.705	4556.62
946.935	4495.62
947.164	4459.62
947.394	4395.62
947.624	4405.62
947.853	4463.62
948.083	4427.62
948.312	4370.62
948.542	4346.62
948.771	4290.62
949	4280.62
949.23	4339.62
949.459	4308.62
949.688	4410.62
949.917	4266.62
950.146	4303.62
950.375	4340.62
950.604	4228.62
950.833	4351.62
951.062	4308.62
951.291	4279.62
951.52	4195.62
951.749	4183.62
951.978	4186.62
952.206	4146.62
952.435	4187.62
952.664	4191.62
952.892	4184.62
953.121	4115.62
953.349	4187.62
953.578	4113.62
953.806	4057.62
954.035	4014.62
954.263	4044.62
954.491	4019.62
954.719	4051.62
954.948	3974.62
955.176	3939.62
955.404	3851.62
955.632	3894.62
955.86	3914.62
956.088	3885.62
956.316	3891.62
956.544	3944.62
956.772	3835.62
956.999	3799.62
957.227	3886.62
957.455	3743.62
957.683	3759.62
957.91	3723.62
958.138	3714.62
958.365	3638.62
958.593	3688.62
958.82	3619.62
959.048	3709.62
959.275	3667.62
959.502	3632.62
959.73	3602.62
959.957	3648.62
960.184	3662.62
960.411	3554.62
960.638	3658.62
960.865	3536.62
961.092	3610.62
961.319	3517.62
961.546	3604.62
961.773	3601.62
962	3553.62
962.227	3586.62
962.454	3515.62
962.68	3536.62
962.907	3496.62
963.134	3500.62
963.36	3479.62
963.587	3496.62
963.813	3360.62
964.04	3456.62
964.266	3375.62
964.493	3413.62
964.719	3397.62
964.945	3348.62
965.171	3282.62
965.398	3325.62
965.624	3307.62
965.85	3241.62
966.076	3267.62
966.302	3290.62
966.528	3245.62
966.754	3232.62
966.98	3214.62
967.206	3210.62
967.431	3153.62
967.657	3258.62
967.883	3210.62
968.109	3208.62
968.334	3133.62
968.56	3083.62
968.785	3110.62
969.011	3094.62
969.236	3119.62
969.462	3079.62
969.687	3092.62
969.912	3085.62
970.138	3123.62
970.363	3028.62
970.588	3050.62
970.813	3027.62
971.038	3002.62
971.263	3044.62
971.488	3032.62
971.713	3082.62
971.938	3013.62
972.163	2910.62
972.388	2948.62
972.613	2902.62
972.838	2926.62
973.062	2940.62
973.287	2906.62
973.512	2823.62
973.736	2878.62
973.961	2833.62
974.185	2821.62
974.41	2878.62
974.634	2754.62
974.858	2763.62
975.083	2785.62
975.307	2785.62
975.531	2732.62
975.755	2657.62
975.98	2704.62
976.204	2611.62
976.428	2581.62
976.652	2590.62
976.876	2636.62
977.1	2626.62
977.324	2596.62
977.547	2611.62
977.771	2612.62
977.995	2585.62
978.219	2526.62
978.442	2668.62
978.666	2604.62
978.89	2562.62
979.113	2521.62
979.337	2569.62
979.56	2480.62
979.783	2569.62
980.007	2461.62
980.23	2485.62
980.453	2450.62
980.677	2514.62
980.9	2494.62
981.123	2382.62
981.346	2470.62
981.569	2461.62
981.792	2476.62
982.015	2398.62
982.238	2385.62
982.461	2388.62
982.684	2340.62
982.907	2332.62
983.129	2324.62
983.352	2370.62
983.575	2343.62
983.797	2344.62
984.02	2288.62
984.242	2289.62
984.465	2325.62
984.687	2288.62
984.91	2319.62
985.132	2293.62
985.354	2343.62
985.577	2272.62
985.799	2281.62
986.021	2167.62
986.243	2194.62
986.465	2213.62
986.687	2278.62
986.909	2264.62
987.131	2245.62
987.353	2198.62
987.575	2207.62
987.797	2181.62
988.019	2115.62
988.241	2169.62
988.462	2146.62
988.684	2178.62
988.906	2221.62
989.127	2233.62
989.349	2105.62
989.57	2129.62
989.792	2177.62
990.013	2151.62
990.234	2178.62
990.456	2173.62
990.677	2158.62
990.898	2106.62
991.119	2095.62
991.341	2097.62
991.562	2072.62
991.783	2100.62
992.004	2016.62
992.225	1990.62
992.446	2056.62
992.667	1962.62
992.887	2048.62
993.108	1941.62
993.329	2068.62
993.55	1994.62
993.77	1912.62
993.991	1933.62
994.212	1954.62
994.432	1942.62
994.653	1951.62
994.873	1961.62
995.093	1849.62
995.314	1915.62
995.534	1964.62
995.754	1944.62
995.975	1946.62
996.195	1863.62
996.415	1916.62
996.635	1911.62
996.855	1898.62
997.075	1901.62
997.295	1877.62
997.515	1888.62
997.735	1915.62
997.955	1896.62
998.174	1874.62
998.394	1855.62
998.614	1893.62
998.834	1840.62
999.053	1923.62
999.273	1859.62
999.492	1914.62
999.712	1845.62
999.931	1773.62
1000.151	1829.62
1000.37	1817.62
1000.589	1860.62
1000.809	1766.62
1001.028	1918.62
1001.247	1837.62
1001.466	1717.62
1001.685	1863.62
1001.904	1776.62
1002.123	1758.62
1002.342	1777.62
1002.561	1730.62
1002.78	1737.62
1002.999	1805.62
1003.218	1745.62
1003.436	1728.62
1003.655	1780.62
1003.874	1698.62
1004.092	1731.62
1004.311	1746.62
1004.53	1718.62
1004.748	1772.62
1004.966	1715.62
1005.185	1756.62
1005.403	1754.62
1005.622	1730.62
1005.84	1786.62
1006.058	1671.62
1006.276	1734.62
1006.494	2222.62
1006.712	1689.62
1006.931	1761.62
1007.149	1682.62
1007.367	1697.62
1007.584	1761.62
1007.802	1761.62
1008.02	1728.62
1008.238	1826.62
1008.456	1825.62
1008.673	1702.62
1008.891	1805.62
1009.109	1801.62
1009.326	1842.62
1009.544	1916.62
1009.761	1876.62
1009.979	1972.62
1010.196	2011.62
1010.413	2123.62
1010.631	2218.62
1010.848	2278.62
1011.065	2266.62
1011.282	2227.62
1011.5	2160.62
1011.717	2256.62
1011.934	2188.62
1012.151	2220.62
1012.368	2217.62
1012.585	2162.62
1012.801	2175.62
1013.018	2159.62
1013.235	2151.62
1013.452	2161.62
1013.669	2167.62
1013.885	2150.62
1014.102	2182.62
1014.318	2187.62
1014.535	2192.62
1014.751	2197.62
1014.968	2165.62
1015.184	2154.62
1015.401	2080.62
1015.617	2106.62
1015.833	2038.62
1016.049	2041.62
1016.266	2035.62
1016.482	2040.62
1016.698	1943.62
1016.914	1979.62
1017.13	1916.62
1017.346	1914.62
1017.562	1961.62
1017.778	1886.62
1017.993	1867.62
1018.209	1886.62
1018.425	1878.62
1018.641	1842.62
1018.856	1838.62
1019.072	1845.62
1019.288	1887.62
1019.503	1850.62
1019.719	1755.62
1019.934	1764.62
1020.149	1838.62
1020.365	1777.62
1020.58	1730.62
1020.795	1740.62
1021.011	1685.62
1021.226	1662.62
1021.441	1673.62
1021.656	1577.62
1021.871	1475.62
1022.086	1488.62
1022.301	1464.62
1022.516	1454.62
1022.731	1494.62
1022.946	1393.62
1023.16	1400.62
1023.375	1364.62
1023.59	1310.62
1023.804	1281.62
1024.019	1372.62
1024.234	1228.62
1024.448	1252.62
1024.663	1160.62
1024.877	1199.62
1025.092	1205.62
1025.306	1188.62
1025.52	1090.62
1025.734	1177.62
1025.949	1094.62
1026.163	1054.62
1026.377	985.62
1026.591	1045.62
1026.805	965.62
1027.019	951.62
1027.233	912.62
1027.447	865.62
1027.661	966.62
1027.875	904.62
1028.088	910.62
1028.302	836.62
1028.516	806.62
1028.73	826.62
1028.943	786.62
1029.157	756.62
1029.37	712.62
1029.584	-4.38
1029.797	-2.38
1030.011	-1.38
1030.224	-3.38
