Data from QEP037381__279__16-16-19-906.txt Node

Date: Fri Dec 16 16:16:19 EST 2022
User: dcclab
Spectrometer: QEP03738
Trigger mode: 4
Integration Time (sec): 1.000000E1
Scans to average: 1
Electric dark correction enabled: true
Nonlinearity correction enabled: false
Boxcar width: 0
XAxis mode: Wavelengths
Number of Pixels in Spectrum: 1044
>>>>>Begin Spectral Data<<<<<
784.041	12.75
784.3	-3.25
784.558	-0.25
784.817	-2.25
785.075	110823.75
785.334	19225.75
785.592	8968.75
785.851	6156.75
786.109	4622.75
786.368	3618.75
786.626	2870.75
786.884	2399.75
787.143	2011.75
787.401	1663.75
787.659	1509.75
787.917	1278.75
788.175	1163.75
788.433	1028.75
788.691	914.75
788.949	861.75
789.207	803.75
789.465	703.75
789.723	679.75
789.98	622.75
790.238	659.75
790.496	637.75
790.753	592.75
791.011	640.75
791.268	574.75
791.526	547.75
791.783	574.75
792.041	556.75
792.298	466.75
792.556	530.75
792.813	490.75
793.07	503.75
793.327	470.75
793.584	552.75
793.841	475.75
794.099	498.75
794.356	545.75
794.613	447.75
794.869	487.75
795.126	446.75
795.383	439.75
795.64	460.75
795.897	400.75
796.153	468.75
796.41	458.75
796.667	454.75
796.923	443.75
797.18	437.75
797.436	474.75
797.693	429.75
797.949	477.75
798.206	515.75
798.462	432.75
798.718	490.75
798.974	470.75
799.231	524.75
799.487	495.75
799.743	518.75
799.999	534.75
800.255	551.75
800.511	534.75
800.767	582.75
801.023	580.75
801.279	616.75
801.534	661.75
801.79	710.75
802.046	759.75
802.302	919.75
802.557	1049.75
802.813	1323.75
803.068	1642.75
803.324	2306.75
803.579	3183.75
803.835	4344.75
804.09	5966.75
804.345	7842.75
804.601	9890.75
804.856	11958.75
805.111	13839.75
805.366	15290.75
805.621	16228.75
805.876	17049.75
806.131	17606.75
806.386	17870.75
806.641	18206.75
806.896	18519.75
807.151	18888.75
807.406	19042.75
807.661	19442.75
807.915	19791.75
808.17	20197.75
808.425	20261.75
808.679	20483.75
808.934	20733.75
809.188	20906.75
809.443	21165.75
809.697	21443.75
809.951	21576.75
810.206	21665.75
810.46	21993.75
810.714	22125.75
810.968	22350.75
811.223	22489.75
811.477	22698.75
811.731	22862.75
811.985	22893.75
812.239	23071.75
812.493	23251.75
812.747	23263.75
813	23230.75
813.254	23381.75
813.508	23639.75
813.762	23577.75
814.015	23795.75
814.269	23940.75
814.522	24059.75
814.776	24389.75
815.03	24671.75
815.283	24991.75
815.536	25483.75
815.79	25898.75
816.043	26173.75
816.296	26537.75
816.55	26768.75
816.803	27022.75
817.056	27509.75
817.309	27627.75
817.562	27994.75
817.815	28215.75
818.068	28411.75
818.321	28620.75
818.574	29039.75
818.827	29396.75
819.079	29673.75
819.332	30265.75
819.585	30619.75
819.838	31016.75
820.09	31107.75
820.343	31293.75
820.595	31549.75
820.848	31724.75
821.1	31799.75
821.353	31936.75
821.605	31735.75
821.857	31733.75
822.11	31612.75
822.362	31557.75
822.614	31381.75
822.866	31488.75
823.118	31613.75
823.37	31709.75
823.622	31855.75
823.874	31784.75
824.126	31987.75
824.378	31998.75
824.63	32026.75
824.882	32165.75
825.134	32106.75
825.385	32137.75
825.637	31909.75
825.888	31753.75
826.14	31919.75
826.392	31692.75
826.643	31438.75
826.895	31537.75
827.146	31239.75
827.397	31212.75
827.649	31178.75
827.9	31188.75
828.151	31226.75
828.402	31350.75
828.653	31442.75
828.905	31439.75
829.156	31621.75
829.407	31359.75
829.658	31442.75
829.909	31724.75
830.159	31643.75
830.41	31467.75
830.661	31342.75
830.912	30984.75
831.162	31000.75
831.413	30838.75
831.664	30961.75
831.914	30886.75
832.165	30830.75
832.415	30818.75
832.666	30853.75
832.916	30927.75
833.167	30900.75
833.417	30737.75
833.667	30646.75
833.917	30658.75
834.168	30566.75
834.418	30505.75
834.668	30363.75
834.918	30181.75
835.168	30015.75
835.418	29900.75
835.668	29801.75
835.918	29689.75
836.167	29750.75
836.417	29570.75
836.667	29581.75
836.917	29533.75
837.166	29462.75
837.416	29606.75
837.666	29582.75
837.915	29522.75
838.165	29458.75
838.414	29319.75
838.663	29358.75
838.913	29340.75
839.162	29142.75
839.411	29148.75
839.661	28920.75
839.91	28947.75
840.159	28921.75
840.408	29040.75
840.657	28935.75
840.906	28997.75
841.155	28879.75
841.404	28890.75
841.653	28952.75
841.902	28959.75
842.15	29093.75
842.399	29032.75
842.648	28871.75
842.897	28939.75
843.145	28643.75
843.394	28516.75
843.642	28328.75
843.891	28222.75
844.139	27987.75
844.388	27812.75
844.636	27767.75
844.884	27875.75
845.133	27705.75
845.381	27713.75
845.629	27700.75
845.877	27619.75
846.125	27610.75
846.373	27619.75
846.621	27581.75
846.869	27443.75
847.117	27228.75
847.365	27103.75
847.613	27003.75
847.861	26895.75
848.108	27007.75
848.356	26810.75
848.604	26751.75
848.851	26803.75
849.099	26762.75
849.346	26819.75
849.594	26904.75
849.841	27065.75
850.089	27060.75
850.336	27024.75
850.583	27021.75
850.831	26856.75
851.078	26816.75
851.325	26735.75
851.572	26870.75
851.819	26597.75
852.066	26138.75
852.313	25824.75
852.56	25557.75
852.807	25512.75
853.054	25413.75
853.301	25423.75
853.548	25342.75
853.794	25546.75
854.041	25560.75
854.288	25562.75
854.534	25908.75
854.781	25911.75
855.028	25776.75
855.274	25777.75
855.52	25686.75
855.767	25509.75
856.013	25753.75
856.26	25876.75
856.506	25408.75
856.752	25309.75
856.998	25242.75
857.244	25325.75
857.49	25396.75
857.736	25447.75
857.982	25535.75
858.228	25358.75
858.474	25182.75
858.72	24973.75
858.966	24774.75
859.212	24668.75
859.458	24399.75
859.703	23969.75
859.949	23797.75
860.195	23688.75
860.44	23629.75
860.686	23583.75
860.931	23563.75
861.177	23321.75
861.422	23191.75
861.667	23211.75
861.913	23103.75
862.158	23116.75
862.403	23089.75
862.648	23246.75
862.893	23417.75
863.138	23175.75
863.384	23128.75
863.629	23176.75
863.873	23104.75
864.118	23019.75
864.363	22862.75
864.608	22928.75
864.853	22723.75
865.098	22644.75
865.342	22498.75
865.587	22490.75
865.832	22392.75
866.076	22433.75
866.321	22257.75
866.565	22137.75
866.81	22054.75
867.054	22011.75
867.298	22007.75
867.543	21877.75
867.787	21933.75
868.031	21827.75
868.275	21829.75
868.519	21717.75
868.764	21758.75
869.008	21602.75
869.252	21686.75
869.496	21608.75
869.739	21567.75
869.983	21595.75
870.227	21484.75
870.471	21524.75
870.715	21755.75
870.958	21617.75
871.202	21595.75
871.446	21766.75
871.689	21868.75
871.933	21875.75
872.176	21749.75
872.42	21680.75
872.663	21621.75
872.906	21610.75
873.15	21456.75
873.393	21596.75
873.636	21423.75
873.879	21220.75
874.122	21052.75
874.366	20802.75
874.609	20431.75
874.852	20408.75
875.095	20342.75
875.337	20120.75
875.58	20045.75
875.823	20055.75
876.066	19959.75
876.309	19871.75
876.551	19774.75
876.794	19616.75
877.037	19643.75
877.279	19544.75
877.522	19579.75
877.764	19592.75
878.007	19411.75
878.249	19420.75
878.491	19284.75
878.734	19377.75
878.976	19302.75
879.218	19182.75
879.46	19158.75
879.702	18982.75
879.945	18767.75
880.187	18656.75
880.429	18644.75
880.671	18410.75
880.912	18402.75
881.154	18305.75
881.396	18212.75
881.638	18362.75
881.88	18251.75
882.121	18168.75
882.363	18209.75
882.605	18219.75
882.846	18171.75
883.088	18186.75
883.329	18135.75
883.571	18172.75
883.812	18490.75
884.053	18602.75
884.295	19094.75
884.536	19396.75
884.777	19224.75
885.018	19032.75
885.259	18935.75
885.5	18812.75
885.742	18910.75
885.982	18652.75
886.223	18546.75
886.464	18292.75
886.705	18261.75
886.946	17985.75
887.187	17638.75
887.428	17555.75
887.668	17237.75
887.909	16906.75
888.15	16772.75
888.39	16613.75
888.631	16493.75
888.871	16417.75
889.111	16365.75
889.352	16277.75
889.592	16034.75
889.833	15798.75
890.073	15749.75
890.313	15770.75
890.553	15647.75
890.793	15479.75
891.033	15541.75
891.273	15406.75
891.513	15326.75
891.753	15319.75
891.993	15239.75
892.233	15355.75
892.473	15410.75
892.713	15374.75
892.952	15265.75
893.192	15260.75
893.432	15315.75
893.671	15328.75
893.911	15141.75
894.15	15040.75
894.39	14966.75
894.629	14890.75
894.869	14878.75
895.108	14742.75
895.347	14598.75
895.587	14685.75
895.826	14526.75
896.065	14566.75
896.304	14626.75
896.543	14600.75
896.782	14433.75
897.021	14486.75
897.26	14422.75
897.499	14425.75
897.738	14396.75
897.977	14344.75
898.216	14204.75
898.454	14117.75
898.693	14042.75
898.932	14066.75
899.17	13888.75
899.409	13874.75
899.647	13813.75
899.886	13719.75
900.124	13820.75
900.363	13815.75
900.601	13898.75
900.839	13880.75
901.078	13958.75
901.316	13930.75
901.554	14082.75
901.792	14099.75
902.03	13982.75
902.268	14059.75
902.506	14023.75
902.744	13956.75
902.982	13887.75
903.22	13689.75
903.458	13474.75
903.695	13285.75
903.933	13040.75
904.171	12806.75
904.409	12652.75
904.646	12445.75
904.884	12266.75
905.121	12199.75
905.359	12011.75
905.596	11998.75
905.833	11820.75
906.071	11671.75
906.308	11787.75
906.545	11695.75
906.783	11604.75
907.02	11602.75
907.257	11505.75
907.494	11473.75
907.731	11414.75
907.968	11470.75
908.205	11303.75
908.442	11259.75
908.679	11159.75
908.915	11035.75
909.152	11057.75
909.389	10877.75
909.626	10817.75
909.862	10732.75
910.099	10719.75
910.335	10779.75
910.572	10614.75
910.808	10612.75
911.045	10574.75
911.281	10454.75
911.518	10489.75
911.754	10384.75
911.99	10385.75
912.226	10244.75
912.463	10156.75
912.699	10102.75
912.935	10070.75
913.171	9971.75
913.407	9920.75
913.643	9839.75
913.879	9702.75
914.114	9674.75
914.35	9503.75
914.586	9481.75
914.822	9349.75
915.057	9410.75
915.293	9215.75
915.529	9224.75
915.764	9212.75
916	9228.75
916.235	9134.75
916.471	9154.75
916.706	8990.75
916.941	9130.75
917.177	9010.75
917.412	9023.75
917.647	9020.75
917.882	9003.75
918.117	8988.75
918.352	8884.75
918.588	8960.75
918.823	8815.75
919.057	8778.75
919.292	8662.75
919.527	8678.75
919.762	8439.75
919.997	8428.75
920.232	8358.75
920.466	8301.75
920.701	8193.75
920.935	8148.75
921.17	8157.75
921.405	8015.75
921.639	8061.75
921.873	8057.75
922.108	8011.75
922.342	7968.75
922.576	7871.75
922.811	7822.75
923.045	7871.75
923.279	7874.75
923.513	7664.75
923.747	7756.75
923.981	7714.75
924.215	7600.75
924.449	7631.75
924.683	7428.75
924.917	7490.75
925.151	7449.75
925.385	7475.75
925.618	7404.75
925.852	7436.75
926.086	7275.75
926.319	7359.75
926.553	7326.75
926.786	7350.75
927.02	7350.75
927.253	7379.75
927.486	7372.75
927.72	7215.75
927.953	7252.75
928.186	7210.75
928.42	7196.75
928.653	7141.75
928.886	7096.75
929.119	7099.75
929.352	7068.75
929.585	7029.75
929.818	6928.75
930.051	6855.75
930.284	6896.75
930.516	6748.75
930.749	6710.75
930.982	6752.75
931.215	6685.75
931.447	6647.75
931.68	6615.75
931.912	6573.75
932.145	6557.75
932.377	6581.75
932.61	6739.75
932.842	6521.75
933.074	6595.75
933.307	6493.75
933.539	6613.75
933.771	6570.75
934.003	6519.75
934.236	6626.75
934.468	6587.75
934.7	6492.75
934.932	6477.75
935.164	6433.75
935.395	6422.75
935.627	6403.75
935.859	6385.75
936.091	6338.75
936.323	6325.75
936.554	6351.75
936.786	6291.75
937.017	6221.75
937.249	6311.75
937.481	6170.75
937.712	6236.75
937.943	6184.75
938.175	6144.75
938.406	6157.75
938.637	6135.75
938.869	6120.75
939.1	6165.75
939.331	6115.75
939.562	6093.75
939.793	6062.75
940.024	6029.75
940.255	6085.75
940.486	6010.75
940.717	5953.75
940.948	5940.75
941.179	5818.75
941.409	5894.75
941.64	5835.75
941.871	5855.75
942.102	5832.75
942.332	5820.75
942.563	5832.75
942.793	5842.75
943.024	5800.75
943.254	5802.75
943.484	5797.75
943.715	5809.75
943.945	5811.75
944.175	5781.75
944.405	5725.75
944.636	5700.75
944.866	5753.75
945.096	5712.75
945.326	5660.75
945.556	5760.75
945.786	5701.75
946.016	5601.75
946.245	5631.75
946.475	5523.75
946.705	5500.75
946.935	5516.75
947.164	5480.75
947.394	5394.75
947.624	5414.75
947.853	5430.75
948.083	5345.75
948.312	5346.75
948.542	5245.75
948.771	5246.75
949	5244.75
949.23	5291.75
949.459	5296.75
949.688	5321.75
949.917	5259.75
950.146	5254.75
950.375	5269.75
950.604	5136.75
950.833	5247.75
951.062	5328.75
951.291	5162.75
951.52	5118.75
951.749	5137.75
951.978	5121.75
952.206	5103.75
952.435	5027.75
952.664	5051.75
952.892	5062.75
953.121	5007.75
953.349	5073.75
953.578	4996.75
953.806	4955.75
954.035	4896.75
954.263	4916.75
954.491	4795.75
954.719	4888.75
954.948	4840.75
955.176	4839.75
955.404	4754.75
955.632	4831.75
955.86	4735.75
956.088	4707.75
956.316	4709.75
956.544	4756.75
956.772	4653.75
956.999	4598.75
957.227	4641.75
957.455	4572.75
957.683	4565.75
957.91	4547.75
958.138	4500.75
958.365	4471.75
958.593	4506.75
958.82	4396.75
959.048	4452.75
959.275	4426.75
959.502	4361.75
959.73	4352.75
959.957	4387.75
960.184	4387.75
960.411	4332.75
960.638	4421.75
960.865	4351.75
961.092	4379.75
961.319	4277.75
961.546	4344.75
961.773	4367.75
962	4316.75
962.227	4296.75
962.454	4300.75
962.68	4236.75
962.907	4283.75
963.134	4194.75
963.36	4147.75
963.587	4210.75
963.813	4106.75
964.04	4134.75
964.266	4091.75
964.493	4110.75
964.719	4111.75
964.945	4058.75
965.171	3962.75
965.398	4047.75
965.624	4027.75
965.85	3910.75
966.076	3925.75
966.302	3974.75
966.528	3917.75
966.754	3899.75
966.98	3917.75
967.206	3874.75
967.431	3832.75
967.657	3880.75
967.883	3837.75
968.109	3846.75
968.334	3795.75
968.56	3746.75
968.785	3798.75
969.011	3684.75
969.236	3794.75
969.462	3690.75
969.687	3701.75
969.912	3730.75
970.138	3745.75
970.363	3667.75
970.588	3647.75
970.813	3665.75
971.038	3590.75
971.263	3659.75
971.488	3609.75
971.713	3655.75
971.938	3621.75
972.163	3516.75
972.388	3538.75
972.613	3524.75
972.838	3540.75
973.062	3486.75
973.287	3487.75
973.512	3403.75
973.736	3420.75
973.961	3406.75
974.185	3391.75
974.41	3412.75
974.634	3323.75
974.858	3335.75
975.083	3332.75
975.307	3382.75
975.531	3252.75
975.755	3241.75
975.98	3234.75
976.204	3153.75
976.428	3142.75
976.652	3136.75
976.876	3145.75
977.1	3151.75
977.324	3116.75
977.547	3158.75
977.771	3156.75
977.995	3118.75
978.219	3033.75
978.442	3127.75
978.666	3097.75
978.89	3072.75
979.113	3057.75
979.337	3028.75
979.56	2996.75
979.783	3077.75
980.007	2974.75
980.23	3016.75
980.453	2947.75
980.677	3008.75
980.9	2972.75
981.123	2873.75
981.346	2974.75
981.569	2946.75
981.792	2966.75
982.015	2918.75
982.238	2846.75
982.461	2871.75
982.684	2833.75
982.907	2815.75
983.129	2787.75
983.352	2845.75
983.575	2757.75
983.797	2800.75
984.02	2750.75
984.242	2742.75
984.465	2742.75
984.687	2727.75
984.91	2756.75
985.132	2722.75
985.354	2697.75
985.577	2679.75
985.799	2645.75
986.021	2593.75
986.243	2614.75
986.465	2603.75
986.687	2648.75
986.909	2693.75
987.131	2622.75
987.353	2608.75
987.575	2590.75
987.797	2596.75
988.019	2525.75
988.241	2571.75
988.462	2547.75
988.684	2599.75
988.906	2592.75
989.127	2633.75
989.349	2485.75
989.57	2507.75
989.792	2539.75
990.013	2581.75
990.234	2550.75
990.456	2573.75
990.677	2562.75
990.898	2474.75
991.119	2481.75
991.341	2453.75
991.562	2427.75
991.783	2458.75
992.004	2372.75
992.225	2362.75
992.446	2390.75
992.667	2349.75
992.887	2420.75
993.108	2282.75
993.329	2392.75
993.55	2332.75
993.77	2297.75
993.991	2278.75
994.212	2313.75
994.432	2282.75
994.653	2273.75
994.873	2276.75
995.093	2129.75
995.314	2196.75
995.534	2289.75
995.754	2257.75
995.975	2285.75
996.195	2166.75
996.415	2238.75
996.635	2197.75
996.855	2220.75
997.075	2165.75
997.295	2184.75
997.515	2142.75
997.735	2197.75
997.955	2209.75
998.174	2191.75
998.394	2109.75
998.614	2177.75
998.834	2151.75
999.053	2176.75
999.273	2144.75
999.492	2203.75
999.712	2135.75
999.931	2090.75
1000.151	2117.75
1000.37	2074.75
1000.589	2151.75
1000.809	2045.75
1001.028	2150.75
1001.247	2116.75
1001.466	1971.75
1001.685	2123.75
1001.904	2065.75
1002.123	2034.75
1002.342	2032.75
1002.561	1980.75
1002.78	2017.75
1002.999	2052.75
1003.218	1991.75
1003.436	1936.75
1003.655	2014.75
1003.874	1948.75
1004.092	1971.75
1004.311	2006.75
1004.53	1932.75
1004.748	2024.75
1004.966	1930.75
1005.185	1992.75
1005.403	1997.75
1005.622	1990.75
1005.84	2024.75
1006.058	1943.75
1006.276	1952.75
1006.494	2428.75
1006.712	1954.75
1006.931	2018.75
1007.149	1917.75
1007.367	1920.75
1007.584	1963.75
1007.802	1971.75
1008.02	1955.75
1008.238	2047.75
1008.456	2051.75
1008.673	1919.75
1008.891	2069.75
1009.109	2003.75
1009.326	2053.75
1009.544	2170.75
1009.761	2094.75
1009.979	2199.75
1010.196	2232.75
1010.413	2346.75
1010.631	2388.75
1010.848	2470.75
1011.065	2529.75
1011.282	2460.75
1011.5	2420.75
1011.717	2524.75
1011.934	2432.75
1012.151	2471.75
1012.368	2454.75
1012.585	2392.75
1012.801	2414.75
1013.018	2410.75
1013.235	2366.75
1013.452	2373.75
1013.669	2399.75
1013.885	2357.75
1014.102	2450.75
1014.318	2417.75
1014.535	2376.75
1014.751	2376.75
1014.968	2388.75
1015.184	2403.75
1015.401	2329.75
1015.617	2334.75
1015.833	2260.75
1016.049	2241.75
1016.266	2231.75
1016.482	2214.75
1016.698	2132.75
1016.914	2158.75
1017.13	2117.75
1017.346	2124.75
1017.562	2158.75
1017.778	2084.75
1017.993	2055.75
1018.209	2114.75
1018.425	2087.75
1018.641	2045.75
1018.856	2014.75
1019.072	2058.75
1019.288	2086.75
1019.503	2072.75
1019.719	1981.75
1019.934	1962.75
1020.149	2050.75
1020.365	1957.75
1020.58	1890.75
1020.795	1944.75
1021.011	1839.75
1021.226	1846.75
1021.441	1837.75
1021.656	1745.75
1021.871	1665.75
1022.086	1662.75
1022.301	1612.75
1022.516	1608.75
1022.731	1621.75
1022.946	1570.75
1023.16	1538.75
1023.375	1518.75
1023.59	1491.75
1023.804	1431.75
1024.019	1531.75
1024.234	1390.75
1024.448	1405.75
1024.663	1317.75
1024.877	1339.75
1025.092	1335.75
1025.306	1323.75
1025.52	1234.75
1025.734	1294.75
1025.949	1210.75
1026.163	1154.75
1026.377	1119.75
1026.591	1161.75
1026.805	1049.75
1027.019	1059.75
1027.233	1014.75
1027.447	988.75
1027.661	1069.75
1027.875	1024.75
1028.088	1008.75
1028.302	925.75
1028.516	915.75
1028.73	910.75
1028.943	889.75
1029.157	825.75
1029.37	777.75
1029.584	2.75
1029.797	-4.25
1030.011	-2.25
1030.224	-3.25
