Data from QEP037381__325__16-23-59-912.txt Node

Date: Fri Dec 16 16:23:59 EST 2022
User: dcclab
Spectrometer: QEP03738
Trigger mode: 4
Integration Time (sec): 1.000000E1
Scans to average: 1
Electric dark correction enabled: true
Nonlinearity correction enabled: false
Boxcar width: 0
XAxis mode: Wavelengths
Number of Pixels in Spectrum: 1044
>>>>>Begin Spectral Data<<<<<
784.041	11.5
784.3	-2.5
784.558	0.5
784.817	-2.5
785.075	114157.5
785.334	19703.5
785.592	9221.5
785.851	6296.5
786.109	4741.5
786.368	3688.5
786.626	2945.5
786.884	2487.5
787.143	2118.5
787.401	1724.5
787.659	1572.5
787.917	1318.5
788.175	1209.5
788.433	1034.5
788.691	928.5
788.949	869.5
789.207	825.5
789.465	721.5
789.723	709.5
789.98	633.5
790.238	687.5
790.496	635.5
790.753	605.5
791.011	648.5
791.268	582.5
791.526	564.5
791.783	560.5
792.041	546.5
792.298	468.5
792.556	542.5
792.813	524.5
793.07	490.5
793.327	472.5
793.584	554.5
793.841	481.5
794.099	493.5
794.356	539.5
794.613	453.5
794.869	494.5
795.126	459.5
795.383	445.5
795.64	454.5
795.897	395.5
796.153	462.5
796.41	455.5
796.667	436.5
796.923	445.5
797.18	450.5
797.436	485.5
797.693	437.5
797.949	479.5
798.206	519.5
798.462	432.5
798.718	496.5
798.974	471.5
799.231	493.5
799.487	497.5
799.743	506.5
799.999	535.5
800.255	532.5
800.511	529.5
800.767	564.5
801.023	552.5
801.279	601.5
801.534	621.5
801.79	710.5
802.046	739.5
802.302	883.5
802.557	1019.5
802.813	1283.5
803.068	1566.5
803.324	2176.5
803.579	2976.5
803.835	4115.5
804.09	5680.5
804.345	7422.5
804.601	9333.5
804.856	11257.5
805.111	13014.5
805.366	14394.5
805.621	15363.5
805.876	16026.5
806.131	16488.5
806.386	16816.5
806.641	17126.5
806.896	17394.5
807.151	17710.5
807.406	17972.5
807.661	18355.5
807.915	18724.5
808.17	18975.5
808.425	19190.5
808.679	19398.5
808.934	19582.5
809.188	19602.5
809.443	19853.5
809.697	20188.5
809.951	20294.5
810.206	20509.5
810.46	20645.5
810.714	20754.5
810.968	21113.5
811.223	21232.5
811.477	21333.5
811.731	21576.5
811.985	21700.5
812.239	21608.5
812.493	21845.5
812.747	21854.5
813	21913.5
813.254	22052.5
813.508	22373.5
813.762	22294.5
814.015	22368.5
814.269	22419.5
814.522	22672.5
814.776	22985.5
815.03	23215.5
815.283	23607.5
815.536	23944.5
815.79	24170.5
816.043	24574.5
816.296	25001.5
816.55	25208.5
816.803	25528.5
817.056	25870.5
817.309	26127.5
817.562	26251.5
817.815	26522.5
818.068	26791.5
818.321	27041.5
818.574	27227.5
818.827	27717.5
819.079	27969.5
819.332	28405.5
819.585	28884.5
819.838	29187.5
820.09	29213.5
820.343	29542.5
820.595	29643.5
820.848	29861.5
821.1	29948.5
821.353	30015.5
821.605	29889.5
821.857	29909.5
822.11	29731.5
822.362	29822.5
822.614	29748.5
822.866	29701.5
823.118	29676.5
823.37	29747.5
823.622	29921.5
823.874	29861.5
824.126	30104.5
824.378	30056.5
824.63	30076.5
824.882	30231.5
825.134	30070.5
825.385	30148.5
825.637	30081.5
825.888	30028.5
826.14	30000.5
826.392	29790.5
826.643	29650.5
826.895	29649.5
827.146	29328.5
827.397	29310.5
827.649	29341.5
827.9	29401.5
828.151	29462.5
828.402	29482.5
828.653	29502.5
828.905	29592.5
829.156	29647.5
829.407	29563.5
829.658	29561.5
829.909	29765.5
830.159	29768.5
830.41	29528.5
830.661	29310.5
830.912	29170.5
831.162	29064.5
831.413	29067.5
831.664	29022.5
831.914	29039.5
832.165	28981.5
832.415	28987.5
832.666	29074.5
832.916	28980.5
833.167	28956.5
833.417	28886.5
833.667	28858.5
833.917	28674.5
834.168	28634.5
834.418	28648.5
834.668	28521.5
834.918	28347.5
835.168	28180.5
835.418	28001.5
835.668	28037.5
835.918	27858.5
836.167	27955.5
836.417	27808.5
836.667	27759.5
836.917	27712.5
837.166	27733.5
837.416	27769.5
837.666	27848.5
837.915	27564.5
838.165	27593.5
838.414	27501.5
838.663	27331.5
838.913	27395.5
839.162	27538.5
839.411	27528.5
839.661	27274.5
839.91	27304.5
840.159	27228.5
840.408	27213.5
840.657	27232.5
840.906	27241.5
841.155	27170.5
841.404	27125.5
841.653	27088.5
841.902	27149.5
842.15	27266.5
842.399	27237.5
842.648	27168.5
842.897	27024.5
843.145	27065.5
843.394	26752.5
843.642	26528.5
843.891	26329.5
844.139	26372.5
844.388	26096.5
844.636	26068.5
844.884	26074.5
845.133	26007.5
845.381	25990.5
845.629	25975.5
845.877	25945.5
846.125	26009.5
846.373	25955.5
846.621	25690.5
846.869	25617.5
847.117	25499.5
847.365	25332.5
847.613	25249.5
847.861	25291.5
848.108	25278.5
848.356	25077.5
848.604	25110.5
848.851	25036.5
849.099	25103.5
849.346	25117.5
849.594	25200.5
849.841	25431.5
850.089	25353.5
850.336	25270.5
850.583	25322.5
850.831	25261.5
851.078	25052.5
851.325	24996.5
851.572	25109.5
851.819	24917.5
852.066	24560.5
852.313	24094.5
852.56	24006.5
852.807	23853.5
853.054	23794.5
853.301	23811.5
853.548	23714.5
853.794	23830.5
854.041	23920.5
854.288	24059.5
854.534	24229.5
854.781	24151.5
855.028	23987.5
855.274	24041.5
855.52	24001.5
855.767	23862.5
856.013	23901.5
856.26	24146.5
856.506	23577.5
856.752	23559.5
856.998	23662.5
857.244	23819.5
857.49	23757.5
857.736	23812.5
857.982	23880.5
858.228	23785.5
858.474	23568.5
858.72	23396.5
858.966	23291.5
859.212	22860.5
859.458	22720.5
859.703	22508.5
859.949	22276.5
860.195	22006.5
860.44	22131.5
860.686	22061.5
860.931	22049.5
861.177	21787.5
861.422	21725.5
861.667	21651.5
861.913	21580.5
862.158	21525.5
862.403	21599.5
862.648	21678.5
862.893	21662.5
863.138	21683.5
863.384	21611.5
863.629	21621.5
863.873	21574.5
864.118	21488.5
864.363	21401.5
864.608	21371.5
864.853	21273.5
865.098	21044.5
865.342	21039.5
865.587	20922.5
865.832	20950.5
866.076	20956.5
866.321	20828.5
866.565	20720.5
866.81	20724.5
867.054	20582.5
867.298	20532.5
867.543	20428.5
867.787	20453.5
868.031	20437.5
868.275	20381.5
868.519	20363.5
868.764	20240.5
869.008	20284.5
869.252	20240.5
869.496	20212.5
869.739	20157.5
869.983	20141.5
870.227	20148.5
870.471	20105.5
870.715	20177.5
870.958	20226.5
871.202	20307.5
871.446	20246.5
871.689	20272.5
871.933	20270.5
872.176	20289.5
872.42	20140.5
872.663	20138.5
872.906	20177.5
873.15	20170.5
873.393	20076.5
873.636	19996.5
873.879	19784.5
874.122	19588.5
874.366	19396.5
874.609	19139.5
874.852	19020.5
875.095	18869.5
875.337	18811.5
875.58	18692.5
875.823	18671.5
876.066	18586.5
876.309	18582.5
876.551	18444.5
876.794	18253.5
877.037	18295.5
877.279	18223.5
877.522	18262.5
877.764	18223.5
878.007	18203.5
878.249	18142.5
878.491	18014.5
878.734	18122.5
878.976	18094.5
879.218	17889.5
879.46	17801.5
879.702	17600.5
879.945	17467.5
880.187	17308.5
880.429	17312.5
880.671	17113.5
880.912	17127.5
881.154	17057.5
881.396	16987.5
881.638	17074.5
881.88	16968.5
882.121	16914.5
882.363	16872.5
882.605	16966.5
882.846	16962.5
883.088	16962.5
883.329	16717.5
883.571	16918.5
883.812	17140.5
884.053	17317.5
884.295	17687.5
884.536	17981.5
884.777	17782.5
885.018	17583.5
885.259	17596.5
885.5	17444.5
885.742	17534.5
885.982	17397.5
886.223	17142.5
886.464	17063.5
886.705	16856.5
886.946	16651.5
887.187	16361.5
887.428	16345.5
887.668	15966.5
887.909	15755.5
888.15	15489.5
888.39	15459.5
888.631	15456.5
888.871	15285.5
889.111	15137.5
889.352	15041.5
889.592	14870.5
889.833	14823.5
890.073	14734.5
890.313	14665.5
890.553	14483.5
890.793	14448.5
891.033	14444.5
891.273	14316.5
891.513	14216.5
891.753	14275.5
891.993	14241.5
892.233	14245.5
892.473	14330.5
892.713	14280.5
892.952	14170.5
893.192	14269.5
893.432	14255.5
893.671	14211.5
893.911	14098.5
894.15	14061.5
894.39	13921.5
894.629	13895.5
894.869	13800.5
895.108	13748.5
895.347	13649.5
895.587	13707.5
895.826	13616.5
896.065	13501.5
896.304	13574.5
896.543	13485.5
896.782	13409.5
897.021	13463.5
897.26	13463.5
897.499	13447.5
897.738	13364.5
897.977	13252.5
898.216	13161.5
898.454	13116.5
898.693	12967.5
898.932	12976.5
899.17	12851.5
899.409	12834.5
899.647	12769.5
899.886	12758.5
900.124	12810.5
900.363	12761.5
900.601	12886.5
900.839	12915.5
901.078	12848.5
901.316	12997.5
901.554	13034.5
901.792	13078.5
902.03	13089.5
902.268	13018.5
902.506	13085.5
902.744	12915.5
902.982	12945.5
903.22	12680.5
903.458	12481.5
903.695	12374.5
903.933	12155.5
904.171	11953.5
904.409	11686.5
904.646	11631.5
904.884	11403.5
905.121	11340.5
905.359	11171.5
905.596	11014.5
905.833	10962.5
906.071	10883.5
906.308	10955.5
906.545	10888.5
906.783	10791.5
907.02	10766.5
907.257	10633.5
907.494	10648.5
907.731	10698.5
907.968	10659.5
908.205	10513.5
908.442	10526.5
908.679	10399.5
908.915	10317.5
909.152	10272.5
909.389	10112.5
909.626	10112.5
909.862	10025.5
910.099	10098.5
910.335	9917.5
910.572	9867.5
910.808	9923.5
911.045	9815.5
911.281	9814.5
911.518	9830.5
911.754	9640.5
911.99	9565.5
912.226	9555.5
912.463	9513.5
912.699	9399.5
912.935	9345.5
913.171	9310.5
913.407	9245.5
913.643	9128.5
913.879	9110.5
914.114	8917.5
914.35	8824.5
914.586	8825.5
914.822	8749.5
915.057	8717.5
915.293	8575.5
915.529	8580.5
915.764	8622.5
916	8541.5
916.235	8541.5
916.471	8551.5
916.706	8388.5
916.941	8468.5
917.177	8479.5
917.412	8440.5
917.647	8500.5
917.882	8338.5
918.117	8452.5
918.352	8343.5
918.588	8340.5
918.823	8200.5
919.057	8119.5
919.292	7986.5
919.527	8066.5
919.762	7830.5
919.997	7891.5
920.232	7785.5
920.466	7761.5
920.701	7590.5
920.935	7593.5
921.17	7581.5
921.405	7471.5
921.639	7498.5
921.873	7417.5
922.108	7389.5
922.342	7384.5
922.576	7309.5
922.811	7357.5
923.045	7360.5
923.279	7307.5
923.513	7144.5
923.747	7260.5
923.981	7124.5
924.215	7072.5
924.449	7057.5
924.683	6874.5
924.917	6988.5
925.151	6910.5
925.385	6951.5
925.618	6950.5
925.852	6917.5
926.086	6865.5
926.319	6869.5
926.553	6932.5
926.786	6809.5
927.02	6809.5
927.253	6853.5
927.486	6815.5
927.72	6735.5
927.953	6787.5
928.186	6762.5
928.42	6726.5
928.653	6684.5
928.886	6623.5
929.119	6569.5
929.352	6591.5
929.585	6569.5
929.818	6436.5
930.051	6448.5
930.284	6398.5
930.516	6268.5
930.749	6276.5
930.982	6261.5
931.215	6220.5
931.447	6175.5
931.68	6166.5
931.912	6168.5
932.145	6150.5
932.377	6199.5
932.61	6253.5
932.842	6097.5
933.074	6153.5
933.307	6077.5
933.539	6179.5
933.771	6137.5
934.003	6084.5
934.236	6142.5
934.468	6187.5
934.7	6089.5
934.932	6096.5
935.164	5992.5
935.395	6022.5
935.627	5998.5
935.859	5988.5
936.091	5907.5
936.323	5939.5
936.554	5970.5
936.786	5878.5
937.017	5822.5
937.249	5839.5
937.481	5728.5
937.712	5812.5
937.943	5774.5
938.175	5781.5
938.406	5727.5
938.637	5738.5
938.869	5690.5
939.1	5741.5
939.331	5646.5
939.562	5714.5
939.793	5623.5
940.024	5718.5
940.255	5686.5
940.486	5598.5
940.717	5553.5
940.948	5505.5
941.179	5431.5
941.409	5541.5
941.64	5462.5
941.871	5468.5
942.102	5470.5
942.332	5451.5
942.563	5472.5
942.793	5455.5
943.024	5421.5
943.254	5421.5
943.484	5481.5
943.715	5439.5
943.945	5392.5
944.175	5398.5
944.405	5334.5
944.636	5338.5
944.866	5379.5
945.096	5389.5
945.326	5298.5
945.556	5329.5
945.786	5333.5
946.016	5236.5
946.245	5144.5
946.475	5162.5
946.705	5129.5
946.935	5139.5
947.164	5099.5
947.394	5088.5
947.624	5034.5
947.853	5076.5
948.083	5041.5
948.312	5018.5
948.542	4926.5
948.771	4945.5
949	4916.5
949.23	4893.5
949.459	4906.5
949.688	4948.5
949.917	4884.5
950.146	4911.5
950.375	4929.5
950.604	4815.5
950.833	4970.5
951.062	4922.5
951.291	4813.5
951.52	4790.5
951.749	4764.5
951.978	4802.5
952.206	4731.5
952.435	4703.5
952.664	4766.5
952.892	4758.5
953.121	4739.5
953.349	4707.5
953.578	4716.5
953.806	4684.5
954.035	4570.5
954.263	4560.5
954.491	4574.5
954.719	4593.5
954.948	4519.5
955.176	4493.5
955.404	4444.5
955.632	4480.5
955.86	4447.5
956.088	4493.5
956.316	4417.5
956.544	4456.5
956.772	4335.5
956.999	4313.5
957.227	4377.5
957.455	4283.5
957.683	4281.5
957.91	4209.5
958.138	4289.5
958.365	4212.5
958.593	4182.5
958.82	4138.5
959.048	4180.5
959.275	4175.5
959.502	4113.5
959.73	4079.5
959.957	4097.5
960.184	4128.5
960.411	4085.5
960.638	4118.5
960.865	4103.5
961.092	4093.5
961.319	4004.5
961.546	4106.5
961.773	4101.5
962	4011.5
962.227	4052.5
962.454	4044.5
962.68	3975.5
962.907	3968.5
963.134	3935.5
963.36	3955.5
963.587	3931.5
963.813	3891.5
964.04	3881.5
964.266	3795.5
964.493	3895.5
964.719	3832.5
964.945	3788.5
965.171	3682.5
965.398	3742.5
965.624	3762.5
965.85	3691.5
966.076	3650.5
966.302	3680.5
966.528	3656.5
966.754	3713.5
966.98	3649.5
967.206	3643.5
967.431	3576.5
967.657	3644.5
967.883	3578.5
968.109	3609.5
968.334	3568.5
968.56	3501.5
968.785	3535.5
969.011	3491.5
969.236	3548.5
969.462	3450.5
969.687	3497.5
969.912	3516.5
970.138	3520.5
970.363	3469.5
970.588	3473.5
970.813	3439.5
971.038	3360.5
971.263	3431.5
971.488	3399.5
971.713	3429.5
971.938	3406.5
972.163	3271.5
972.388	3321.5
972.613	3310.5
972.838	3298.5
973.062	3309.5
973.287	3280.5
973.512	3216.5
973.736	3232.5
973.961	3227.5
974.185	3195.5
974.41	3219.5
974.634	3069.5
974.858	3106.5
975.083	3146.5
975.307	3132.5
975.531	3062.5
975.755	2981.5
975.98	3047.5
976.204	2963.5
976.428	2994.5
976.652	2955.5
976.876	2949.5
977.1	2969.5
977.324	2926.5
977.547	2951.5
977.771	2976.5
977.995	2940.5
978.219	2877.5
978.442	2953.5
978.666	2897.5
978.89	2897.5
979.113	2899.5
979.337	2899.5
979.56	2841.5
979.783	2917.5
980.007	2813.5
980.23	2823.5
980.453	2786.5
980.677	2803.5
980.9	2815.5
981.123	2722.5
981.346	2797.5
981.569	2776.5
981.792	2743.5
982.015	2727.5
982.238	2654.5
982.461	2715.5
982.684	2672.5
982.907	2613.5
983.129	2623.5
983.352	2647.5
983.575	2610.5
983.797	2642.5
984.02	2567.5
984.242	2547.5
984.465	2577.5
984.687	2612.5
984.91	2585.5
985.132	2560.5
985.354	2603.5
985.577	2511.5
985.799	2528.5
986.021	2429.5
986.243	2450.5
986.465	2470.5
986.687	2507.5
986.909	2563.5
987.131	2533.5
987.353	2432.5
987.575	2469.5
987.797	2424.5
988.019	2379.5
988.241	2451.5
988.462	2406.5
988.684	2444.5
988.906	2443.5
989.127	2467.5
989.349	2348.5
989.57	2401.5
989.792	2441.5
990.013	2388.5
990.234	2417.5
990.456	2422.5
990.677	2381.5
990.898	2312.5
991.119	2338.5
991.341	2336.5
991.562	2266.5
991.783	2330.5
992.004	2260.5
992.225	2213.5
992.446	2285.5
992.667	2169.5
992.887	2246.5
993.108	2173.5
993.329	2263.5
993.55	2205.5
993.77	2177.5
993.991	2153.5
994.212	2168.5
994.432	2142.5
994.653	2176.5
994.873	2149.5
995.093	2029.5
995.314	2088.5
995.534	2154.5
995.754	2137.5
995.975	2132.5
996.195	2042.5
996.415	2157.5
996.635	2089.5
996.855	2074.5
997.075	2085.5
997.295	2093.5
997.515	2025.5
997.735	2095.5
997.955	2060.5
998.174	2051.5
998.394	2027.5
998.614	2061.5
998.834	2027.5
999.053	2089.5
999.273	2036.5
999.492	2086.5
999.712	2021.5
999.931	1948.5
1000.151	2034.5
1000.37	2028.5
1000.589	2054.5
1000.809	1981.5
1001.028	2055.5
1001.247	2012.5
1001.466	1866.5
1001.685	2008.5
1001.904	1974.5
1002.123	1948.5
1002.342	1905.5
1002.561	1880.5
1002.78	1890.5
1002.999	1960.5
1003.218	1892.5
1003.436	1885.5
1003.655	1936.5
1003.874	1868.5
1004.092	1887.5
1004.311	1895.5
1004.53	1865.5
1004.748	1964.5
1004.966	1848.5
1005.185	1927.5
1005.403	1875.5
1005.622	1880.5
1005.84	1934.5
1006.058	1845.5
1006.276	1853.5
1006.494	2343.5
1006.712	1866.5
1006.931	1931.5
1007.149	1875.5
1007.367	1849.5
1007.584	1884.5
1007.802	1902.5
1008.02	1874.5
1008.238	1956.5
1008.456	1957.5
1008.673	1859.5
1008.891	1953.5
1009.109	1880.5
1009.326	1969.5
1009.544	2019.5
1009.761	1949.5
1009.979	2059.5
1010.196	2071.5
1010.413	2192.5
1010.631	2286.5
1010.848	2336.5
1011.065	2360.5
1011.282	2333.5
1011.5	2221.5
1011.717	2376.5
1011.934	2293.5
1012.151	2337.5
1012.368	2301.5
1012.585	2186.5
1012.801	2274.5
1013.018	2273.5
1013.235	2222.5
1013.452	2235.5
1013.669	2226.5
1013.885	2262.5
1014.102	2311.5
1014.318	2265.5
1014.535	2236.5
1014.751	2247.5
1014.968	2236.5
1015.184	2256.5
1015.401	2167.5
1015.617	2160.5
1015.833	2102.5
1016.049	2119.5
1016.266	2118.5
1016.482	2080.5
1016.698	2023.5
1016.914	2052.5
1017.13	1969.5
1017.346	1997.5
1017.562	2033.5
1017.778	1941.5
1017.993	1909.5
1018.209	1970.5
1018.425	1953.5
1018.641	1898.5
1018.856	1904.5
1019.072	1947.5
1019.288	1967.5
1019.503	1896.5
1019.719	1814.5
1019.934	1849.5
1020.149	1942.5
1020.365	1871.5
1020.58	1786.5
1020.795	1841.5
1021.011	1746.5
1021.226	1740.5
1021.441	1737.5
1021.656	1639.5
1021.871	1574.5
1022.086	1556.5
1022.301	1547.5
1022.516	1514.5
1022.731	1551.5
1022.946	1494.5
1023.16	1478.5
1023.375	1400.5
1023.59	1381.5
1023.804	1385.5
1024.019	1448.5
1024.234	1299.5
1024.448	1353.5
1024.663	1285.5
1024.877	1268.5
1025.092	1255.5
1025.306	1285.5
1025.52	1164.5
1025.734	1264.5
1025.949	1139.5
1026.163	1113.5
1026.377	1052.5
1026.591	1127.5
1026.805	1027.5
1027.019	1036.5
1027.233	981.5
1027.447	930.5
1027.661	1011.5
1027.875	960.5
1028.088	967.5
1028.302	887.5
1028.516	875.5
1028.73	871.5
1028.943	869.5
1029.157	797.5
1029.37	736.5
1029.584	-0.5
1029.797	-3.5
1030.011	-2.5
1030.224	-0.5
