Data from QEP037381__308__16-21-09-910.txt Node

Date: Fri Dec 16 16:21:09 EST 2022
User: dcclab
Spectrometer: QEP03738
Trigger mode: 4
Integration Time (sec): 1.000000E1
Scans to average: 1
Electric dark correction enabled: true
Nonlinearity correction enabled: false
Boxcar width: 0
XAxis mode: Wavelengths
Number of Pixels in Spectrum: 1044
>>>>>Begin Spectral Data<<<<<
784.041	14.75
784.3	-0.25
784.558	-1.25
784.817	-3.25
785.075	113383.75
785.334	19790.75
785.592	9338.75
785.851	6397.75
786.109	4788.75
786.368	3725.75
786.626	3042.75
786.884	2504.75
787.143	2067.75
787.401	1763.75
787.659	1557.75
787.917	1339.75
788.175	1211.75
788.433	1058.75
788.691	955.75
788.949	867.75
789.207	816.75
789.465	741.75
789.723	702.75
789.98	632.75
790.238	669.75
790.496	621.75
790.753	588.75
791.011	638.75
791.268	569.75
791.526	552.75
791.783	568.75
792.041	532.75
792.298	471.75
792.556	527.75
792.813	502.75
793.07	478.75
793.327	471.75
793.584	554.75
793.841	460.75
794.099	490.75
794.356	550.75
794.613	450.75
794.869	485.75
795.126	448.75
795.383	432.75
795.64	445.75
795.897	411.75
796.153	459.75
796.41	446.75
796.667	420.75
796.923	441.75
797.18	436.75
797.436	459.75
797.693	415.75
797.949	469.75
798.206	499.75
798.462	432.75
798.718	481.75
798.974	464.75
799.231	499.75
799.487	487.75
799.743	500.75
799.999	531.75
800.255	534.75
800.511	517.75
800.767	549.75
801.023	533.75
801.279	584.75
801.534	631.75
801.79	675.75
802.046	693.75
802.302	849.75
802.557	959.75
802.813	1231.75
803.068	1493.75
803.324	2052.75
803.579	2811.75
803.835	3883.75
804.09	5313.75
804.345	6942.75
804.601	8693.75
804.856	10496.75
805.111	12215.75
805.366	13345.75
805.621	14346.75
805.876	14873.75
806.131	15375.75
806.386	15685.75
806.641	15977.75
806.896	16278.75
807.151	16529.75
807.406	16707.75
807.661	17063.75
807.915	17394.75
808.17	17524.75
808.425	17787.75
808.679	18003.75
808.934	18116.75
809.188	18343.75
809.443	18484.75
809.697	18639.75
809.951	18833.75
810.206	18926.75
810.46	19165.75
810.714	19313.75
810.968	19545.75
811.223	19678.75
811.477	19813.75
811.731	20075.75
811.985	20068.75
812.239	20061.75
812.493	20250.75
812.747	20343.75
813	20384.75
813.254	20464.75
813.508	20554.75
813.762	20571.75
814.015	20818.75
814.269	20821.75
814.522	21003.75
814.776	21226.75
815.03	21499.75
815.283	21764.75
815.536	22124.75
815.79	22522.75
816.043	22726.75
816.296	23006.75
816.55	23320.75
816.803	23536.75
817.056	23952.75
817.309	24137.75
817.562	24245.75
817.815	24579.75
818.068	24656.75
818.321	24931.75
818.574	25218.75
818.827	25500.75
819.079	25783.75
819.332	26212.75
819.585	26493.75
819.838	26886.75
820.09	26922.75
820.343	27249.75
820.595	27402.75
820.848	27506.75
821.1	27645.75
821.353	27596.75
821.605	27602.75
821.857	27441.75
822.11	27274.75
822.362	27353.75
822.614	27260.75
822.866	27387.75
823.118	27338.75
823.37	27489.75
823.622	27566.75
823.874	27504.75
824.126	27726.75
824.378	27640.75
824.63	27753.75
824.882	27848.75
825.134	27762.75
825.385	27802.75
825.637	27604.75
825.888	27521.75
826.14	27536.75
826.392	27435.75
826.643	27233.75
826.895	27095.75
827.146	26935.75
827.397	26970.75
827.649	26985.75
827.9	26848.75
828.151	26914.75
828.402	26981.75
828.653	27115.75
828.905	27263.75
829.156	27089.75
829.407	27025.75
829.658	27286.75
829.909	27279.75
830.159	27274.75
830.41	27251.75
830.661	26980.75
830.912	26737.75
831.162	26640.75
831.413	26652.75
831.664	26669.75
831.914	26592.75
832.165	26558.75
832.415	26584.75
832.666	26464.75
832.916	26483.75
833.167	26495.75
833.417	26435.75
833.667	26379.75
833.917	26316.75
834.168	26283.75
834.418	26224.75
834.668	26031.75
834.918	25857.75
835.168	25815.75
835.418	25650.75
835.668	25531.75
835.918	25564.75
836.167	25562.75
836.417	25326.75
836.667	25449.75
836.917	25324.75
837.166	25332.75
837.416	25358.75
837.666	25382.75
837.915	25424.75
838.165	25245.75
838.414	25166.75
838.663	25124.75
838.913	25263.75
839.162	24997.75
839.411	25060.75
839.661	24971.75
839.91	24892.75
840.159	24832.75
840.408	24870.75
840.657	24837.75
840.906	24943.75
841.155	24941.75
841.404	24861.75
841.653	24861.75
841.902	24792.75
842.15	24925.75
842.399	24914.75
842.648	24930.75
842.897	24742.75
843.145	24591.75
843.394	24340.75
843.642	24319.75
843.891	24214.75
844.139	23967.75
844.388	23836.75
844.636	23759.75
844.884	23718.75
845.133	23716.75
845.381	23628.75
845.629	23714.75
845.877	23683.75
846.125	23740.75
846.373	23550.75
846.621	23624.75
846.869	23324.75
847.117	23298.75
847.365	23179.75
847.613	23099.75
847.861	22938.75
848.108	22940.75
848.356	22889.75
848.604	22883.75
848.851	22949.75
849.099	22886.75
849.346	22910.75
849.594	23038.75
849.841	23065.75
850.089	23023.75
850.336	22997.75
850.583	23046.75
850.831	22943.75
851.078	22832.75
851.325	22829.75
851.572	22935.75
851.819	22777.75
852.066	22308.75
852.313	22015.75
852.56	21779.75
852.807	21766.75
853.054	21669.75
853.301	21560.75
853.548	21633.75
853.794	21684.75
854.041	21724.75
854.288	21923.75
854.534	22015.75
854.781	21994.75
855.028	21967.75
855.274	22073.75
855.52	21907.75
855.767	21797.75
856.013	21826.75
856.26	22168.75
856.506	21551.75
856.752	21425.75
856.998	21517.75
857.244	21500.75
857.49	21723.75
857.736	21722.75
857.982	21691.75
858.228	21637.75
858.474	21446.75
858.72	21277.75
858.966	21121.75
859.212	20885.75
859.458	20624.75
859.703	20474.75
859.949	20197.75
860.195	20171.75
860.44	20064.75
860.686	19996.75
860.931	20040.75
861.177	19768.75
861.422	19656.75
861.667	19620.75
861.913	19623.75
862.158	19603.75
862.403	19655.75
862.648	19662.75
862.893	19738.75
863.138	19628.75
863.384	19574.75
863.629	19575.75
863.873	19553.75
864.118	19430.75
864.363	19368.75
864.608	19346.75
864.853	19319.75
865.098	19125.75
865.342	19032.75
865.587	18999.75
865.832	19046.75
866.076	18891.75
866.321	18961.75
866.565	18810.75
866.81	18641.75
867.054	18743.75
867.298	18604.75
867.543	18563.75
867.787	18548.75
868.031	18454.75
868.275	18534.75
868.519	18318.75
868.764	18402.75
869.008	18369.75
869.252	18419.75
869.496	18368.75
869.739	18173.75
869.983	18298.75
870.227	18293.75
870.471	18231.75
870.715	18306.75
870.958	18413.75
871.202	18375.75
871.446	18566.75
871.689	18454.75
871.933	18432.75
872.176	18288.75
872.42	18366.75
872.663	18401.75
872.906	18307.75
873.15	18353.75
873.393	18310.75
873.636	18356.75
873.879	18041.75
874.122	17973.75
874.366	17561.75
874.609	17487.75
874.852	17342.75
875.095	17214.75
875.337	17081.75
875.58	16985.75
875.823	16988.75
876.066	16949.75
876.309	16861.75
876.551	16709.75
876.794	16554.75
877.037	16615.75
877.279	16429.75
877.522	16463.75
877.764	16619.75
878.007	16390.75
878.249	16374.75
878.491	16363.75
878.734	16380.75
878.976	16268.75
879.218	16067.75
879.46	16054.75
879.702	15948.75
879.945	15829.75
880.187	15594.75
880.429	15627.75
880.671	15559.75
880.912	15372.75
881.154	15464.75
881.396	15342.75
881.638	15395.75
881.88	15368.75
882.121	15303.75
882.363	15288.75
882.605	15290.75
882.846	15198.75
883.088	15253.75
883.329	15269.75
883.571	15313.75
883.812	15489.75
884.053	15892.75
884.295	16195.75
884.536	16352.75
884.777	16285.75
885.018	16266.75
885.259	16112.75
885.5	15904.75
885.742	16010.75
885.982	15897.75
886.223	15666.75
886.464	15534.75
886.705	15345.75
886.946	15178.75
887.187	14797.75
887.428	14722.75
887.668	14477.75
887.909	14264.75
888.15	14056.75
888.39	14008.75
888.631	13944.75
888.871	13764.75
889.111	13710.75
889.352	13511.75
889.592	13515.75
889.833	13387.75
890.073	13249.75
890.313	13205.75
890.553	13066.75
890.793	13039.75
891.033	12935.75
891.273	12923.75
891.513	12787.75
891.753	12898.75
891.993	12797.75
892.233	12772.75
892.473	12915.75
892.713	12816.75
892.952	12868.75
893.192	12862.75
893.432	12873.75
893.671	12899.75
893.911	12722.75
894.15	12683.75
894.39	12547.75
894.629	12467.75
894.869	12423.75
895.108	12340.75
895.347	12336.75
895.587	12305.75
895.826	12236.75
896.065	12284.75
896.304	12264.75
896.543	12250.75
896.782	12056.75
897.021	12155.75
897.26	12080.75
897.499	12054.75
897.738	12106.75
897.977	11971.75
898.216	11895.75
898.454	11825.75
898.693	11663.75
898.932	11714.75
899.17	11641.75
899.409	11643.75
899.647	11630.75
899.886	11518.75
900.124	11668.75
900.363	11566.75
900.601	11645.75
900.839	11592.75
901.078	11734.75
901.316	11741.75
901.554	11799.75
901.792	11854.75
902.03	11848.75
902.268	11797.75
902.506	11910.75
902.744	11773.75
902.982	11750.75
903.22	11488.75
903.458	11296.75
903.695	11142.75
903.933	10969.75
904.171	10763.75
904.409	10602.75
904.646	10467.75
904.884	10251.75
905.121	10256.75
905.359	10127.75
905.596	9924.75
905.833	9890.75
906.071	9828.75
906.308	9856.75
906.545	9771.75
906.783	9721.75
907.02	9685.75
907.257	9674.75
907.494	9666.75
907.731	9597.75
907.968	9550.75
908.205	9551.75
908.442	9515.75
908.679	9411.75
908.915	9236.75
909.152	9245.75
909.389	9117.75
909.626	9094.75
909.862	8944.75
910.099	9019.75
910.335	8911.75
910.572	8840.75
910.808	8877.75
911.045	8798.75
911.281	8727.75
911.518	8777.75
911.754	8724.75
911.99	8666.75
912.226	8606.75
912.463	8512.75
912.699	8411.75
912.935	8309.75
913.171	8350.75
913.407	8260.75
913.643	8284.75
913.879	8156.75
914.114	8113.75
914.35	8005.75
914.586	7905.75
914.822	7847.75
915.057	7856.75
915.293	7711.75
915.529	7675.75
915.764	7763.75
916	7630.75
916.235	7669.75
916.471	7589.75
916.706	7614.75
916.941	7525.75
917.177	7576.75
917.412	7592.75
917.647	7556.75
917.882	7469.75
918.117	7526.75
918.352	7462.75
918.588	7500.75
918.823	7452.75
919.057	7342.75
919.292	7177.75
919.527	7285.75
919.762	7113.75
919.997	7094.75
920.232	6947.75
920.466	6934.75
920.701	6815.75
920.935	6804.75
921.17	6786.75
921.405	6736.75
921.639	6777.75
921.873	6692.75
922.108	6672.75
922.342	6647.75
922.576	6616.75
922.811	6569.75
923.045	6558.75
923.279	6560.75
923.513	6391.75
923.747	6438.75
923.981	6437.75
924.215	6328.75
924.449	6369.75
924.683	6333.75
924.917	6257.75
925.151	6283.75
925.385	6239.75
925.618	6199.75
925.852	6161.75
926.086	6165.75
926.319	6149.75
926.553	6124.75
926.786	6133.75
927.02	6173.75
927.253	6126.75
927.486	6141.75
927.72	6057.75
927.953	6052.75
928.186	6038.75
928.42	6082.75
928.653	6019.75
928.886	5937.75
929.119	5949.75
929.352	5898.75
929.585	5878.75
929.818	5845.75
930.051	5803.75
930.284	5713.75
930.516	5619.75
930.749	5632.75
930.982	5717.75
931.215	5614.75
931.447	5539.75
931.68	5568.75
931.912	5522.75
932.145	5510.75
932.377	5541.75
932.61	5672.75
932.842	5433.75
933.074	5518.75
933.307	5406.75
933.539	5566.75
933.771	5531.75
934.003	5452.75
934.236	5516.75
934.468	5572.75
934.7	5420.75
934.932	5503.75
935.164	5378.75
935.395	5383.75
935.627	5372.75
935.859	5427.75
936.091	5325.75
936.323	5339.75
936.554	5324.75
936.786	5273.75
937.017	5181.75
937.249	5265.75
937.481	5193.75
937.712	5225.75
937.943	5245.75
938.175	5155.75
938.406	5128.75
938.637	5244.75
938.869	5137.75
939.1	5168.75
939.331	5133.75
939.562	5141.75
939.793	5066.75
940.024	5148.75
940.255	5058.75
940.486	5012.75
940.717	4997.75
940.948	4978.75
941.179	4907.75
941.409	4913.75
941.64	4968.75
941.871	4933.75
942.102	4920.75
942.332	4915.75
942.563	4941.75
942.793	4904.75
943.024	4858.75
943.254	4880.75
943.484	4925.75
943.715	4919.75
943.945	4888.75
944.175	4811.75
944.405	4774.75
944.636	4804.75
944.866	4827.75
945.096	4863.75
945.326	4791.75
945.556	4820.75
945.786	4807.75
946.016	4733.75
946.245	4657.75
946.475	4687.75
946.705	4636.75
946.935	4651.75
947.164	4637.75
947.394	4585.75
947.624	4575.75
947.853	4530.75
948.083	4551.75
948.312	4450.75
948.542	4447.75
948.771	4351.75
949	4390.75
949.23	4400.75
949.459	4389.75
949.688	4482.75
949.917	4424.75
950.146	4370.75
950.375	4474.75
950.604	4351.75
950.833	4428.75
951.062	4382.75
951.291	4357.75
951.52	4313.75
951.749	4327.75
951.978	4250.75
952.206	4242.75
952.435	4239.75
952.664	4271.75
952.892	4287.75
953.121	4225.75
953.349	4288.75
953.578	4246.75
953.806	4167.75
954.035	4120.75
954.263	4162.75
954.491	4100.75
954.719	4158.75
954.948	4065.75
955.176	4036.75
955.404	4009.75
955.632	4031.75
955.86	3998.75
956.088	3988.75
956.316	4006.75
956.544	3975.75
956.772	3928.75
956.999	3900.75
957.227	3939.75
957.455	3856.75
957.683	3842.75
957.91	3823.75
958.138	3799.75
958.365	3793.75
958.593	3774.75
958.82	3686.75
959.048	3749.75
959.275	3717.75
959.502	3692.75
959.73	3656.75
959.957	3699.75
960.184	3711.75
960.411	3658.75
960.638	3754.75
960.865	3673.75
961.092	3669.75
961.319	3569.75
961.546	3714.75
961.773	3638.75
962	3611.75
962.227	3697.75
962.454	3641.75
962.68	3618.75
962.907	3561.75
963.134	3564.75
963.36	3543.75
963.587	3560.75
963.813	3450.75
964.04	3528.75
964.266	3437.75
964.493	3515.75
964.719	3473.75
964.945	3468.75
965.171	3344.75
965.398	3447.75
965.624	3379.75
965.85	3302.75
966.076	3330.75
966.302	3334.75
966.528	3279.75
966.754	3313.75
966.98	3277.75
967.206	3267.75
967.431	3222.75
967.657	3278.75
967.883	3269.75
968.109	3234.75
968.334	3177.75
968.56	3173.75
968.785	3216.75
969.011	3153.75
969.236	3189.75
969.462	3138.75
969.687	3128.75
969.912	3183.75
970.138	3203.75
970.363	3062.75
970.588	3105.75
970.813	3102.75
971.038	3060.75
971.263	3099.75
971.488	3093.75
971.713	3069.75
971.938	3081.75
972.163	2964.75
972.388	2996.75
972.613	2990.75
972.838	3009.75
973.062	2959.75
973.287	2949.75
973.512	2892.75
973.736	2970.75
973.961	2892.75
974.185	2871.75
974.41	2938.75
974.634	2825.75
974.858	2810.75
975.083	2856.75
975.307	2830.75
975.531	2810.75
975.755	2688.75
975.98	2757.75
976.204	2673.75
976.428	2671.75
976.652	2680.75
976.876	2669.75
977.1	2708.75
977.324	2621.75
977.547	2698.75
977.771	2657.75
977.995	2664.75
978.219	2593.75
978.442	2698.75
978.666	2617.75
978.89	2593.75
979.113	2658.75
979.337	2602.75
979.56	2557.75
979.783	2672.75
980.007	2519.75
980.23	2545.75
980.453	2528.75
980.677	2560.75
980.9	2528.75
981.123	2470.75
981.346	2535.75
981.569	2521.75
981.792	2506.75
982.015	2524.75
982.238	2459.75
982.461	2439.75
982.684	2438.75
982.907	2399.75
983.129	2424.75
983.352	2437.75
983.575	2357.75
983.797	2374.75
984.02	2334.75
984.242	2337.75
984.465	2359.75
984.687	2327.75
984.91	2345.75
985.132	2355.75
985.354	2359.75
985.577	2292.75
985.799	2270.75
986.021	2196.75
986.243	2231.75
986.465	2257.75
986.687	2296.75
986.909	2308.75
987.131	2265.75
987.353	2230.75
987.575	2249.75
987.797	2213.75
988.019	2178.75
988.241	2193.75
988.462	2169.75
988.684	2214.75
988.906	2233.75
989.127	2289.75
989.349	2184.75
989.57	2157.75
989.792	2177.75
990.013	2225.75
990.234	2197.75
990.456	2203.75
990.677	2219.75
990.898	2150.75
991.119	2140.75
991.341	2182.75
991.562	2098.75
991.783	2126.75
992.004	2058.75
992.225	2049.75
992.446	2115.75
992.667	1988.75
992.887	2073.75
993.108	1969.75
993.329	2085.75
993.55	2034.75
993.77	1971.75
993.991	1971.75
994.212	1995.75
994.432	1975.75
994.653	1985.75
994.873	1981.75
995.093	1852.75
995.314	1921.75
995.534	2012.75
995.754	2006.75
995.975	1980.75
996.195	1871.75
996.415	1939.75
996.635	1945.75
996.855	1945.75
997.075	1892.75
997.295	1942.75
997.515	1879.75
997.735	1943.75
997.955	1906.75
998.174	1903.75
998.394	1861.75
998.614	1921.75
998.834	1862.75
999.053	1965.75
999.273	1882.75
999.492	1924.75
999.712	1897.75
999.931	1844.75
1000.151	1872.75
1000.37	1844.75
1000.589	1869.75
1000.809	1836.75
1001.028	1928.75
1001.247	1844.75
1001.466	1746.75
1001.685	1906.75
1001.904	1791.75
1002.123	1801.75
1002.342	1800.75
1002.561	1751.75
1002.78	1785.75
1002.999	1826.75
1003.218	1770.75
1003.436	1733.75
1003.655	1814.75
1003.874	1735.75
1004.092	1760.75
1004.311	1774.75
1004.53	1723.75
1004.748	1813.75
1004.966	1741.75
1005.185	1770.75
1005.403	1770.75
1005.622	1765.75
1005.84	1815.75
1006.058	1745.75
1006.276	1740.75
1006.494	2221.75
1006.712	1721.75
1006.931	1821.75
1007.149	1703.75
1007.367	1716.75
1007.584	1763.75
1007.802	1771.75
1008.02	1748.75
1008.238	1835.75
1008.456	1824.75
1008.673	1710.75
1008.891	1860.75
1009.109	1794.75
1009.326	1862.75
1009.544	1940.75
1009.761	1882.75
1009.979	1967.75
1010.196	2025.75
1010.413	2157.75
1010.631	2215.75
1010.848	2267.75
1011.065	2298.75
1011.282	2233.75
1011.5	2181.75
1011.717	2265.75
1011.934	2225.75
1012.151	2222.75
1012.368	2180.75
1012.585	2135.75
1012.801	2233.75
1013.018	2154.75
1013.235	2153.75
1013.452	2163.75
1013.669	2212.75
1013.885	2210.75
1014.102	2220.75
1014.318	2165.75
1014.535	2166.75
1014.751	2174.75
1014.968	2183.75
1015.184	2187.75
1015.401	2038.75
1015.617	2113.75
1015.833	2034.75
1016.049	2048.75
1016.266	2036.75
1016.482	2032.75
1016.698	1971.75
1016.914	2007.75
1017.13	1937.75
1017.346	1899.75
1017.562	1978.75
1017.778	1891.75
1017.993	1852.75
1018.209	1927.75
1018.425	1940.75
1018.641	1863.75
1018.856	1817.75
1019.072	1847.75
1019.288	1953.75
1019.503	1856.75
1019.719	1783.75
1019.934	1788.75
1020.149	1857.75
1020.365	1823.75
1020.58	1705.75
1020.795	1789.75
1021.011	1715.75
1021.226	1662.75
1021.441	1676.75
1021.656	1602.75
1021.871	1514.75
1022.086	1516.75
1022.301	1507.75
1022.516	1495.75
1022.731	1527.75
1022.946	1443.75
1023.16	1425.75
1023.375	1396.75
1023.59	1350.75
1023.804	1318.75
1024.019	1404.75
1024.234	1263.75
1024.448	1281.75
1024.663	1210.75
1024.877	1209.75
1025.092	1234.75
1025.306	1208.75
1025.52	1098.75
1025.734	1194.75
1025.949	1123.75
1026.163	1066.75
1026.377	1026.75
1026.591	1051.75
1026.805	986.75
1027.019	952.75
1027.233	957.75
1027.447	883.75
1027.661	987.75
1027.875	922.75
1028.088	925.75
1028.302	851.75
1028.516	844.75
1028.73	832.75
1028.943	811.75
1029.157	756.75
1029.37	712.75
1029.584	-1.25
1029.797	-2.25
1030.011	-1.25
1030.224	-5.25
