Data from QEP037381__265__16-13-59-904.txt Node

Date: Fri Dec 16 16:13:59 EST 2022
User: dcclab
Spectrometer: QEP03738
Trigger mode: 4
Integration Time (sec): 1.000000E1
Scans to average: 1
Electric dark correction enabled: true
Nonlinearity correction enabled: false
Boxcar width: 0
XAxis mode: Wavelengths
Number of Pixels in Spectrum: 1044
>>>>>Begin Spectral Data<<<<<
784.041	10.38
784.3	1.38
784.558	0.38
784.817	-5.62
785.075	106630.38
785.334	18388.38
785.592	8649.38
785.851	5939.38
786.109	4492.38
786.368	3511.38
786.626	2819.38
786.884	2347.38
787.143	1952.38
787.401	1636.38
787.659	1465.38
787.917	1240.38
788.175	1156.38
788.433	1004.38
788.691	917.38
788.949	847.38
789.207	823.38
789.465	693.38
789.723	691.38
789.98	614.38
790.238	672.38
790.496	632.38
790.753	588.38
791.011	637.38
791.268	570.38
791.526	546.38
791.783	546.38
792.041	549.38
792.298	460.38
792.556	520.38
792.813	503.38
793.07	498.38
793.327	483.38
793.584	552.38
793.841	474.38
794.099	480.38
794.356	557.38
794.613	455.38
794.869	502.38
795.126	453.38
795.383	440.38
795.64	465.38
795.897	413.38
796.153	473.38
796.41	457.38
796.667	428.38
796.923	452.38
797.18	439.38
797.436	469.38
797.693	450.38
797.949	488.38
798.206	522.38
798.462	453.38
798.718	507.38
798.974	474.38
799.231	516.38
799.487	513.38
799.743	516.38
799.999	556.38
800.255	560.38
800.511	556.38
800.767	589.38
801.023	599.38
801.279	618.38
801.534	679.38
801.79	734.38
802.046	771.38
802.302	948.38
802.557	1103.38
802.813	1381.38
803.068	1742.38
803.324	2458.38
803.579	3387.38
803.835	4609.38
804.09	6469.38
804.345	8365.38
804.601	10471.38
804.856	12698.38
805.111	14763.38
805.366	16319.38
805.621	17441.38
805.876	18148.38
806.131	18742.38
806.386	19046.38
806.641	19392.38
806.896	19762.38
807.151	20175.38
807.406	20416.38
807.661	20912.38
807.915	21236.38
808.17	21652.38
808.425	21770.38
808.679	21923.38
808.934	22211.38
809.188	22439.38
809.443	22746.38
809.697	22901.38
809.951	23123.38
810.206	23347.38
810.46	23482.38
810.714	23659.38
810.968	23927.38
811.223	24086.38
811.477	24435.38
811.731	24599.38
811.985	24655.38
812.239	24725.38
812.493	24935.38
812.747	24986.38
813	24997.38
813.254	25324.38
813.508	25304.38
813.762	25492.38
814.015	25476.38
814.269	25684.38
814.522	25953.38
814.776	26260.38
815.03	26690.38
815.283	26923.38
815.536	27424.38
815.79	27741.38
816.043	28318.38
816.296	28572.38
816.55	28966.38
816.803	29222.38
817.056	29673.38
817.309	29896.38
817.562	30141.38
817.815	30415.38
818.068	30635.38
818.321	31031.38
818.574	31412.38
818.827	31739.38
819.079	32025.38
819.332	32760.38
819.585	33091.38
819.838	33439.38
820.09	33560.38
820.343	34050.38
820.595	34066.38
820.848	34279.38
821.1	34516.38
821.353	34406.38
821.605	34301.38
821.857	34457.38
822.11	34335.38
822.362	34205.38
822.614	34033.38
822.866	34169.38
823.118	33937.38
823.37	34261.38
823.622	34447.38
823.874	34613.38
824.126	34614.38
824.378	34605.38
824.63	34693.38
824.882	34890.38
825.134	34759.38
825.385	34700.38
825.637	34618.38
825.888	34483.38
826.14	34455.38
826.392	34424.38
826.643	34068.38
826.895	34160.38
827.146	34021.38
827.397	33800.38
827.649	33914.38
827.9	33982.38
828.151	33900.38
828.402	33948.38
828.653	34212.38
828.905	34163.38
829.156	34210.38
829.407	34257.38
829.658	34141.38
829.909	34433.38
830.159	34334.38
830.41	34117.38
830.661	34029.38
830.912	33727.38
831.162	33556.38
831.413	33585.38
831.664	33535.38
831.914	33566.38
832.165	33425.38
832.415	33460.38
832.666	33520.38
832.916	33419.38
833.167	33353.38
833.417	33520.38
833.667	33384.38
833.917	33288.38
834.168	33205.38
834.418	33129.38
834.668	32961.38
834.918	32761.38
835.168	32605.38
835.418	32467.38
835.668	32379.38
835.918	32235.38
836.167	32343.38
836.417	32216.38
836.667	32279.38
836.917	32206.38
837.166	32040.38
837.416	32221.38
837.666	32279.38
837.915	32128.38
838.165	32030.38
838.414	31915.38
838.663	31974.38
838.913	31976.38
839.162	31755.38
839.411	31871.38
839.661	31672.38
839.91	31547.38
840.159	31478.38
840.408	31495.38
840.657	31375.38
840.906	31420.38
841.155	31446.38
841.404	31433.38
841.653	31624.38
841.902	31595.38
842.15	31617.38
842.399	31577.38
842.648	31581.38
842.897	31505.38
843.145	31121.38
843.394	31046.38
843.642	30816.38
843.891	30624.38
844.139	30531.38
844.388	30488.38
844.636	30199.38
844.884	30324.38
845.133	30282.38
845.381	30223.38
845.629	30314.38
845.877	30186.38
846.125	30036.38
846.373	30199.38
846.621	30034.38
846.869	29994.38
847.117	29647.38
847.365	29645.38
847.613	29426.38
847.861	29277.38
848.108	29408.38
848.356	29247.38
848.604	29089.38
848.851	29309.38
849.099	29239.38
849.346	29378.38
849.594	29397.38
849.841	29545.38
850.089	29511.38
850.336	29616.38
850.583	29544.38
850.831	29426.38
851.078	29104.38
851.325	29200.38
851.572	29274.38
851.819	29119.38
852.066	28633.38
852.313	28220.38
852.56	27919.38
852.807	27820.38
853.054	27740.38
853.301	27668.38
853.548	27751.38
853.794	27870.38
854.041	27869.38
854.288	28082.38
854.534	28347.38
854.781	28300.38
855.028	28135.38
855.274	28091.38
855.52	28022.38
855.767	27957.38
856.013	27914.38
856.26	28377.38
856.506	27650.38
856.752	27667.38
856.998	27519.38
857.244	27617.38
857.49	27815.38
857.736	27871.38
857.982	27921.38
858.228	27842.38
858.474	27572.38
858.72	27272.38
858.966	27025.38
859.212	26871.38
859.458	26612.38
859.703	26421.38
859.949	26017.38
860.195	25897.38
860.44	25791.38
860.686	25742.38
860.931	25813.38
861.177	25540.38
861.422	25502.38
861.667	25314.38
861.913	25409.38
862.158	25357.38
862.403	25371.38
862.648	25517.38
862.893	25485.38
863.138	25499.38
863.384	25354.38
863.629	25494.38
863.873	25368.38
864.118	25231.38
864.363	25020.38
864.608	25199.38
864.853	25016.38
865.098	24899.38
865.342	24916.38
865.587	24679.38
865.832	24722.38
866.076	24676.38
866.321	24512.38
866.565	24513.38
866.81	24314.38
867.054	24280.38
867.298	24254.38
867.543	24120.38
867.787	24079.38
868.031	24105.38
868.275	23990.38
868.519	23962.38
868.764	23918.38
869.008	23874.38
869.252	23822.38
869.496	23709.38
869.739	23710.38
869.983	23664.38
870.227	23768.38
870.471	23695.38
870.715	23749.38
870.958	23840.38
871.202	23854.38
871.446	23854.38
871.689	23807.38
871.933	23920.38
872.176	23768.38
872.42	23798.38
872.663	23730.38
872.906	23707.38
873.15	23702.38
873.393	23631.38
873.636	23590.38
873.879	23355.38
874.122	23025.38
874.366	22783.38
874.609	22611.38
874.852	22296.38
875.095	22293.38
875.337	22282.38
875.58	22090.38
875.823	21919.38
876.066	22019.38
876.309	21883.38
876.551	21625.38
876.794	21689.38
877.037	21680.38
877.279	21463.38
877.522	21429.38
877.764	21595.38
878.007	21476.38
878.249	21490.38
878.491	21393.38
878.734	21390.38
878.976	21303.38
879.218	21097.38
879.46	21127.38
879.702	20936.38
879.945	20766.38
880.187	20495.38
880.429	20453.38
880.671	20305.38
880.912	20353.38
881.154	20319.38
881.396	20114.38
881.638	20281.38
881.88	20200.38
882.121	20095.38
882.363	20217.38
882.605	20144.38
882.846	20103.38
883.088	19963.38
883.329	20002.38
883.571	20046.38
883.812	20168.38
884.053	20564.38
884.295	20961.38
884.536	21091.38
884.777	21010.38
885.018	20833.38
885.259	20756.38
885.5	20660.38
885.742	20680.38
885.982	20446.38
886.223	20219.38
886.464	20246.38
886.705	19984.38
886.946	19975.38
887.187	19496.38
887.428	19391.38
887.668	18950.38
887.909	18768.38
888.15	18543.38
888.39	18422.38
888.631	18255.38
888.871	18123.38
889.111	17988.38
889.352	17946.38
889.592	17867.38
889.833	17690.38
890.073	17459.38
890.313	17488.38
890.553	17221.38
890.793	17211.38
891.033	17235.38
891.273	17007.38
891.513	16970.38
891.753	17023.38
891.993	16889.38
892.233	16995.38
892.473	17141.38
892.713	17118.38
892.952	16981.38
893.192	17026.38
893.432	16899.38
893.671	16989.38
893.911	16798.38
894.15	16797.38
894.39	16653.38
894.629	16537.38
894.869	16519.38
895.108	16367.38
895.347	16262.38
895.587	16253.38
895.826	16205.38
896.065	16238.38
896.304	16204.38
896.543	16132.38
896.782	16061.38
897.021	16120.38
897.26	15976.38
897.499	16018.38
897.738	16041.38
897.977	15879.38
898.216	15726.38
898.454	15669.38
898.693	15504.38
898.932	15492.38
899.17	15461.38
899.409	15417.38
899.647	15325.38
899.886	15268.38
900.124	15322.38
900.363	15304.38
900.601	15372.38
900.839	15405.38
901.078	15468.38
901.316	15462.38
901.554	15577.38
901.792	15602.38
902.03	15516.38
902.268	15637.38
902.506	15563.38
902.744	15384.38
902.982	15356.38
903.22	15084.38
903.458	14848.38
903.695	14649.38
903.933	14448.38
904.171	14183.38
904.409	14046.38
904.646	13821.38
904.884	13656.38
905.121	13594.38
905.359	13350.38
905.596	13279.38
905.833	13132.38
906.071	13061.38
906.308	13065.38
906.545	12981.38
906.783	12842.38
907.02	12879.38
907.257	12823.38
907.494	12842.38
907.731	12701.38
907.968	12686.38
908.205	12572.38
908.442	12495.38
908.679	12513.38
908.915	12441.38
909.152	12282.38
909.389	12091.38
909.626	12107.38
909.862	12082.38
910.099	11931.38
910.335	11980.38
910.572	11822.38
910.808	11807.38
911.045	11756.38
911.281	11657.38
911.518	11692.38
911.754	11557.38
911.99	11538.38
912.226	11440.38
912.463	11344.38
912.699	11196.38
912.935	11191.38
913.171	11057.38
913.407	10945.38
913.643	10979.38
913.879	10851.38
914.114	10773.38
914.35	10649.38
914.586	10605.38
914.822	10440.38
915.057	10477.38
915.293	10251.38
915.529	10199.38
915.764	10340.38
916	10219.38
916.235	10168.38
916.471	10194.38
916.706	10153.38
916.941	10195.38
917.177	10143.38
917.412	10080.38
917.647	10112.38
917.882	9976.38
918.117	10031.38
918.352	9940.38
918.588	9944.38
918.823	9846.38
919.057	9739.38
919.292	9596.38
919.527	9627.38
919.762	9481.38
919.997	9424.38
920.232	9225.38
920.466	9276.38
920.701	9115.38
920.935	9132.38
921.17	8998.38
921.405	8962.38
921.639	8977.38
921.873	8923.38
922.108	8883.38
922.342	8923.38
922.576	8758.38
922.811	8731.38
923.045	8856.38
923.279	8755.38
923.513	8516.38
923.747	8642.38
923.981	8520.38
924.215	8450.38
924.449	8461.38
924.683	8358.38
924.917	8303.38
925.151	8265.38
925.385	8332.38
925.618	8238.38
925.852	8234.38
926.086	8149.38
926.319	8246.38
926.553	8143.38
926.786	8174.38
927.02	8184.38
927.253	8157.38
927.486	8189.38
927.72	8090.38
927.953	8067.38
928.186	8009.38
928.42	8117.38
928.653	7956.38
928.886	7882.38
929.119	7963.38
929.352	7897.38
929.585	7807.38
929.818	7746.38
930.051	7765.38
930.284	7712.38
930.516	7543.38
930.749	7501.38
930.982	7490.38
931.215	7477.38
931.447	7344.38
931.68	7357.38
931.912	7308.38
932.145	7307.38
932.377	7339.38
932.61	7454.38
932.842	7263.38
933.074	7346.38
933.307	7196.38
933.539	7298.38
933.771	7306.38
934.003	7274.38
934.236	7289.38
934.468	7325.38
934.7	7172.38
934.932	7271.38
935.164	7166.38
935.395	7104.38
935.627	7197.38
935.859	7130.38
936.091	7104.38
936.323	7100.38
936.554	7088.38
936.786	7043.38
937.017	6978.38
937.249	6911.38
937.481	6867.38
937.712	6878.38
937.943	6832.38
938.175	6860.38
938.406	6893.38
938.637	6963.38
938.869	6807.38
939.1	6857.38
939.331	6799.38
939.562	6843.38
939.793	6733.38
940.024	6742.38
940.255	6719.38
940.486	6651.38
940.717	6641.38
940.948	6612.38
941.179	6562.38
941.409	6576.38
941.64	6517.38
941.871	6518.38
942.102	6559.38
942.332	6461.38
942.563	6496.38
942.793	6514.38
943.024	6484.38
943.254	6561.38
943.484	6496.38
943.715	6516.38
943.945	6487.38
944.175	6408.38
944.405	6419.38
944.636	6375.38
944.866	6379.38
945.096	6392.38
945.326	6300.38
945.556	6376.38
945.786	6378.38
946.016	6293.38
946.245	6184.38
946.475	6182.38
946.705	6200.38
946.935	6106.38
947.164	6106.38
947.394	6016.38
947.624	5995.38
947.853	6042.38
948.083	6011.38
948.312	5963.38
948.542	5847.38
948.771	5858.38
949	5863.38
949.23	5833.38
949.459	5855.38
949.688	5916.38
949.917	5787.38
950.146	5819.38
950.375	5851.38
950.604	5707.38
950.833	5880.38
951.062	5803.38
951.291	5722.38
951.52	5649.38
951.749	5720.38
951.978	5674.38
952.206	5635.38
952.435	5609.38
952.664	5668.38
952.892	5654.38
953.121	5609.38
953.349	5598.38
953.578	5560.38
953.806	5495.38
954.035	5416.38
954.263	5428.38
954.491	5384.38
954.719	5457.38
954.948	5339.38
955.176	5307.38
955.404	5290.38
955.632	5283.38
955.86	5299.38
956.088	5313.38
956.316	5288.38
956.544	5224.38
956.772	5152.38
956.999	5142.38
957.227	5229.38
957.455	5091.38
957.683	5073.38
957.91	5050.38
958.138	4984.38
958.365	4976.38
958.593	4948.38
958.82	4929.38
959.048	4953.38
959.275	4900.38
959.502	4940.38
959.73	4861.38
959.957	4857.38
960.184	4906.38
960.411	4825.38
960.638	4887.38
960.865	4819.38
961.092	4783.38
961.319	4726.38
961.546	4820.38
961.773	4812.38
962	4801.38
962.227	4784.38
962.454	4728.38
962.68	4724.38
962.907	4715.38
963.134	4678.38
963.36	4648.38
963.587	4626.38
963.813	4557.38
964.04	4595.38
964.266	4469.38
964.493	4590.38
964.719	4507.38
964.945	4486.38
965.171	4405.38
965.398	4456.38
965.624	4462.38
965.85	4386.38
966.076	4340.38
966.302	4377.38
966.528	4335.38
966.754	4329.38
966.98	4272.38
967.206	4320.38
967.431	4254.38
967.657	4281.38
967.883	4256.38
968.109	4264.38
968.334	4183.38
968.56	4178.38
968.785	4147.38
969.011	4076.38
969.236	4189.38
969.462	4124.38
969.687	4105.38
969.912	4105.38
970.138	4160.38
970.363	4040.38
970.588	4082.38
970.813	4040.38
971.038	3979.38
971.263	4016.38
971.488	4029.38
971.713	4006.38
971.938	3965.38
972.163	3906.38
972.388	3933.38
972.613	3865.38
972.838	3854.38
973.062	3884.38
973.287	3845.38
973.512	3787.38
973.736	3830.38
973.961	3753.38
974.185	3708.38
974.41	3766.38
974.634	3651.38
974.858	3669.38
975.083	3681.38
975.307	3663.38
975.531	3607.38
975.755	3543.38
975.98	3571.38
976.204	3494.38
976.428	3470.38
976.652	3470.38
976.876	3480.38
977.1	3461.38
977.324	3412.38
977.547	3508.38
977.771	3478.38
977.995	3406.38
978.219	3376.38
978.442	3475.38
978.666	3371.38
978.89	3399.38
979.113	3331.38
979.337	3350.38
979.56	3336.38
979.783	3394.38
980.007	3325.38
980.23	3332.38
980.453	3240.38
980.677	3308.38
980.9	3275.38
981.123	3147.38
981.346	3267.38
981.569	3203.38
981.792	3237.38
982.015	3189.38
982.238	3120.38
982.461	3138.38
982.684	3086.38
982.907	3088.38
983.129	3078.38
983.352	3085.38
983.575	3077.38
983.797	3049.38
984.02	3020.38
984.242	3003.38
984.465	3003.38
984.687	2955.38
984.91	3007.38
985.132	2994.38
985.354	2992.38
985.577	2945.38
985.799	2928.38
986.021	2839.38
986.243	2844.38
986.465	2849.38
986.687	2902.38
986.909	2955.38
987.131	2900.38
987.353	2875.38
987.575	2897.38
987.797	2851.38
988.019	2730.38
988.241	2840.38
988.462	2748.38
988.684	2821.38
988.906	2837.38
989.127	2838.38
989.349	2737.38
989.57	2766.38
989.792	2772.38
990.013	2771.38
990.234	2761.38
990.456	2794.38
990.677	2753.38
990.898	2681.38
991.119	2721.38
991.341	2721.38
991.562	2628.38
991.783	2686.38
992.004	2618.38
992.225	2564.38
992.446	2645.38
992.667	2503.38
992.887	2584.38
993.108	2486.38
993.329	2598.38
993.55	2532.38
993.77	2489.38
993.991	2415.38
994.212	2525.38
994.432	2456.38
994.653	2472.38
994.873	2512.38
995.093	2372.38
995.314	2375.38
995.534	2450.38
995.754	2462.38
995.975	2478.38
996.195	2358.38
996.415	2427.38
996.635	2407.38
996.855	2387.38
997.075	2368.38
997.295	2364.38
997.515	2325.38
997.735	2399.38
997.955	2367.38
998.174	2365.38
998.394	2304.38
998.614	2380.38
998.834	2312.38
999.053	2354.38
999.273	2322.38
999.492	2389.38
999.712	2303.38
999.931	2281.38
1000.151	2284.38
1000.37	2252.38
1000.589	2336.38
1000.809	2230.38
1001.028	2344.38
1001.247	2291.38
1001.466	2162.38
1001.685	2286.38
1001.904	2190.38
1002.123	2207.38
1002.342	2182.38
1002.561	2136.38
1002.78	2166.38
1002.999	2225.38
1003.218	2168.38
1003.436	2114.38
1003.655	2168.38
1003.874	2101.38
1004.092	2120.38
1004.311	2173.38
1004.53	2102.38
1004.748	2168.38
1004.966	2097.38
1005.185	2161.38
1005.403	2101.38
1005.622	2097.38
1005.84	2181.38
1006.058	2047.38
1006.276	2081.38
1006.494	2593.38
1006.712	2075.38
1006.931	2135.38
1007.149	2062.38
1007.367	2075.38
1007.584	2078.38
1007.802	2139.38
1008.02	2092.38
1008.238	2207.38
1008.456	2166.38
1008.673	2069.38
1008.891	2198.38
1009.109	2163.38
1009.326	2222.38
1009.544	2335.38
1009.761	2244.38
1009.979	2334.38
1010.196	2374.38
1010.413	2502.38
1010.631	2575.38
1010.848	2665.38
1011.065	2683.38
1011.282	2633.38
1011.5	2541.38
1011.717	2671.38
1011.934	2601.38
1012.151	2635.38
1012.368	2592.38
1012.585	2545.38
1012.801	2593.38
1013.018	2564.38
1013.235	2545.38
1013.452	2548.38
1013.669	2565.38
1013.885	2556.38
1014.102	2581.38
1014.318	2574.38
1014.535	2542.38
1014.751	2576.38
1014.968	2544.38
1015.184	2575.38
1015.401	2426.38
1015.617	2492.38
1015.833	2400.38
1016.049	2428.38
1016.266	2353.38
1016.482	2364.38
1016.698	2288.38
1016.914	2326.38
1017.13	2260.38
1017.346	2255.38
1017.562	2355.38
1017.778	2217.38
1017.993	2214.38
1018.209	2247.38
1018.425	2200.38
1018.641	2174.38
1018.856	2174.38
1019.072	2196.38
1019.288	2247.38
1019.503	2221.38
1019.719	2111.38
1019.934	2132.38
1020.149	2160.38
1020.365	2086.38
1020.58	2054.38
1020.795	2049.38
1021.011	1991.38
1021.226	1969.38
1021.441	1961.38
1021.656	1853.38
1021.871	1793.38
1022.086	1734.38
1022.301	1757.38
1022.516	1734.38
1022.731	1750.38
1022.946	1662.38
1023.16	1615.38
1023.375	1591.38
1023.59	1583.38
1023.804	1525.38
1024.019	1619.38
1024.234	1478.38
1024.448	1498.38
1024.663	1431.38
1024.877	1400.38
1025.092	1428.38
1025.306	1431.38
1025.52	1292.38
1025.734	1378.38
1025.949	1287.38
1026.163	1263.38
1026.377	1171.38
1026.591	1219.38
1026.805	1117.38
1027.019	1153.38
1027.233	1088.38
1027.447	1042.38
1027.661	1146.38
1027.875	1065.38
1028.088	1073.38
1028.302	984.38
1028.516	961.38
1028.73	961.38
1028.943	933.38
1029.157	865.38
1029.37	820.38
1029.584	-3.62
1029.797	-0.62
1030.011	-0.62
1030.224	-1.62
