Data from QEP037381__246__16-10-49-902.txt Node

Date: Fri Dec 16 16:10:49 EST 2022
User: dcclab
Spectrometer: QEP03738
Trigger mode: 4
Integration Time (sec): 1.000000E1
Scans to average: 1
Electric dark correction enabled: true
Nonlinearity correction enabled: false
Boxcar width: 0
XAxis mode: Wavelengths
Number of Pixels in Spectrum: 1044
>>>>>Begin Spectral Data<<<<<
784.041	11.62
784.3	-3.38
784.558	-6.38
784.817	-1.38
785.075	111520.62
785.334	19372.62
785.592	9102.62
785.851	6276.62
786.109	4672.62
786.368	3632.62
786.626	2941.62
786.884	2447.62
787.143	2042.62
787.401	1693.62
787.659	1530.62
787.917	1295.62
788.175	1185.62
788.433	1038.62
788.691	935.62
788.949	862.62
789.207	813.62
789.465	707.62
789.723	697.62
789.98	634.62
790.238	648.62
790.496	625.62
790.753	600.62
791.011	640.62
791.268	581.62
791.526	554.62
791.783	567.62
792.041	550.62
792.298	459.62
792.556	545.62
792.813	514.62
793.07	479.62
793.327	481.62
793.584	566.62
793.841	490.62
794.099	498.62
794.356	561.62
794.613	480.62
794.869	511.62
795.126	466.62
795.383	449.62
795.64	472.62
795.897	415.62
796.153	479.62
796.41	466.62
796.667	452.62
796.923	455.62
797.18	465.62
797.436	487.62
797.693	448.62
797.949	507.62
798.206	541.62
798.462	455.62
798.718	523.62
798.974	498.62
799.231	541.62
799.487	527.62
799.743	560.62
799.999	587.62
800.255	574.62
800.511	570.62
800.767	641.62
801.023	615.62
801.279	674.62
801.534	703.62
801.79	784.62
802.046	853.62
802.302	1050.62
802.557	1218.62
802.813	1528.62
803.068	1941.62
803.324	2739.62
803.579	3778.62
803.835	5238.62
804.09	7223.62
804.345	9432.62
804.601	12025.62
804.856	14596.62
805.111	16864.62
805.366	18764.62
805.621	20028.62
805.876	20945.62
806.131	21633.62
806.386	21994.62
806.641	22320.62
806.896	22706.62
807.151	23221.62
807.406	23591.62
807.661	24142.62
807.915	24606.62
808.17	24726.62
808.425	25126.62
808.679	25223.62
808.934	25589.62
809.188	25789.62
809.443	25969.62
809.697	26422.62
809.951	26642.62
810.206	26899.62
810.46	27013.62
810.714	27296.62
810.968	27570.62
811.223	27727.62
811.477	27991.62
811.731	28178.62
811.985	28388.62
812.239	28571.62
812.493	28717.62
812.747	28769.62
813	28941.62
813.254	28980.62
813.508	29117.62
813.762	29362.62
814.015	29469.62
814.269	29614.62
814.522	29799.62
814.776	30236.62
815.03	30712.62
815.283	31131.62
815.536	31595.62
815.79	32057.62
816.043	32455.62
816.296	32920.62
816.55	33205.62
816.803	33607.62
817.056	34172.62
817.309	34283.62
817.562	34648.62
817.815	34989.62
818.068	35364.62
818.321	35705.62
818.574	36113.62
818.827	36693.62
819.079	36984.62
819.332	37599.62
819.585	38099.62
819.838	38490.62
820.09	38716.62
820.343	39069.62
820.595	39112.62
820.848	39427.62
821.1	39724.62
821.353	39628.62
821.605	39672.62
821.857	39574.62
822.11	39373.62
822.362	39402.62
822.614	39337.62
822.866	39286.62
823.118	39242.62
823.37	39433.62
823.622	39412.62
823.874	39776.62
824.126	39733.62
824.378	39848.62
824.63	39853.62
824.882	40089.62
825.134	39912.62
825.385	39980.62
825.637	39936.62
825.888	39749.62
826.14	39673.62
826.392	39580.62
826.643	39341.62
826.895	39260.62
827.146	39197.62
827.397	39072.62
827.649	39083.62
827.9	38876.62
828.151	38983.62
828.402	39169.62
828.653	39283.62
828.905	39406.62
829.156	39419.62
829.407	39399.62
829.658	39447.62
829.909	39499.62
830.159	39411.62
830.41	39295.62
830.661	39165.62
830.912	38693.62
831.162	38773.62
831.413	38613.62
831.664	38573.62
831.914	38689.62
832.165	38501.62
832.415	38468.62
832.666	38602.62
832.916	38616.62
833.167	38488.62
833.417	38508.62
833.667	38306.62
833.917	38362.62
834.168	38212.62
834.418	38095.62
834.668	37954.62
834.918	37870.62
835.168	37668.62
835.418	37425.62
835.668	37427.62
835.918	37302.62
836.167	37145.62
836.417	37034.62
836.667	36937.62
836.917	37015.62
837.166	36955.62
837.416	36983.62
837.666	37012.62
837.915	36960.62
838.165	36957.62
838.414	36743.62
838.663	36662.62
838.913	36687.62
839.162	36605.62
839.411	36602.62
839.661	36484.62
839.91	36213.62
840.159	36266.62
840.408	36251.62
840.657	36233.62
840.906	36328.62
841.155	36260.62
841.404	36220.62
841.653	36331.62
841.902	36284.62
842.15	36363.62
842.399	36338.62
842.648	36296.62
842.897	36097.62
843.145	35981.62
843.394	35684.62
843.642	35563.62
843.891	35444.62
844.139	35129.62
844.388	34964.62
844.636	34807.62
844.884	34775.62
845.133	34816.62
845.381	34790.62
845.629	34844.62
845.877	34757.62
846.125	34748.62
846.373	34644.62
846.621	34488.62
846.869	34476.62
847.117	34176.62
847.365	34055.62
847.613	33881.62
847.861	33765.62
848.108	33773.62
848.356	33638.62
848.604	33569.62
848.851	33639.62
849.099	33655.62
849.346	33871.62
849.594	33844.62
849.841	34002.62
850.089	33970.62
850.336	34162.62
850.583	33964.62
850.831	33669.62
851.078	33609.62
851.325	33649.62
851.572	33713.62
851.819	33259.62
852.066	32768.62
852.313	32317.62
852.56	32149.62
852.807	32051.62
853.054	31881.62
853.301	31951.62
853.548	31783.62
853.794	32086.62
854.041	32110.62
854.288	32217.62
854.534	32678.62
854.781	32459.62
855.028	32369.62
855.274	32514.62
855.52	32221.62
855.767	32144.62
856.013	32196.62
856.26	32382.62
856.506	31905.62
856.752	31716.62
856.998	31888.62
857.244	31774.62
857.49	31959.62
857.736	32107.62
857.982	31923.62
858.228	31977.62
858.474	31725.62
858.72	31484.62
858.966	31275.62
859.212	30813.62
859.458	30576.62
859.703	30344.62
859.949	30049.62
860.195	29854.62
860.44	29657.62
860.686	29598.62
860.931	29649.62
861.177	29384.62
861.422	29286.62
861.667	29131.62
861.913	29247.62
862.158	29176.62
862.403	29170.62
862.648	29261.62
862.893	29443.62
863.138	29276.62
863.384	29251.62
863.629	29245.62
863.873	29122.62
864.118	29153.62
864.363	28996.62
864.608	28820.62
864.853	28752.62
865.098	28511.62
865.342	28591.62
865.587	28308.62
865.832	28380.62
866.076	28336.62
866.321	28247.62
866.565	28058.62
866.81	27931.62
867.054	27992.62
867.298	27821.62
867.543	27685.62
867.787	27751.62
868.031	27576.62
868.275	27616.62
868.519	27647.62
868.764	27408.62
869.008	27440.62
869.252	27352.62
869.496	27297.62
869.739	27314.62
869.983	27336.62
870.227	27099.62
870.471	27169.62
870.715	27309.62
870.958	27376.62
871.202	27470.62
871.446	27426.62
871.689	27466.62
871.933	27590.62
872.176	27440.62
872.42	27362.62
872.663	27286.62
872.906	27207.62
873.15	27144.62
873.393	27118.62
873.636	27148.62
873.879	26825.62
874.122	26521.62
874.366	26140.62
874.609	26080.62
874.852	25803.62
875.095	25580.62
875.337	25501.62
875.58	25410.62
875.823	25317.62
876.066	25220.62
876.309	25246.62
876.551	24992.62
876.794	24904.62
877.037	24908.62
877.279	24781.62
877.522	24859.62
877.764	24766.62
878.007	24823.62
878.249	24747.62
878.491	24595.62
878.734	24683.62
878.976	24495.62
879.218	24220.62
879.46	24239.62
879.702	24084.62
879.945	23933.62
880.187	23605.62
880.429	23687.62
880.671	23439.62
880.912	23402.62
881.154	23351.62
881.396	23173.62
881.638	23229.62
881.88	23248.62
882.121	23180.62
882.363	23149.62
882.605	23079.62
882.846	23036.62
883.088	23014.62
883.329	22982.62
883.571	22908.62
883.812	23130.62
884.053	23656.62
884.295	24021.62
884.536	24309.62
884.777	24082.62
885.018	23806.62
885.259	23743.62
885.5	23603.62
885.742	23811.62
885.982	23564.62
886.223	23323.62
886.464	23195.62
886.705	23008.62
886.946	22878.62
887.187	22414.62
887.428	22108.62
887.668	21851.62
887.909	21661.62
888.15	21416.62
888.39	21237.62
888.631	21044.62
888.871	20894.62
889.111	20789.62
889.352	20565.62
889.592	20474.62
889.833	20393.62
890.073	20224.62
890.313	19999.62
890.553	19922.62
890.793	19791.62
891.033	19731.62
891.273	19524.62
891.513	19659.62
891.753	19557.62
891.993	19472.62
892.233	19605.62
892.473	19693.62
892.713	19585.62
892.952	19639.62
893.192	19568.62
893.432	19519.62
893.671	19486.62
893.911	19410.62
894.15	19384.62
894.39	19247.62
894.629	19026.62
894.869	18980.62
895.108	18918.62
895.347	18771.62
895.587	18714.62
895.826	18697.62
896.065	18638.62
896.304	18633.62
896.543	18684.62
896.782	18420.62
897.021	18425.62
897.26	18410.62
897.499	18430.62
897.738	18370.62
897.977	18150.62
898.216	18070.62
898.454	17872.62
898.693	17820.62
898.932	17792.62
899.17	17583.62
899.409	17681.62
899.647	17670.62
899.886	17625.62
900.124	17594.62
900.363	17576.62
900.601	17609.62
900.839	17618.62
901.078	17738.62
901.316	17800.62
901.554	17835.62
901.792	17934.62
902.03	17796.62
902.268	17851.62
902.506	17856.62
902.744	17655.62
902.982	17577.62
903.22	17368.62
903.458	17041.62
903.695	16848.62
903.933	16648.62
904.171	16370.62
904.409	16156.62
904.646	15826.62
904.884	15697.62
905.121	15515.62
905.359	15404.62
905.596	15171.62
905.833	15123.62
906.071	14982.62
906.308	14979.62
906.545	14963.62
906.783	14755.62
907.02	14884.62
907.257	14810.62
907.494	14828.62
907.731	14699.62
907.968	14554.62
908.205	14506.62
908.442	14365.62
908.679	14311.62
908.915	14198.62
909.152	14138.62
909.389	13982.62
909.626	14007.62
909.862	13908.62
910.099	13837.62
910.335	13785.62
910.572	13553.62
910.808	13617.62
911.045	13589.62
911.281	13472.62
911.518	13540.62
911.754	13328.62
911.99	13328.62
912.226	13187.62
912.463	13041.62
912.699	13053.62
912.935	12897.62
913.171	12848.62
913.407	12596.62
913.643	12613.62
913.879	12508.62
914.114	12329.62
914.35	12255.62
914.586	12096.62
914.822	12033.62
915.057	12015.62
915.293	11828.62
915.529	11753.62
915.764	11824.62
916	11823.62
916.235	11748.62
916.471	11650.62
916.706	11657.62
916.941	11635.62
917.177	11591.62
917.412	11601.62
917.647	11549.62
917.882	11477.62
918.117	11554.62
918.352	11438.62
918.588	11453.62
918.823	11338.62
919.057	11208.62
919.292	11057.62
919.527	11022.62
919.762	10872.62
919.997	10892.62
920.232	10728.62
920.466	10670.62
920.701	10451.62
920.935	10462.62
921.17	10439.62
921.405	10302.62
921.639	10345.62
921.873	10296.62
922.108	10207.62
922.342	10203.62
922.576	10145.62
922.811	10048.62
923.045	10123.62
923.279	10047.62
923.513	9910.62
923.747	9996.62
923.981	9858.62
924.215	9681.62
924.449	9672.62
924.683	9612.62
924.917	9639.62
925.151	9566.62
925.385	9555.62
925.618	9512.62
925.852	9478.62
926.086	9395.62
926.319	9341.62
926.553	9366.62
926.786	9382.62
927.02	9318.62
927.253	9394.62
927.486	9319.62
927.72	9294.62
927.953	9332.62
928.186	9235.62
928.42	9223.62
928.653	9068.62
928.886	9032.62
929.119	9106.62
929.352	9072.62
929.585	8969.62
929.818	8858.62
930.051	8875.62
930.284	8780.62
930.516	8594.62
930.749	8642.62
930.982	8611.62
931.215	8516.62
931.447	8453.62
931.68	8441.62
931.912	8395.62
932.145	8397.62
932.377	8434.62
932.61	8591.62
932.842	8404.62
933.074	8382.62
933.307	8414.62
933.539	8433.62
933.771	8379.62
934.003	8311.62
934.236	8331.62
934.468	8410.62
934.7	8342.62
934.932	8307.62
935.164	8205.62
935.395	8182.62
935.627	8198.62
935.859	8208.62
936.091	8121.62
936.323	8159.62
936.554	8146.62
936.786	8049.62
937.017	7982.62
937.249	7999.62
937.481	7897.62
937.712	7914.62
937.943	7939.62
938.175	7920.62
938.406	7899.62
938.637	7842.62
938.869	7817.62
939.1	7852.62
939.331	7773.62
939.562	7732.62
939.793	7675.62
940.024	7724.62
940.255	7667.62
940.486	7615.62
940.717	7580.62
940.948	7560.62
941.179	7504.62
941.409	7528.62
941.64	7441.62
941.871	7450.62
942.102	7469.62
942.332	7435.62
942.563	7474.62
942.793	7522.62
943.024	7379.62
943.254	7388.62
943.484	7477.62
943.715	7483.62
943.945	7384.62
944.175	7295.62
944.405	7289.62
944.636	7292.62
944.866	7329.62
945.096	7296.62
945.326	7219.62
945.556	7259.62
945.786	7242.62
946.016	7147.62
946.245	7046.62
946.475	7050.62
946.705	6990.62
946.935	7015.62
947.164	6969.62
947.394	6957.62
947.624	6800.62
947.853	6839.62
948.083	6783.62
948.312	6770.62
948.542	6718.62
948.771	6690.62
949	6703.62
949.23	6666.62
949.459	6685.62
949.688	6736.62
949.917	6664.62
950.146	6671.62
950.375	6739.62
950.604	6603.62
950.833	6645.62
951.062	6600.62
951.291	6598.62
951.52	6471.62
951.749	6502.62
951.978	6506.62
952.206	6438.62
952.435	6465.62
952.664	6444.62
952.892	6461.62
953.121	6354.62
953.349	6427.62
953.578	6346.62
953.806	6264.62
954.035	6238.62
954.263	6178.62
954.491	6141.62
954.719	6238.62
954.948	6119.62
955.176	6115.62
955.404	5977.62
955.632	6057.62
955.86	6029.62
956.088	5999.62
956.316	6021.62
956.544	6001.62
956.772	5827.62
956.999	5802.62
957.227	5913.62
957.455	5778.62
957.683	5785.62
957.91	5708.62
958.138	5686.62
958.365	5677.62
958.593	5630.62
958.82	5595.62
959.048	5623.62
959.275	5629.62
959.502	5569.62
959.73	5557.62
959.957	5557.62
960.184	5562.62
960.411	5502.62
960.638	5540.62
960.865	5506.62
961.092	5531.62
961.319	5436.62
961.546	5488.62
961.773	5523.62
962	5426.62
962.227	5472.62
962.454	5381.62
962.68	5384.62
962.907	5383.62
963.134	5298.62
963.36	5293.62
963.587	5301.62
963.813	5200.62
964.04	5198.62
964.266	5063.62
964.493	5178.62
964.719	5105.62
964.945	5097.62
965.171	4942.62
965.398	5028.62
965.624	5046.62
965.85	4950.62
966.076	4920.62
966.302	4977.62
966.528	4892.62
966.754	4891.62
966.98	4855.62
967.206	4873.62
967.431	4833.62
967.657	4856.62
967.883	4854.62
968.109	4798.62
968.334	4711.62
968.56	4692.62
968.785	4687.62
969.011	4686.62
969.236	4756.62
969.462	4614.62
969.687	4673.62
969.912	4714.62
970.138	4661.62
970.363	4574.62
970.588	4583.62
970.813	4587.62
971.038	4502.62
971.263	4580.62
971.488	4554.62
971.713	4536.62
971.938	4511.62
972.163	4435.62
972.388	4398.62
972.613	4363.62
972.838	4388.62
973.062	4391.62
973.287	4349.62
973.512	4269.62
973.736	4310.62
973.961	4249.62
974.185	4253.62
974.41	4313.62
974.634	4187.62
974.858	4134.62
975.083	4176.62
975.307	4160.62
975.531	4085.62
975.755	4048.62
975.98	4019.62
976.204	3993.62
976.428	3951.62
976.652	3973.62
976.876	3947.62
977.1	3921.62
977.324	3882.62
977.547	3915.62
977.771	3936.62
977.995	3879.62
978.219	3790.62
978.442	3950.62
978.666	3856.62
978.89	3859.62
979.113	3831.62
979.337	3761.62
979.56	3747.62
979.783	3821.62
980.007	3731.62
980.23	3759.62
980.453	3681.62
980.677	3705.62
980.9	3686.62
981.123	3584.62
981.346	3702.62
981.569	3631.62
981.792	3649.62
982.015	3631.62
982.238	3534.62
982.461	3582.62
982.684	3489.62
982.907	3471.62
983.129	3469.62
983.352	3501.62
983.575	3446.62
983.797	3484.62
984.02	3389.62
984.242	3372.62
984.465	3328.62
984.687	3384.62
984.91	3408.62
985.132	3370.62
985.354	3337.62
985.577	3313.62
985.799	3270.62
986.021	3214.62
986.243	3229.62
986.465	3252.62
986.687	3275.62
986.909	3337.62
987.131	3222.62
987.353	3189.62
987.575	3222.62
987.797	3174.62
988.019	3107.62
988.241	3176.62
988.462	3114.62
988.684	3128.62
988.906	3184.62
989.127	3161.62
989.349	3029.62
989.57	3057.62
989.792	3114.62
990.013	3101.62
990.234	3133.62
990.456	3099.62
990.677	3078.62
990.898	3071.62
991.119	2992.62
991.341	3024.62
991.562	2955.62
991.783	3009.62
992.004	2923.62
992.225	2891.62
992.446	2920.62
992.667	2872.62
992.887	2883.62
993.108	2764.62
993.329	2912.62
993.55	2844.62
993.77	2777.62
993.991	2755.62
994.212	2774.62
994.432	2776.62
994.653	2741.62
994.873	2789.62
995.093	2630.62
995.314	2702.62
995.534	2734.62
995.754	2749.62
995.975	2727.62
996.195	2657.62
996.415	2663.62
996.635	2650.62
996.855	2696.62
997.075	2625.62
997.295	2632.62
997.515	2597.62
997.735	2617.62
997.955	2589.62
998.174	2618.62
998.394	2554.62
998.614	2643.62
998.834	2556.62
999.053	2622.62
999.273	2588.62
999.492	2650.62
999.712	2584.62
999.931	2499.62
1000.151	2573.62
1000.37	2517.62
1000.589	2546.62
1000.809	2493.62
1001.028	2592.62
1001.247	2511.62
1001.466	2405.62
1001.685	2508.62
1001.904	2468.62
1002.123	2446.62
1002.342	2414.62
1002.561	2381.62
1002.78	2401.62
1002.999	2448.62
1003.218	2367.62
1003.436	2382.62
1003.655	2392.62
1003.874	2302.62
1004.092	2314.62
1004.311	2390.62
1004.53	2308.62
1004.748	2382.62
1004.966	2333.62
1005.185	2330.62
1005.403	2315.62
1005.622	2298.62
1005.84	2379.62
1006.058	2270.62
1006.276	2293.62
1006.494	2766.62
1006.712	2259.62
1006.931	2372.62
1007.149	2261.62
1007.367	2267.62
1007.584	2263.62
1007.802	2349.62
1008.02	2271.62
1008.238	2405.62
1008.456	2358.62
1008.673	2241.62
1008.891	2383.62
1009.109	2342.62
1009.326	2437.62
1009.544	2540.62
1009.761	2434.62
1009.979	2536.62
1010.196	2614.62
1010.413	2769.62
1010.631	2831.62
1010.848	2911.62
1011.065	2931.62
1011.282	2866.62
1011.5	2788.62
1011.717	2894.62
1011.934	2837.62
1012.151	2836.62
1012.368	2825.62
1012.585	2765.62
1012.801	2792.62
1013.018	2769.62
1013.235	2733.62
1013.452	2793.62
1013.669	2803.62
1013.885	2788.62
1014.102	2831.62
1014.318	2789.62
1014.535	2747.62
1014.751	2734.62
1014.968	2768.62
1015.184	2760.62
1015.401	2649.62
1015.617	2663.62
1015.833	2580.62
1016.049	2616.62
1016.266	2569.62
1016.482	2550.62
1016.698	2482.62
1016.914	2499.62
1017.13	2424.62
1017.346	2430.62
1017.562	2523.62
1017.778	2412.62
1017.993	2379.62
1018.209	2397.62
1018.425	2403.62
1018.641	2349.62
1018.856	2324.62
1019.072	2360.62
1019.288	2413.62
1019.503	2340.62
1019.719	2219.62
1019.934	2246.62
1020.149	2352.62
1020.365	2267.62
1020.58	2189.62
1020.795	2209.62
1021.011	2156.62
1021.226	2071.62
1021.441	2109.62
1021.656	1997.62
1021.871	1910.62
1022.086	1920.62
1022.301	1897.62
1022.516	1845.62
1022.731	1889.62
1022.946	1763.62
1023.16	1792.62
1023.375	1735.62
1023.59	1721.62
1023.804	1661.62
1024.019	1726.62
1024.234	1594.62
1024.448	1628.62
1024.663	1518.62
1024.877	1541.62
1025.092	1526.62
1025.306	1509.62
1025.52	1391.62
1025.734	1490.62
1025.949	1386.62
1026.163	1354.62
1026.377	1277.62
1026.591	1327.62
1026.805	1232.62
1027.019	1205.62
1027.233	1162.62
1027.447	1117.62
1027.661	1215.62
1027.875	1157.62
1028.088	1131.62
1028.302	1062.62
1028.516	1032.62
1028.73	1033.62
1028.943	1007.62
1029.157	950.62
1029.37	876.62
1029.584	-0.38
1029.797	0.62
1030.011	-1.38
1030.224	0.62
