Data from QEP037381__243__16-10-19-901.txt Node

Date: Fri Dec 16 16:10:19 EST 2022
User: dcclab
Spectrometer: QEP03738
Trigger mode: 4
Integration Time (sec): 1.000000E1
Scans to average: 1
Electric dark correction enabled: true
Nonlinearity correction enabled: false
Boxcar width: 0
XAxis mode: Wavelengths
Number of Pixels in Spectrum: 1044
>>>>>Begin Spectral Data<<<<<
784.041	10.38
784.3	0.38
784.558	-2.62
784.817	-3.62
785.075	106893.38
785.334	18595.38
785.592	8624.38
785.851	6039.38
786.109	4504.38
786.368	3497.38
786.626	2873.38
786.884	2345.38
787.143	1991.38
787.401	1634.38
787.659	1464.38
787.917	1265.38
788.175	1160.38
788.433	999.38
788.691	916.38
788.949	852.38
789.207	802.38
789.465	710.38
789.723	687.38
789.98	635.38
790.238	653.38
790.496	625.38
790.753	597.38
791.011	650.38
791.268	569.38
791.526	566.38
791.783	561.38
792.041	551.38
792.298	492.38
792.556	536.38
792.813	537.38
793.07	505.38
793.327	501.38
793.584	587.38
793.841	502.38
794.099	508.38
794.356	575.38
794.613	484.38
794.869	525.38
795.126	457.38
795.383	454.38
795.64	483.38
795.897	438.38
796.153	498.38
796.41	474.38
796.667	463.38
796.923	471.38
797.18	468.38
797.436	512.38
797.693	471.38
797.949	522.38
798.206	562.38
798.462	471.38
798.718	537.38
798.974	519.38
799.231	547.38
799.487	546.38
799.743	583.38
799.999	611.38
800.255	599.38
800.511	603.38
800.767	661.38
801.023	659.38
801.279	709.38
801.534	782.38
801.79	846.38
802.046	935.38
802.302	1114.38
802.557	1320.38
802.813	1673.38
803.068	2198.38
803.324	3077.38
803.579	4278.38
803.835	5950.38
804.09	8298.38
804.345	10903.38
804.601	13754.38
804.856	16751.38
805.111	19328.38
805.366	21312.38
805.621	22896.38
805.876	23990.38
806.131	24690.38
806.386	25205.38
806.641	25756.38
806.896	26004.38
807.151	26569.38
807.406	26967.38
807.661	27505.38
807.915	28080.38
808.17	28397.38
808.425	28723.38
808.679	28967.38
808.934	29440.38
809.188	29656.38
809.443	29995.38
809.697	30266.38
809.951	30500.38
810.206	30777.38
810.46	31070.38
810.714	31275.38
810.968	31840.38
811.223	31849.38
811.477	32083.38
811.731	32506.38
811.985	32614.38
812.239	32645.38
812.493	32977.38
812.747	33119.38
813	33176.38
813.254	33338.38
813.508	33389.38
813.762	33587.38
814.015	33769.38
814.269	34212.38
814.522	34420.38
814.776	34880.38
815.03	35281.38
815.283	35712.38
815.536	36346.38
815.79	36882.38
816.043	37428.38
816.296	38009.38
816.55	38367.38
816.803	38779.38
817.056	39479.38
817.309	39566.38
817.562	40061.38
817.815	40468.38
818.068	40711.38
818.321	41305.38
818.574	41659.38
818.827	42309.38
819.079	42700.38
819.332	43569.38
819.585	44003.38
819.838	44485.38
820.09	44672.38
820.343	45266.38
820.595	45342.38
820.848	45462.38
821.1	45810.38
821.353	45828.38
821.605	45827.38
821.857	45828.38
822.11	45663.38
822.362	45585.38
822.614	45569.38
822.866	45604.38
823.118	45527.38
823.37	45671.38
823.622	45727.38
823.874	45903.38
824.126	46129.38
824.378	46139.38
824.63	46185.38
824.882	46579.38
825.134	46377.38
825.385	46221.38
825.637	46324.38
825.888	46178.38
826.14	45959.38
826.392	45824.38
826.643	45641.38
826.895	45464.38
827.146	45328.38
827.397	45269.38
827.649	45356.38
827.9	45267.38
828.151	45387.38
828.402	45300.38
828.653	45624.38
828.905	45519.38
829.156	45610.38
829.407	45665.38
829.658	45677.38
829.909	45671.38
830.159	45476.38
830.41	45288.38
830.661	45156.38
830.912	44793.38
831.162	44649.38
831.413	44708.38
831.664	44636.38
831.914	44607.38
832.165	44597.38
832.415	44574.38
832.666	44493.38
832.916	44443.38
833.167	44546.38
833.417	44460.38
833.667	44152.38
833.917	44272.38
834.168	44188.38
834.418	43930.38
834.668	43863.38
834.918	43570.38
835.168	43573.38
835.418	43282.38
835.668	43120.38
835.918	42949.38
836.167	42972.38
836.417	42726.38
836.667	42916.38
836.917	42769.38
837.166	42810.38
837.416	42826.38
837.666	42709.38
837.915	42708.38
838.165	42370.38
838.414	42534.38
838.663	42275.38
838.913	42240.38
839.162	42200.38
839.411	42115.38
839.661	41947.38
839.91	41797.38
840.159	41740.38
840.408	41643.38
840.657	41668.38
840.906	41703.38
841.155	41663.38
841.404	41594.38
841.653	41696.38
841.902	41801.38
842.15	41907.38
842.399	41785.38
842.648	41634.38
842.897	41468.38
843.145	41287.38
843.394	41017.38
843.642	40900.38
843.891	40621.38
844.139	40509.38
844.388	40213.38
844.636	40151.38
844.884	40065.38
845.133	39822.38
845.381	39996.38
845.629	40023.38
845.877	39800.38
846.125	39894.38
846.373	39740.38
846.621	39683.38
846.869	39430.38
847.117	39296.38
847.365	39059.38
847.613	38932.38
847.861	38709.38
848.108	38769.38
848.356	38450.38
848.604	38421.38
848.851	38648.38
849.099	38561.38
849.346	38602.38
849.594	38823.38
849.841	38995.38
850.089	38987.38
850.336	39054.38
850.583	38957.38
850.831	38705.38
851.078	38593.38
851.325	38521.38
851.572	38563.38
851.819	38208.38
852.066	37542.38
852.313	37119.38
852.56	36895.38
852.807	36789.38
853.054	36461.38
853.301	36414.38
853.548	36554.38
853.794	36691.38
854.041	36776.38
854.288	36928.38
854.534	37208.38
854.781	37048.38
855.028	36944.38
855.274	36906.38
855.52	36658.38
855.767	36357.38
856.013	36473.38
856.26	36673.38
856.506	36142.38
856.752	35995.38
856.998	36171.38
857.244	36106.38
857.49	36409.38
857.736	36423.38
857.982	36402.38
858.228	36161.38
858.474	36035.38
858.72	35849.38
858.966	35610.38
859.212	35185.38
859.458	34871.38
859.703	34453.38
859.949	34135.38
860.195	34079.38
860.44	33801.38
860.686	33547.38
860.931	33683.38
861.177	33381.38
861.422	33443.38
861.667	33229.38
861.913	33334.38
862.158	33291.38
862.403	33480.38
862.648	33402.38
862.893	33487.38
863.138	33382.38
863.384	33294.38
863.629	33415.38
863.873	33237.38
864.118	33058.38
864.363	33049.38
864.608	32792.38
864.853	32755.38
865.098	32427.38
865.342	32428.38
865.587	32377.38
865.832	32276.38
866.076	32150.38
866.321	32004.38
866.565	32064.38
866.81	31618.38
867.054	31842.38
867.298	31566.38
867.543	31437.38
867.787	31588.38
868.031	31500.38
868.275	31164.38
868.519	31485.38
868.764	31235.38
869.008	31188.38
869.252	31156.38
869.496	31001.38
869.739	30917.38
869.983	30955.38
870.227	30876.38
870.471	30736.38
870.715	30880.38
870.958	30989.38
871.202	30918.38
871.446	31028.38
871.689	30973.38
871.933	30980.38
872.176	30917.38
872.42	30772.38
872.663	30785.38
872.906	30750.38
873.15	30594.38
873.393	30335.38
873.636	30262.38
873.879	29977.38
874.122	29891.38
874.366	29372.38
874.609	29191.38
874.852	29030.38
875.095	28870.38
875.337	28733.38
875.58	28683.38
875.823	28521.38
876.066	28374.38
876.309	28407.38
876.551	28129.38
876.794	28021.38
877.037	28030.38
877.279	27943.38
877.522	27969.38
877.764	28029.38
878.007	27860.38
878.249	27826.38
878.491	27810.38
878.734	27761.38
878.976	27665.38
879.218	27517.38
879.46	27330.38
879.702	27137.38
879.945	26968.38
880.187	26772.38
880.429	26693.38
880.671	26529.38
880.912	26367.38
881.154	26313.38
881.396	26181.38
881.638	26272.38
881.88	26196.38
882.121	26127.38
882.363	26148.38
882.605	26033.38
882.846	25914.38
883.088	25971.38
883.329	25764.38
883.571	25824.38
883.812	25968.38
884.053	26004.38
884.295	26432.38
884.536	26566.38
884.777	26469.38
885.018	26381.38
885.259	26327.38
885.5	26111.38
885.742	26306.38
885.982	26082.38
886.223	25948.38
886.464	25798.38
886.705	25578.38
886.946	25463.38
887.187	24992.38
887.428	24870.38
887.668	24492.38
887.909	24258.38
888.15	23993.38
888.39	23894.38
888.631	23650.38
888.871	23495.38
889.111	23294.38
889.352	23265.38
889.592	23109.38
889.833	22925.38
890.073	22684.38
890.313	22680.38
890.553	22401.38
890.793	22278.38
891.033	22206.38
891.273	22026.38
891.513	22004.38
891.753	22025.38
891.993	21850.38
892.233	22060.38
892.473	21976.38
892.713	22081.38
892.952	22036.38
893.192	22119.38
893.432	21944.38
893.671	21896.38
893.911	21765.38
894.15	21704.38
894.39	21611.38
894.629	21431.38
894.869	21333.38
895.108	21133.38
895.347	21013.38
895.587	21159.38
895.826	21003.38
896.065	20968.38
896.304	20979.38
896.543	20841.38
896.782	20774.38
897.021	20783.38
897.26	20716.38
897.499	20760.38
897.738	20621.38
897.977	20460.38
898.216	20257.38
898.454	20078.38
898.693	19939.38
898.932	19952.38
899.17	19800.38
899.409	19710.38
899.647	19742.38
899.886	19711.38
900.124	19750.38
900.363	19696.38
900.601	19707.38
900.839	19671.38
901.078	19725.38
901.316	19815.38
901.554	19849.38
901.792	19900.38
902.03	19794.38
902.268	19808.38
902.506	19806.38
902.744	19617.38
902.982	19641.38
903.22	19262.38
903.458	19079.38
903.695	18723.38
903.933	18486.38
904.171	18199.38
904.409	17934.38
904.646	17762.38
904.884	17525.38
905.121	17420.38
905.359	17211.38
905.596	17002.38
905.833	16865.38
906.071	16815.38
906.308	16794.38
906.545	16790.38
906.783	16626.38
907.02	16650.38
907.257	16543.38
907.494	16524.38
907.731	16431.38
907.968	16352.38
908.205	16247.38
908.442	16119.38
908.679	16010.38
908.915	15872.38
909.152	15718.38
909.389	15722.38
909.626	15612.38
909.862	15389.38
910.099	15419.38
910.335	15421.38
910.572	15248.38
910.808	15221.38
911.045	15166.38
911.281	15120.38
911.518	15114.38
911.754	14963.38
911.99	14852.38
912.226	14769.38
912.463	14554.38
912.699	14502.38
912.935	14370.38
913.171	14320.38
913.407	14207.38
913.643	14150.38
913.879	13887.38
914.114	13800.38
914.35	13677.38
914.586	13589.38
914.822	13423.38
915.057	13415.38
915.293	13382.38
915.529	13205.38
915.764	13148.38
916	13222.38
916.235	13069.38
916.471	13145.38
916.706	13020.38
916.941	12954.38
917.177	12921.38
917.412	12966.38
917.647	12976.38
917.882	12855.38
918.117	12874.38
918.352	12875.38
918.588	12796.38
918.823	12646.38
919.057	12588.38
919.292	12381.38
919.527	12275.38
919.762	12182.38
919.997	12107.38
920.232	11957.38
920.466	11881.38
920.701	11668.38
920.935	11667.38
921.17	11549.38
921.405	11533.38
921.639	11594.38
921.873	11420.38
922.108	11410.38
922.342	11394.38
922.576	11309.38
922.811	11206.38
923.045	11188.38
923.279	11268.38
923.513	11088.38
923.747	11115.38
923.981	10951.38
924.215	10811.38
924.449	10828.38
924.683	10797.38
924.917	10587.38
925.151	10591.38
925.385	10672.38
925.618	10524.38
925.852	10527.38
926.086	10449.38
926.319	10522.38
926.553	10520.38
926.786	10434.38
927.02	10361.38
927.253	10411.38
927.486	10435.38
927.72	10326.38
927.953	10363.38
928.186	10320.38
928.42	10268.38
928.653	10208.38
928.886	10121.38
929.119	10073.38
929.352	10111.38
929.585	9902.38
929.818	9833.38
930.051	9842.38
930.284	9829.38
930.516	9696.38
930.749	9589.38
930.982	9538.38
931.215	9602.38
931.447	9429.38
931.68	9402.38
931.912	9374.38
932.145	9380.38
932.377	9315.38
932.61	9503.38
932.842	9247.38
933.074	9325.38
933.307	9297.38
933.539	9335.38
933.771	9359.38
934.003	9260.38
934.236	9328.38
934.468	9328.38
934.7	9248.38
934.932	9277.38
935.164	9137.38
935.395	9203.38
935.627	9096.38
935.859	9086.38
936.091	8972.38
936.323	9028.38
936.554	9022.38
936.786	8971.38
937.017	8835.38
937.249	8861.38
937.481	8790.38
937.712	8901.38
937.943	8766.38
938.175	8723.38
938.406	8708.38
938.637	8813.38
938.869	8677.38
939.1	8716.38
939.331	8640.38
939.562	8697.38
939.793	8551.38
940.024	8600.38
940.255	8570.38
940.486	8470.38
940.717	8379.38
940.948	8415.38
941.179	8274.38
941.409	8306.38
941.64	8236.38
941.871	8328.38
942.102	8271.38
942.332	8297.38
942.563	8324.38
942.793	8230.38
943.024	8225.38
943.254	8267.38
943.484	8236.38
943.715	8233.38
943.945	8223.38
944.175	8108.38
944.405	8152.38
944.636	8116.38
944.866	8170.38
945.096	8165.38
945.326	8056.38
945.556	8092.38
945.786	8067.38
946.016	7994.38
946.245	7800.38
946.475	7811.38
946.705	7844.38
946.935	7781.38
947.164	7720.38
947.394	7590.38
947.624	7582.38
947.853	7630.38
948.083	7551.38
948.312	7523.38
948.542	7423.38
948.771	7366.38
949	7447.38
949.23	7346.38
949.459	7431.38
949.688	7422.38
949.917	7357.38
950.146	7378.38
950.375	7425.38
950.604	7245.38
950.833	7338.38
951.062	7389.38
951.291	7264.38
951.52	7252.38
951.749	7310.38
951.978	7117.38
952.206	7125.38
952.435	7161.38
952.664	7160.38
952.892	7129.38
953.121	7068.38
953.349	7068.38
953.578	7009.38
953.806	7022.38
954.035	6920.38
954.263	6948.38
954.491	6840.38
954.719	6838.38
954.948	6789.38
955.176	6744.38
955.404	6630.38
955.632	6765.38
955.86	6699.38
956.088	6670.38
956.316	6707.38
956.544	6614.38
956.772	6494.38
956.999	6451.38
957.227	6562.38
957.455	6423.38
957.683	6392.38
957.91	6346.38
958.138	6315.38
958.365	6321.38
958.593	6241.38
958.82	6175.38
959.048	6194.38
959.275	6188.38
959.502	6137.38
959.73	6126.38
959.957	6105.38
960.184	6174.38
960.411	6118.38
960.638	6178.38
960.865	6067.38
961.092	6075.38
961.319	5984.38
961.546	6037.38
961.773	6046.38
962	6005.38
962.227	6104.38
962.454	5948.38
962.68	5954.38
962.907	5948.38
963.134	5895.38
963.36	5820.38
963.587	5884.38
963.813	5782.38
964.04	5804.38
964.266	5696.38
964.493	5729.38
964.719	5745.38
964.945	5638.38
965.171	5520.38
965.398	5559.38
965.624	5566.38
965.85	5473.38
966.076	5493.38
966.302	5455.38
966.528	5380.38
966.754	5425.38
966.98	5360.38
967.206	5368.38
967.431	5316.38
967.657	5344.38
967.883	5329.38
968.109	5292.38
968.334	5264.38
968.56	5253.38
968.785	5235.38
969.011	5166.38
969.236	5196.38
969.462	5114.38
969.687	5133.38
969.912	5144.38
970.138	5173.38
970.363	5023.38
970.588	5086.38
970.813	5042.38
971.038	5037.38
971.263	5026.38
971.488	5017.38
971.713	5018.38
971.938	4945.38
972.163	4841.38
972.388	4904.38
972.613	4839.38
972.838	4899.38
973.062	4823.38
973.287	4791.38
973.512	4695.38
973.736	4762.38
973.961	4699.38
974.185	4667.38
974.41	4667.38
974.634	4588.38
974.858	4566.38
975.083	4618.38
975.307	4576.38
975.531	4469.38
975.755	4431.38
975.98	4471.38
976.204	4340.38
976.428	4386.38
976.652	4319.38
976.876	4274.38
977.1	4335.38
977.324	4265.38
977.547	4359.38
977.771	4361.38
977.995	4233.38
978.219	4204.38
978.442	4315.38
978.666	4229.38
978.89	4216.38
979.113	4228.38
979.337	4179.38
979.56	4096.38
979.783	4200.38
980.007	4109.38
980.23	4116.38
980.453	4058.38
980.677	4112.38
980.9	4086.38
981.123	3997.38
981.346	4033.38
981.569	3966.38
981.792	3989.38
982.015	3962.38
982.238	3916.38
982.461	3915.38
982.684	3884.38
982.907	3831.38
983.129	3755.38
983.352	3846.38
983.575	3803.38
983.797	3797.38
984.02	3720.38
984.242	3714.38
984.465	3644.38
984.687	3716.38
984.91	3686.38
985.132	3689.38
985.354	3698.38
985.577	3665.38
985.799	3608.38
986.021	3524.38
986.243	3548.38
986.465	3578.38
986.687	3589.38
986.909	3569.38
987.131	3542.38
987.353	3514.38
987.575	3510.38
987.797	3505.38
988.019	3400.38
988.241	3416.38
988.462	3392.38
988.684	3459.38
988.906	3479.38
989.127	3501.38
989.349	3356.38
989.57	3397.38
989.792	3418.38
990.013	3407.38
990.234	3393.38
990.456	3452.38
990.677	3409.38
990.898	3298.38
991.119	3228.38
991.341	3321.38
991.562	3218.38
991.783	3261.38
992.004	3200.38
992.225	3128.38
992.446	3209.38
992.667	3105.38
992.887	3149.38
993.108	3020.38
993.329	3178.38
993.55	3092.38
993.77	3036.38
993.991	3038.38
994.212	3034.38
994.432	3011.38
994.653	3008.38
994.873	2960.38
995.093	2899.38
995.314	2912.38
995.534	2988.38
995.754	2982.38
995.975	2985.38
996.195	2886.38
996.415	2929.38
996.635	2835.38
996.855	2898.38
997.075	2905.38
997.295	2864.38
997.515	2830.38
997.735	2908.38
997.955	2880.38
998.174	2817.38
998.394	2825.38
998.614	2831.38
998.834	2784.38
999.053	2835.38
999.273	2793.38
999.492	2892.38
999.712	2749.38
999.931	2703.38
1000.151	2758.38
1000.37	2700.38
1000.589	2783.38
1000.809	2650.38
1001.028	2829.38
1001.247	2704.38
1001.466	2589.38
1001.685	2694.38
1001.904	2668.38
1002.123	2614.38
1002.342	2614.38
1002.561	2530.38
1002.78	2594.38
1002.999	2638.38
1003.218	2563.38
1003.436	2518.38
1003.655	2547.38
1003.874	2490.38
1004.092	2504.38
1004.311	2515.38
1004.53	2477.38
1004.748	2527.38
1004.966	2486.38
1005.185	2459.38
1005.403	2522.38
1005.622	2451.38
1005.84	2530.38
1006.058	2446.38
1006.276	2436.38
1006.494	2953.38
1006.712	2462.38
1006.931	2512.38
1007.149	2422.38
1007.367	2393.38
1007.584	2393.38
1007.802	2490.38
1008.02	2416.38
1008.238	2515.38
1008.456	2482.38
1008.673	2421.38
1008.891	2474.38
1009.109	2425.38
1009.326	2534.38
1009.544	2590.38
1009.761	2511.38
1009.979	2634.38
1010.196	2675.38
1010.413	2761.38
1010.631	2843.38
1010.848	2909.38
1011.065	2923.38
1011.282	2857.38
1011.5	2782.38
1011.717	2948.38
1011.934	2832.38
1012.151	2857.38
1012.368	2806.38
1012.585	2765.38
1012.801	2806.38
1013.018	2800.38
1013.235	2766.38
1013.452	2760.38
1013.669	2815.38
1013.885	2753.38
1014.102	2808.38
1014.318	2727.38
1014.535	2698.38
1014.751	2745.38
1014.968	2730.38
1015.184	2739.38
1015.401	2696.38
1015.617	2704.38
1015.833	2614.38
1016.049	2625.38
1016.266	2583.38
1016.482	2561.38
1016.698	2480.38
1016.914	2528.38
1017.13	2447.38
1017.346	2432.38
1017.562	2516.38
1017.778	2469.38
1017.993	2410.38
1018.209	2443.38
1018.425	2409.38
1018.641	2402.38
1018.856	2351.38
1019.072	2411.38
1019.288	2458.38
1019.503	2374.38
1019.719	2278.38
1019.934	2316.38
1020.149	2367.38
1020.365	2314.38
1020.58	2235.38
1020.795	2288.38
1021.011	2168.38
1021.226	2164.38
1021.441	2138.38
1021.656	2065.38
1021.871	1954.38
1022.086	1950.38
1022.301	1949.38
1022.516	1940.38
1022.731	1932.38
1022.946	1884.38
1023.16	1839.38
1023.375	1765.38
1023.59	1786.38
1023.804	1689.38
1024.019	1821.38
1024.234	1666.38
1024.448	1687.38
1024.663	1568.38
1024.877	1603.38
1025.092	1621.38
1025.306	1568.38
1025.52	1486.38
1025.734	1574.38
1025.949	1425.38
1026.163	1420.38
1026.377	1349.38
1026.591	1394.38
1026.805	1303.38
1027.019	1274.38
1027.233	1230.38
1027.447	1179.38
1027.661	1280.38
1027.875	1209.38
1028.088	1232.38
1028.302	1130.38
1028.516	1108.38
1028.73	1079.38
1028.943	1040.38
1029.157	1004.38
1029.37	919.38
1029.584	-0.62
1029.797	-1.62
1030.011	0.38
1030.224	-2.62
