Data from QEP037381__322__16-23-29-912.txt Node

Date: Fri Dec 16 16:23:29 EST 2022
User: dcclab
Spectrometer: QEP03738
Trigger mode: 4
Integration Time (sec): 1.000000E1
Scans to average: 1
Electric dark correction enabled: true
Nonlinearity correction enabled: false
Boxcar width: 0
XAxis mode: Wavelengths
Number of Pixels in Spectrum: 1044
>>>>>Begin Spectral Data<<<<<
784.041	10.62
784.3	-5.38
784.558	-1.38
784.817	0.62
785.075	115109.62
785.334	19850.62
785.592	9276.62
785.851	6414.62
786.109	4835.62
786.368	3701.62
786.626	3039.62
786.884	2519.62
787.143	2118.62
787.401	1771.62
787.659	1575.62
787.917	1334.62
788.175	1238.62
788.433	1070.62
788.691	926.62
788.949	884.62
789.207	827.62
789.465	725.62
789.723	691.62
789.98	645.62
790.238	683.62
790.496	639.62
790.753	614.62
791.011	658.62
791.268	602.62
791.526	576.62
791.783	568.62
792.041	556.62
792.298	463.62
792.556	527.62
792.813	515.62
793.07	494.62
793.327	474.62
793.584	550.62
793.841	465.62
794.099	499.62
794.356	548.62
794.613	450.62
794.869	487.62
795.126	456.62
795.383	436.62
795.64	459.62
795.897	415.62
796.153	472.62
796.41	457.62
796.667	449.62
796.923	448.62
797.18	443.62
797.436	492.62
797.693	443.62
797.949	496.62
798.206	516.62
798.462	449.62
798.718	511.62
798.974	453.62
799.231	518.62
799.487	519.62
799.743	518.62
799.999	556.62
800.255	553.62
800.511	528.62
800.767	588.62
801.023	572.62
801.279	605.62
801.534	652.62
801.79	710.62
802.046	781.62
802.302	926.62
802.557	1060.62
802.813	1339.62
803.068	1650.62
803.324	2353.62
803.579	3186.62
803.835	4446.62
804.09	6041.62
804.345	7941.62
804.601	10104.62
804.856	12166.62
805.111	14186.62
805.366	15564.62
805.621	16558.62
805.876	17364.62
806.131	17784.62
806.386	18201.62
806.641	18524.62
806.896	18762.62
807.151	19175.62
807.406	19345.62
807.661	19733.62
807.915	20091.62
808.17	20392.62
808.425	20578.62
808.679	20790.62
808.934	21090.62
809.188	21206.62
809.443	21463.62
809.697	21736.62
809.951	21892.62
810.206	22038.62
810.46	22226.62
810.714	22383.62
810.968	22609.62
811.223	22835.62
811.477	23096.62
811.731	23237.62
811.985	23228.62
812.239	23297.62
812.493	23492.62
812.747	23610.62
813	23591.62
813.254	23791.62
813.508	23859.62
813.762	23904.62
814.015	23991.62
814.269	24211.62
814.522	24423.62
814.776	24644.62
815.03	25048.62
815.283	25265.62
815.536	25747.62
815.79	26073.62
816.043	26503.62
816.296	26775.62
816.55	27142.62
816.803	27378.62
817.056	27860.62
817.309	28016.62
817.562	28263.62
817.815	28608.62
818.068	28747.62
818.321	29152.62
818.574	29287.62
818.827	29694.62
819.079	30151.62
819.332	30618.62
819.585	31044.62
819.838	31444.62
820.09	31591.62
820.343	31676.62
820.595	31862.62
820.848	32096.62
821.1	32269.62
821.353	32219.62
821.605	32170.62
821.857	32297.62
822.11	32048.62
822.362	32040.62
822.614	31952.62
822.866	31934.62
823.118	31875.62
823.37	31986.62
823.622	32166.62
823.874	32148.62
824.126	32258.62
824.378	32174.62
824.63	32394.62
824.882	32449.62
825.134	32482.62
825.385	32463.62
825.637	32272.62
825.888	32182.62
826.14	32144.62
826.392	32121.62
826.643	31807.62
826.895	31854.62
827.146	31566.62
827.397	31460.62
827.649	31637.62
827.9	31546.62
828.151	31569.62
828.402	31557.62
828.653	31689.62
828.905	31826.62
829.156	31834.62
829.407	31830.62
829.658	32051.62
829.909	32072.62
830.159	31977.62
830.41	31777.62
830.661	31494.62
830.912	31340.62
831.162	31244.62
831.413	31194.62
831.664	31138.62
831.914	31107.62
832.165	31042.62
832.415	31128.62
832.666	31151.62
832.916	31214.62
833.167	31103.62
833.417	30991.62
833.667	31001.62
833.917	30820.62
834.168	30965.62
834.418	30702.62
834.668	30555.62
834.918	30379.62
835.168	30328.62
835.418	30087.62
835.668	30070.62
835.918	30045.62
836.167	29931.62
836.417	29891.62
836.667	29841.62
836.917	29959.62
837.166	29870.62
837.416	29921.62
837.666	29817.62
837.915	29804.62
838.165	29752.62
838.414	29652.62
838.663	29732.62
838.913	29472.62
839.162	29474.62
839.411	29510.62
839.661	29339.62
839.91	29290.62
840.159	29199.62
840.408	29223.62
840.657	29099.62
840.906	29222.62
841.155	29169.62
841.404	29247.62
841.653	29172.62
841.902	29196.62
842.15	29281.62
842.399	29331.62
842.648	29167.62
842.897	29144.62
843.145	29022.62
843.394	28700.62
843.642	28616.62
843.891	28447.62
844.139	28402.62
844.388	28132.62
844.636	28179.62
844.884	28009.62
845.133	28105.62
845.381	28042.62
845.629	27998.62
845.877	28001.62
846.125	27939.62
846.373	27813.62
846.621	27734.62
846.869	27659.62
847.117	27519.62
847.365	27320.62
847.613	27243.62
847.861	27155.62
848.108	27173.62
848.356	27061.62
848.604	27048.62
848.851	26977.62
849.099	27136.62
849.346	27164.62
849.594	27343.62
849.841	27371.62
850.089	27429.62
850.336	27359.62
850.583	27359.62
850.831	27121.62
851.078	27225.62
851.325	27009.62
851.572	27128.62
851.819	26890.62
852.066	26488.62
852.313	26168.62
852.56	25794.62
852.807	25776.62
853.054	25745.62
853.301	25670.62
853.548	25647.62
853.794	25788.62
854.041	25863.62
854.288	26006.62
854.534	26199.62
854.781	26068.62
855.028	26105.62
855.274	26085.62
855.52	25941.62
855.767	25869.62
856.013	25882.62
856.26	26116.62
856.506	25559.62
856.752	25521.62
856.998	25578.62
857.244	25652.62
857.49	25839.62
857.736	25876.62
857.982	25777.62
858.228	25662.62
858.474	25517.62
858.72	25352.62
858.966	25109.62
859.212	24863.62
859.458	24640.62
859.703	24430.62
859.949	24114.62
860.195	24090.62
860.44	23990.62
860.686	23863.62
860.931	23831.62
861.177	23717.62
861.422	23647.62
861.667	23413.62
861.913	23507.62
862.158	23387.62
862.403	23505.62
862.648	23579.62
862.893	23661.62
863.138	23571.62
863.384	23545.62
863.629	23440.62
863.873	23494.62
864.118	23398.62
864.363	23204.62
864.608	23182.62
864.853	23043.62
865.098	22918.62
865.342	22886.62
865.587	22772.62
865.832	22846.62
866.076	22718.62
866.321	22585.62
866.565	22534.62
866.81	22424.62
867.054	22434.62
867.298	22363.62
867.543	22225.62
867.787	22327.62
868.031	22312.62
868.275	22167.62
868.519	22139.62
868.764	22178.62
869.008	22083.62
869.252	22107.62
869.496	22009.62
869.739	21879.62
869.983	21922.62
870.227	21871.62
870.471	21898.62
870.715	22075.62
870.958	22165.62
871.202	22099.62
871.446	22174.62
871.689	22097.62
871.933	22142.62
872.176	22163.62
872.42	22034.62
872.663	22043.62
872.906	21982.62
873.15	21988.62
873.393	21919.62
873.636	21845.62
873.879	21685.62
874.122	21350.62
874.366	21096.62
874.609	20930.62
874.852	20718.62
875.095	20662.62
875.337	20593.62
875.58	20421.62
875.823	20383.62
876.066	20446.62
876.309	20241.62
876.551	20128.62
876.794	19994.62
877.037	20103.62
877.279	19804.62
877.522	19818.62
877.764	20055.62
878.007	19800.62
878.249	19821.62
878.491	19853.62
878.734	19767.62
878.976	19676.62
879.218	19536.62
879.46	19507.62
879.702	19375.62
879.945	19275.62
880.187	18944.62
880.429	18917.62
880.671	18773.62
880.912	18739.62
881.154	18670.62
881.396	18567.62
881.638	18555.62
881.88	18660.62
882.121	18502.62
882.363	18519.62
882.605	18523.62
882.846	18388.62
883.088	18542.62
883.329	18423.62
883.571	18471.62
883.812	18724.62
884.053	19131.62
884.295	19333.62
884.536	19667.62
884.777	19419.62
885.018	19276.62
885.259	19199.62
885.5	19110.62
885.742	19238.62
885.982	18911.62
886.223	18867.62
886.464	18728.62
886.705	18538.62
886.946	18332.62
887.187	18059.62
887.428	17908.62
887.668	17531.62
887.909	17282.62
888.15	17158.62
888.39	17044.62
888.631	16885.62
888.871	16664.62
889.111	16578.62
889.352	16534.62
889.592	16355.62
889.833	16292.62
890.073	16087.62
890.313	16150.62
890.553	15854.62
890.793	15888.62
891.033	15776.62
891.273	15713.62
891.513	15718.62
891.753	15633.62
891.993	15628.62
892.233	15674.62
892.473	15781.62
892.713	15736.62
892.952	15753.62
893.192	15699.62
893.432	15662.62
893.671	15773.62
893.911	15601.62
894.15	15485.62
894.39	15352.62
894.629	15277.62
894.869	15215.62
895.108	15139.62
895.347	15041.62
895.587	15059.62
895.826	15007.62
896.065	14999.62
896.304	14999.62
896.543	15024.62
896.782	14850.62
897.021	14864.62
897.26	14804.62
897.499	14910.62
897.738	14736.62
897.977	14582.62
898.216	14518.62
898.454	14430.62
898.693	14288.62
898.932	14320.62
899.17	14247.62
899.409	14127.62
899.647	14168.62
899.886	14056.62
900.124	14179.62
900.363	14151.62
900.601	14104.62
900.839	14220.62
901.078	14347.62
901.316	14288.62
901.554	14321.62
901.792	14368.62
902.03	14417.62
902.268	14457.62
902.506	14331.62
902.744	14255.62
902.982	14060.62
903.22	13885.62
903.458	13725.62
903.695	13556.62
903.933	13308.62
904.171	13144.62
904.409	12922.62
904.646	12769.62
904.884	12587.62
905.121	12497.62
905.359	12411.62
905.596	12251.62
905.833	12136.62
906.071	12055.62
906.308	12060.62
906.545	12032.62
906.783	11910.62
907.02	11924.62
907.257	11797.62
907.494	11822.62
907.731	11815.62
907.968	11729.62
908.205	11632.62
908.442	11562.62
908.679	11530.62
908.915	11416.62
909.152	11392.62
909.389	11209.62
909.626	11164.62
909.862	11054.62
910.099	11072.62
910.335	10983.62
910.572	10925.62
910.808	10897.62
911.045	10845.62
911.281	10765.62
911.518	10775.62
911.754	10740.62
911.99	10657.62
912.226	10548.62
912.463	10453.62
912.699	10330.62
912.935	10271.62
913.171	10283.62
913.407	10117.62
913.643	10134.62
913.879	9913.62
914.114	9929.62
914.35	9813.62
914.586	9736.62
914.822	9653.62
915.057	9615.62
915.293	9484.62
915.529	9416.62
915.764	9449.62
916	9408.62
916.235	9419.62
916.471	9411.62
916.706	9377.62
916.941	9341.62
917.177	9300.62
917.412	9299.62
917.647	9318.62
917.882	9212.62
918.117	9279.62
918.352	9246.62
918.588	9282.62
918.823	9094.62
919.057	9028.62
919.292	8942.62
919.527	8864.62
919.762	8749.62
919.997	8703.62
920.232	8579.62
920.466	8523.62
920.701	8440.62
920.935	8390.62
921.17	8412.62
921.405	8280.62
921.639	8289.62
921.873	8233.62
922.108	8253.62
922.342	8123.62
922.576	8114.62
922.811	8118.62
923.045	8102.62
923.279	8151.62
923.513	7953.62
923.747	8035.62
923.981	7915.62
924.215	7897.62
924.449	7818.62
924.683	7735.62
924.917	7719.62
925.151	7727.62
925.385	7752.62
925.618	7671.62
925.852	7610.62
926.086	7576.62
926.319	7554.62
926.553	7514.62
926.786	7606.62
927.02	7606.62
927.253	7543.62
927.486	7520.62
927.72	7498.62
927.953	7552.62
928.186	7458.62
928.42	7459.62
928.653	7357.62
928.886	7325.62
929.119	7346.62
929.352	7297.62
929.585	7232.62
929.818	7166.62
930.051	7111.62
930.284	7084.62
930.516	6971.62
930.749	6930.62
930.982	6983.62
931.215	6929.62
931.447	6819.62
931.68	6794.62
931.912	6777.62
932.145	6744.62
932.377	6820.62
932.61	6871.62
932.842	6702.62
933.074	6823.62
933.307	6698.62
933.539	6807.62
933.771	6810.62
934.003	6730.62
934.236	6849.62
934.468	6840.62
934.7	6727.62
934.932	6732.62
935.164	6636.62
935.395	6618.62
935.627	6615.62
935.859	6601.62
936.091	6546.62
936.323	6579.62
936.554	6610.62
936.786	6466.62
937.017	6448.62
937.249	6471.62
937.481	6373.62
937.712	6441.62
937.943	6428.62
938.175	6393.62
938.406	6362.62
938.637	6366.62
938.869	6328.62
939.1	6392.62
939.331	6245.62
939.562	6358.62
939.793	6275.62
940.024	6301.62
940.255	6244.62
940.486	6156.62
940.717	6191.62
940.948	6080.62
941.179	6078.62
941.409	6125.62
941.64	6039.62
941.871	6064.62
942.102	6052.62
942.332	6018.62
942.563	6105.62
942.793	6021.62
943.024	5985.62
943.254	6036.62
943.484	6103.62
943.715	6075.62
943.945	6024.62
944.175	5947.62
944.405	5892.62
944.636	5943.62
944.866	5906.62
945.096	5996.62
945.326	5878.62
945.556	5887.62
945.786	5946.62
946.016	5842.62
946.245	5782.62
946.475	5735.62
946.705	5721.62
946.935	5667.62
947.164	5660.62
947.394	5628.62
947.624	5614.62
947.853	5597.62
948.083	5604.62
948.312	5532.62
948.542	5455.62
948.771	5416.62
949	5497.62
949.23	5439.62
949.459	5469.62
949.688	5485.62
949.917	5444.62
950.146	5420.62
950.375	5478.62
950.604	5369.62
950.833	5451.62
951.062	5432.62
951.291	5353.62
951.52	5281.62
951.749	5324.62
951.978	5258.62
952.206	5283.62
952.435	5268.62
952.664	5313.62
952.892	5252.62
953.121	5216.62
953.349	5233.62
953.578	5178.62
953.806	5180.62
954.035	5075.62
954.263	5125.62
954.491	4992.62
954.719	5129.62
954.948	5006.62
955.176	5002.62
955.404	4882.62
955.632	4989.62
955.86	4906.62
956.088	4908.62
956.316	4926.62
956.544	4950.62
956.772	4830.62
956.999	4789.62
957.227	4824.62
957.455	4740.62
957.683	4779.62
957.91	4679.62
958.138	4661.62
958.365	4658.62
958.593	4663.62
958.82	4571.62
959.048	4665.62
959.275	4601.62
959.502	4566.62
959.73	4599.62
959.957	4604.62
960.184	4571.62
960.411	4521.62
960.638	4575.62
960.865	4467.62
961.092	4561.62
961.319	4442.62
961.546	4517.62
961.773	4482.62
962	4492.62
962.227	4531.62
962.454	4450.62
962.68	4460.62
962.907	4371.62
963.134	4359.62
963.36	4332.62
963.587	4380.62
963.813	4275.62
964.04	4313.62
964.266	4219.62
964.493	4310.62
964.719	4214.62
964.945	4242.62
965.171	4125.62
965.398	4189.62
965.624	4171.62
965.85	4080.62
966.076	4056.62
966.302	4124.62
966.528	4061.62
966.754	4066.62
966.98	4080.62
967.206	4042.62
967.431	3945.62
967.657	4029.62
967.883	4017.62
968.109	4006.62
968.334	3936.62
968.56	3890.62
968.785	3928.62
969.011	3847.62
969.236	3933.62
969.462	3862.62
969.687	3857.62
969.912	3913.62
970.138	3874.62
970.363	3814.62
970.588	3841.62
970.813	3781.62
971.038	3770.62
971.263	3833.62
971.488	3746.62
971.713	3817.62
971.938	3771.62
972.163	3657.62
972.388	3667.62
972.613	3659.62
972.838	3657.62
973.062	3665.62
973.287	3611.62
973.512	3577.62
973.736	3590.62
973.961	3569.62
974.185	3536.62
974.41	3539.62
974.634	3454.62
974.858	3466.62
975.083	3507.62
975.307	3445.62
975.531	3373.62
975.755	3322.62
975.98	3354.62
976.204	3312.62
976.428	3293.62
976.652	3254.62
976.876	3256.62
977.1	3267.62
977.324	3237.62
977.547	3295.62
977.771	3280.62
977.995	3246.62
978.219	3163.62
978.442	3258.62
978.666	3207.62
978.89	3173.62
979.113	3191.62
979.337	3119.62
979.56	3104.62
979.783	3170.62
980.007	3115.62
980.23	3131.62
980.453	3071.62
980.677	3140.62
980.9	3098.62
981.123	2990.62
981.346	3065.62
981.569	3063.62
981.792	3082.62
982.015	3023.62
982.238	2940.62
982.461	3000.62
982.684	2902.62
982.907	2911.62
983.129	2887.62
983.352	2949.62
983.575	2889.62
983.797	2904.62
984.02	2807.62
984.242	2850.62
984.465	2818.62
984.687	2859.62
984.91	2873.62
985.132	2812.62
985.354	2838.62
985.577	2812.62
985.799	2776.62
986.021	2703.62
986.243	2690.62
986.465	2720.62
986.687	2767.62
986.909	2805.62
987.131	2742.62
987.353	2717.62
987.575	2718.62
987.797	2703.62
988.019	2587.62
988.241	2652.62
988.462	2627.62
988.684	2671.62
988.906	2663.62
989.127	2721.62
989.349	2574.62
989.57	2631.62
989.792	2669.62
990.013	2666.62
990.234	2641.62
990.456	2649.62
990.677	2639.62
990.898	2581.62
991.119	2554.62
991.341	2566.62
991.562	2475.62
991.783	2539.62
992.004	2469.62
992.225	2434.62
992.446	2505.62
992.667	2401.62
992.887	2497.62
993.108	2361.62
993.329	2517.62
993.55	2413.62
993.77	2347.62
993.991	2379.62
994.212	2371.62
994.432	2374.62
994.653	2416.62
994.873	2355.62
995.093	2245.62
995.314	2295.62
995.534	2341.62
995.754	2361.62
995.975	2351.62
996.195	2246.62
996.415	2312.62
996.635	2295.62
996.855	2296.62
997.075	2253.62
997.295	2274.62
997.515	2214.62
997.735	2280.62
997.955	2254.62
998.174	2254.62
998.394	2216.62
998.614	2292.62
998.834	2221.62
999.053	2280.62
999.273	2244.62
999.492	2277.62
999.712	2205.62
999.931	2165.62
1000.151	2224.62
1000.37	2146.62
1000.589	2227.62
1000.809	2124.62
1001.028	2235.62
1001.247	2185.62
1001.466	2071.62
1001.685	2198.62
1001.904	2115.62
1002.123	2130.62
1002.342	2139.62
1002.561	2045.62
1002.78	2075.62
1002.999	2134.62
1003.218	2069.62
1003.436	2046.62
1003.655	2071.62
1003.874	2045.62
1004.092	2033.62
1004.311	2041.62
1004.53	2039.62
1004.748	2108.62
1004.966	2014.62
1005.185	2068.62
1005.403	2046.62
1005.622	2007.62
1005.84	2061.62
1006.058	1973.62
1006.276	2017.62
1006.494	2490.62
1006.712	2000.62
1006.931	2072.62
1007.149	1985.62
1007.367	1961.62
1007.584	2026.62
1007.802	2030.62
1008.02	1997.62
1008.238	2119.62
1008.456	2110.62
1008.673	1970.62
1008.891	2109.62
1009.109	2069.62
1009.326	2134.62
1009.544	2226.62
1009.761	2119.62
1009.979	2251.62
1010.196	2287.62
1010.413	2401.62
1010.631	2468.62
1010.848	2519.62
1011.065	2550.62
1011.282	2522.62
1011.5	2447.62
1011.717	2531.62
1011.934	2474.62
1012.151	2450.62
1012.368	2471.62
1012.585	2437.62
1012.801	2487.62
1013.018	2404.62
1013.235	2426.62
1013.452	2443.62
1013.669	2451.62
1013.885	2440.62
1014.102	2485.62
1014.318	2457.62
1014.535	2380.62
1014.751	2443.62
1014.968	2437.62
1015.184	2421.62
1015.401	2333.62
1015.617	2373.62
1015.833	2320.62
1016.049	2272.62
1016.266	2259.62
1016.482	2245.62
1016.698	2189.62
1016.914	2252.62
1017.13	2165.62
1017.346	2188.62
1017.562	2188.62
1017.778	2155.62
1017.993	2093.62
1018.209	2156.62
1018.425	2138.62
1018.641	2101.62
1018.856	2056.62
1019.072	2083.62
1019.288	2171.62
1019.503	2073.62
1019.719	1993.62
1019.934	2009.62
1020.149	2062.62
1020.365	1980.62
1020.58	1950.62
1020.795	1982.62
1021.011	1901.62
1021.226	1865.62
1021.441	1844.62
1021.656	1795.62
1021.871	1727.62
1022.086	1700.62
1022.301	1670.62
1022.516	1640.62
1022.731	1686.62
1022.946	1623.62
1023.16	1576.62
1023.375	1541.62
1023.59	1510.62
1023.804	1474.62
1024.019	1577.62
1024.234	1418.62
1024.448	1460.62
1024.663	1377.62
1024.877	1348.62
1025.092	1374.62
1025.306	1388.62
1025.52	1242.62
1025.734	1336.62
1025.949	1244.62
1026.163	1202.62
1026.377	1146.62
1026.591	1157.62
1026.805	1095.62
1027.019	1087.62
1027.233	1061.62
1027.447	1003.62
1027.661	1106.62
1027.875	1060.62
1028.088	1005.62
1028.302	945.62
1028.516	910.62
1028.73	947.62
1028.943	920.62
1029.157	835.62
1029.37	792.62
1029.584	0.62
1029.797	-2.38
1030.011	-1.38
1030.224	-1.38
