Data from QEP037381__331__16-24-59-913.txt Node

Date: Fri Dec 16 16:24:59 EST 2022
User: dcclab
Spectrometer: QEP03738
Trigger mode: 4
Integration Time (sec): 1.000000E1
Scans to average: 1
Electric dark correction enabled: true
Nonlinearity correction enabled: false
Boxcar width: 0
XAxis mode: Wavelengths
Number of Pixels in Spectrum: 1044
>>>>>Begin Spectral Data<<<<<
784.041	14.62
784.3	-0.38
784.558	-4.38
784.817	-5.38
785.075	110665.62
785.334	19288.62
785.592	9039.62
785.851	6316.62
786.109	4795.62
786.368	3679.62
786.626	2970.62
786.884	2464.62
787.143	2072.62
787.401	1731.62
787.659	1535.62
787.917	1323.62
788.175	1194.62
788.433	1070.62
788.691	953.62
788.949	860.62
789.207	820.62
789.465	713.62
789.723	674.62
789.98	624.62
790.238	672.62
790.496	627.62
790.753	591.62
791.011	639.62
791.268	564.62
791.526	553.62
791.783	567.62
792.041	557.62
792.298	466.62
792.556	523.62
792.813	506.62
793.07	485.62
793.327	482.62
793.584	555.62
793.841	454.62
794.099	487.62
794.356	539.62
794.613	443.62
794.869	481.62
795.126	449.62
795.383	422.62
795.64	456.62
795.897	411.62
796.153	457.62
796.41	445.62
796.667	413.62
796.923	438.62
797.18	442.62
797.436	455.62
797.693	424.62
797.949	477.62
798.206	502.62
798.462	427.62
798.718	495.62
798.974	460.62
799.231	515.62
799.487	506.62
799.743	507.62
799.999	545.62
800.255	531.62
800.511	517.62
800.767	571.62
801.023	558.62
801.279	585.62
801.534	626.62
801.79	680.62
802.046	700.62
802.302	853.62
802.557	989.62
802.813	1206.62
803.068	1518.62
803.324	2102.62
803.579	2870.62
803.835	3973.62
804.09	5493.62
804.345	7087.62
804.601	8922.62
804.856	10855.62
805.111	12529.62
805.366	13884.62
805.621	14783.62
805.876	15546.62
806.131	15884.62
806.386	16270.62
806.641	16495.62
806.896	16811.62
807.151	17191.62
807.406	17454.62
807.661	17721.62
807.915	17982.62
808.17	18293.62
808.425	18483.62
808.679	18615.62
808.934	18866.62
809.188	18914.62
809.443	19182.62
809.697	19436.62
809.951	19515.62
810.206	19710.62
810.46	19846.62
810.714	19967.62
810.968	20311.62
811.223	20362.62
811.477	20548.62
811.731	20822.62
811.985	20835.62
812.239	20794.62
812.493	21020.62
812.747	21145.62
813	21151.62
813.254	21307.62
813.508	21423.62
813.762	21525.62
814.015	21580.62
814.269	21656.62
814.522	21924.62
814.776	22147.62
815.03	22358.62
815.283	22805.62
815.536	23000.62
815.79	23364.62
816.043	23777.62
816.296	23955.62
816.55	24302.62
816.803	24506.62
817.056	24901.62
817.309	25023.62
817.562	25316.62
817.815	25649.62
818.068	25695.62
818.321	25990.62
818.574	26230.62
818.827	26628.62
819.079	26973.62
819.332	27362.62
819.585	27701.62
819.838	28098.62
820.09	28153.62
820.343	28314.62
820.595	28485.62
820.848	28699.62
821.1	28797.62
821.353	28767.62
821.605	28907.62
821.857	28816.62
822.11	28707.62
822.362	28594.62
822.614	28588.62
822.866	28481.62
823.118	28578.62
823.37	28774.62
823.622	28712.62
823.874	28722.62
824.126	28984.62
824.378	28902.62
824.63	29028.62
824.882	29049.62
825.134	29004.62
825.385	28960.62
825.637	28820.62
825.888	28850.62
826.14	28852.62
826.392	28618.62
826.643	28470.62
826.895	28433.62
827.146	28240.62
827.397	28151.62
827.649	28261.62
827.9	28135.62
828.151	28211.62
828.402	28233.62
828.653	28435.62
828.905	28481.62
829.156	28576.62
829.407	28449.62
829.658	28654.62
829.909	28569.62
830.159	28598.62
830.41	28519.62
830.661	28257.62
830.912	28072.62
831.162	27947.62
831.413	27800.62
831.664	27872.62
831.914	27948.62
832.165	27742.62
832.415	27864.62
832.666	27867.62
832.916	27830.62
833.167	27875.62
833.417	27725.62
833.667	27705.62
833.917	27593.62
834.168	27446.62
834.418	27434.62
834.668	27505.62
834.918	27304.62
835.168	27107.62
835.418	27052.62
835.668	26934.62
835.918	26785.62
836.167	26770.62
836.417	26584.62
836.667	26684.62
836.917	26540.62
837.166	26674.62
837.416	26646.62
837.666	26595.62
837.915	26579.62
838.165	26460.62
838.414	26388.62
838.663	26348.62
838.913	26419.62
839.162	26300.62
839.411	26266.62
839.661	26127.62
839.91	26116.62
840.159	25994.62
840.408	26025.62
840.657	26054.62
840.906	26058.62
841.155	26061.62
841.404	25908.62
841.653	26034.62
841.902	26114.62
842.15	26159.62
842.399	26030.62
842.648	25873.62
842.897	25889.62
843.145	25717.62
843.394	25647.62
843.642	25452.62
843.891	25427.62
844.139	25185.62
844.388	25009.62
844.636	24891.62
844.884	24850.62
845.133	24899.62
845.381	24779.62
845.629	24895.62
845.877	24809.62
846.125	24983.62
846.373	24702.62
846.621	24555.62
846.869	24715.62
847.117	24487.62
847.365	24241.62
847.613	24179.62
847.861	24062.62
848.108	24193.62
848.356	24082.62
848.604	23946.62
848.851	23976.62
849.099	24065.62
849.346	24081.62
849.594	24087.62
849.841	24188.62
850.089	24219.62
850.336	24246.62
850.583	24220.62
850.831	24214.62
851.078	23911.62
851.325	23941.62
851.572	24006.62
851.819	23863.62
852.066	23359.62
852.313	23058.62
852.56	22923.62
852.807	22771.62
853.054	22754.62
853.301	22677.62
853.548	22618.62
853.794	22875.62
854.041	22948.62
854.288	23008.62
854.534	23168.62
854.781	23099.62
855.028	23000.62
855.274	23195.62
855.52	22882.62
855.767	22911.62
856.013	22964.62
856.26	23235.62
856.506	22604.62
856.752	22605.62
856.998	22638.62
857.244	22585.62
857.49	22777.62
857.736	22877.62
857.982	22738.62
858.228	22713.62
858.474	22424.62
858.72	22383.62
858.966	22118.62
859.212	22005.62
859.458	21760.62
859.703	21588.62
859.949	21273.62
860.195	21113.62
860.44	21135.62
860.686	21024.62
860.931	21054.62
861.177	20890.62
861.422	20805.62
861.667	20583.62
861.913	20626.62
862.158	20698.62
862.403	20773.62
862.648	20769.62
862.893	20757.62
863.138	20571.62
863.384	20663.62
863.629	20475.62
863.873	20601.62
864.118	20490.62
864.363	20457.62
864.608	20466.62
864.853	20338.62
865.098	20187.62
865.342	20135.62
865.587	19972.62
865.832	20023.62
866.076	19982.62
866.321	19860.62
866.565	19824.62
866.81	19665.62
867.054	19657.62
867.298	19544.62
867.543	19493.62
867.787	19578.62
868.031	19443.62
868.275	19388.62
868.519	19326.62
868.764	19428.62
869.008	19342.62
869.252	19270.62
869.496	19191.62
869.739	19165.62
869.983	19160.62
870.227	19257.62
870.471	19071.62
870.715	19363.62
870.958	19265.62
871.202	19291.62
871.446	19264.62
871.689	19215.62
871.933	19385.62
872.176	19299.62
872.42	19261.62
872.663	19269.62
872.906	19229.62
873.15	19157.62
873.393	19145.62
873.636	19198.62
873.879	19011.62
874.122	18747.62
874.366	18451.62
874.609	18399.62
874.852	18040.62
875.095	18015.62
875.337	17930.62
875.58	17673.62
875.823	17837.62
876.066	17643.62
876.309	17766.62
876.551	17521.62
876.794	17409.62
877.037	17492.62
877.279	17319.62
877.522	17402.62
877.764	17420.62
878.007	17278.62
878.249	17301.62
878.491	17169.62
878.734	17201.62
878.976	17182.62
879.218	17091.62
879.46	16986.62
879.702	16856.62
879.945	16661.62
880.187	16521.62
880.429	16395.62
880.671	16326.62
880.912	16287.62
881.154	16222.62
881.396	16160.62
881.638	16209.62
881.88	16142.62
882.121	16065.62
882.363	16128.62
882.605	16184.62
882.846	16067.62
883.088	16072.62
883.329	16027.62
883.571	16057.62
883.812	16318.62
884.053	16562.62
884.295	16830.62
884.536	17044.62
884.777	16886.62
885.018	16833.62
885.259	16735.62
885.5	16532.62
885.742	16714.62
885.982	16489.62
886.223	16408.62
886.464	16215.62
886.705	16037.62
886.946	15839.62
887.187	15638.62
887.428	15504.62
887.668	15247.62
887.909	14988.62
888.15	14781.62
888.39	14788.62
888.631	14529.62
888.871	14502.62
889.111	14412.62
889.352	14329.62
889.592	14212.62
889.833	14103.62
890.073	14000.62
890.313	13918.62
890.553	13713.62
890.793	13668.62
891.033	13696.62
891.273	13579.62
891.513	13540.62
891.753	13538.62
891.993	13441.62
892.233	13559.62
892.473	13605.62
892.713	13632.62
892.952	13482.62
893.192	13482.62
893.432	13509.62
893.671	13521.62
893.911	13401.62
894.15	13331.62
894.39	13171.62
894.629	13160.62
894.869	13023.62
895.108	13035.62
895.347	13020.62
895.587	13003.62
895.826	12899.62
896.065	12862.62
896.304	12879.62
896.543	12857.62
896.782	12758.62
897.021	12665.62
897.26	12792.62
897.499	12696.62
897.738	12694.62
897.977	12682.62
898.216	12484.62
898.454	12379.62
898.693	12277.62
898.932	12283.62
899.17	12197.62
899.409	12141.62
899.647	12121.62
899.886	12034.62
900.124	12100.62
900.363	12104.62
900.601	12155.62
900.839	12190.62
901.078	12243.62
901.316	12304.62
901.554	12334.62
901.792	12334.62
902.03	12257.62
902.268	12342.62
902.506	12252.62
902.744	12171.62
902.982	12124.62
903.22	12015.62
903.458	11744.62
903.695	11666.62
903.933	11503.62
904.171	11255.62
904.409	11090.62
904.646	10911.62
904.884	10754.62
905.121	10692.62
905.359	10550.62
905.596	10484.62
905.833	10372.62
906.071	10342.62
906.308	10236.62
906.545	10228.62
906.783	10108.62
907.02	10215.62
907.257	10115.62
907.494	10068.62
907.731	10126.62
907.968	10029.62
908.205	9920.62
908.442	9898.62
908.679	9805.62
908.915	9680.62
909.152	9670.62
909.389	9546.62
909.626	9562.62
909.862	9430.62
910.099	9387.62
910.335	9404.62
910.572	9288.62
910.808	9356.62
911.045	9256.62
911.281	9167.62
911.518	9225.62
911.754	9141.62
911.99	9095.62
912.226	8993.62
912.463	8948.62
912.699	8851.62
912.935	8772.62
913.171	8788.62
913.407	8620.62
913.643	8632.62
913.879	8513.62
914.114	8460.62
914.35	8371.62
914.586	8276.62
914.822	8208.62
915.057	8271.62
915.293	8068.62
915.529	8050.62
915.764	8038.62
916	7985.62
916.235	7941.62
916.471	8021.62
916.706	7931.62
916.941	7914.62
917.177	7913.62
917.412	7894.62
917.647	7902.62
917.882	7809.62
918.117	7886.62
918.352	7815.62
918.588	7851.62
918.823	7780.62
919.057	7685.62
919.292	7510.62
919.527	7571.62
919.762	7424.62
919.997	7453.62
920.232	7324.62
920.466	7349.62
920.701	7185.62
920.935	7120.62
921.17	7076.62
921.405	7039.62
921.639	7070.62
921.873	6990.62
922.108	6986.62
922.342	6949.62
922.576	6908.62
922.811	6900.62
923.045	6897.62
923.279	6898.62
923.513	6735.62
923.747	6777.62
923.981	6752.62
924.215	6675.62
924.449	6629.62
924.683	6563.62
924.917	6476.62
925.151	6495.62
925.385	6549.62
925.618	6529.62
925.852	6479.62
926.086	6371.62
926.319	6442.62
926.553	6471.62
926.786	6417.62
927.02	6311.62
927.253	6415.62
927.486	6401.62
927.72	6240.62
927.953	6335.62
928.186	6278.62
928.42	6336.62
928.653	6249.62
928.886	6271.62
929.119	6169.62
929.352	6160.62
929.585	6115.62
929.818	6028.62
930.051	6085.62
930.284	6002.62
930.516	5844.62
930.749	5883.62
930.982	5905.62
931.215	5858.62
931.447	5772.62
931.68	5789.62
931.912	5765.62
932.145	5780.62
932.377	5736.62
932.61	5911.62
932.842	5720.62
933.074	5689.62
933.307	5653.62
933.539	5784.62
933.771	5704.62
934.003	5695.62
934.236	5730.62
934.468	5783.62
934.7	5665.62
934.932	5714.62
935.164	5621.62
935.395	5578.62
935.627	5572.62
935.859	5595.62
936.091	5512.62
936.323	5568.62
936.554	5607.62
936.786	5471.62
937.017	5448.62
937.249	5437.62
937.481	5329.62
937.712	5462.62
937.943	5403.62
938.175	5391.62
938.406	5315.62
938.637	5447.62
938.869	5304.62
939.1	5416.62
939.331	5318.62
939.562	5298.62
939.793	5297.62
940.024	5273.62
940.255	5275.62
940.486	5243.62
940.717	5191.62
940.948	5138.62
941.179	5140.62
941.409	5153.62
941.64	5124.62
941.871	5099.62
942.102	5063.62
942.332	5096.62
942.563	5137.62
942.793	5106.62
943.024	5047.62
943.254	5054.62
943.484	5100.62
943.715	5092.62
943.945	5056.62
944.175	4992.62
944.405	4940.62
944.636	5033.62
944.866	5005.62
945.096	5003.62
945.326	4970.62
945.556	4959.62
945.786	5008.62
946.016	4908.62
946.245	4862.62
946.475	4769.62
946.705	4798.62
946.935	4795.62
947.164	4772.62
947.394	4704.62
947.624	4749.62
947.853	4773.62
948.083	4692.62
948.312	4681.62
948.542	4571.62
948.771	4568.62
949	4602.62
949.23	4559.62
949.459	4558.62
949.688	4671.62
949.917	4608.62
950.146	4536.62
950.375	4575.62
950.604	4503.62
950.833	4582.62
951.062	4578.62
951.291	4498.62
951.52	4489.62
951.749	4440.62
951.978	4454.62
952.206	4438.62
952.435	4414.62
952.664	4466.62
952.892	4384.62
953.121	4382.62
953.349	4429.62
953.578	4384.62
953.806	4320.62
954.035	4231.62
954.263	4299.62
954.491	4226.62
954.719	4264.62
954.948	4190.62
955.176	4214.62
955.404	4071.62
955.632	4213.62
955.86	4129.62
956.088	4100.62
956.316	4087.62
956.544	4087.62
956.772	4047.62
956.999	4000.62
957.227	4090.62
957.455	3978.62
957.683	3984.62
957.91	3941.62
958.138	3916.62
958.365	3922.62
958.593	3876.62
958.82	3803.62
959.048	3886.62
959.275	3836.62
959.502	3851.62
959.73	3828.62
959.957	3824.62
960.184	3828.62
960.411	3808.62
960.638	3862.62
960.865	3770.62
961.092	3786.62
961.319	3736.62
961.546	3827.62
961.773	3776.62
962	3744.62
962.227	3807.62
962.454	3751.62
962.68	3716.62
962.907	3774.62
963.134	3640.62
963.36	3668.62
963.587	3658.62
963.813	3574.62
964.04	3640.62
964.266	3540.62
964.493	3647.62
964.719	3558.62
964.945	3563.62
965.171	3427.62
965.398	3511.62
965.624	3492.62
965.85	3444.62
966.076	3454.62
966.302	3430.62
966.528	3391.62
966.754	3405.62
966.98	3417.62
967.206	3420.62
967.431	3314.62
967.657	3411.62
967.883	3365.62
968.109	3340.62
968.334	3309.62
968.56	3256.62
968.785	3322.62
969.011	3255.62
969.236	3281.62
969.462	3215.62
969.687	3213.62
969.912	3281.62
970.138	3324.62
970.363	3213.62
970.588	3230.62
970.813	3224.62
971.038	3146.62
971.263	3191.62
971.488	3140.62
971.713	3206.62
971.938	3185.62
972.163	3061.62
972.388	3125.62
972.613	3079.62
972.838	3054.62
973.062	3043.62
973.287	3077.62
973.512	3007.62
973.736	3042.62
973.961	3009.62
974.185	2989.62
974.41	2998.62
974.634	2914.62
974.858	2905.62
975.083	2900.62
975.307	2926.62
975.531	2858.62
975.755	2791.62
975.98	2830.62
976.204	2733.62
976.428	2759.62
976.652	2754.62
976.876	2715.62
977.1	2784.62
977.324	2719.62
977.547	2743.62
977.771	2762.62
977.995	2701.62
978.219	2683.62
978.442	2788.62
978.666	2723.62
978.89	2709.62
979.113	2665.62
979.337	2686.62
979.56	2666.62
979.783	2722.62
980.007	2615.62
980.23	2615.62
980.453	2596.62
980.677	2624.62
980.9	2620.62
981.123	2489.62
981.346	2569.62
981.569	2568.62
981.792	2601.62
982.015	2563.62
982.238	2470.62
982.461	2507.62
982.684	2468.62
982.907	2455.62
983.129	2446.62
983.352	2479.62
983.575	2452.62
983.797	2455.62
984.02	2401.62
984.242	2385.62
984.465	2390.62
984.687	2415.62
984.91	2443.62
985.132	2405.62
985.354	2439.62
985.577	2368.62
985.799	2397.62
986.021	2274.62
986.243	2317.62
986.465	2311.62
986.687	2370.62
986.909	2407.62
987.131	2291.62
987.353	2239.62
987.575	2328.62
987.797	2289.62
988.019	2216.62
988.241	2233.62
988.462	2180.62
988.684	2272.62
988.906	2293.62
989.127	2263.62
989.349	2194.62
989.57	2239.62
989.792	2261.62
990.013	2264.62
990.234	2293.62
990.456	2246.62
990.677	2244.62
990.898	2188.62
991.119	2169.62
991.341	2207.62
991.562	2166.62
991.783	2173.62
992.004	2109.62
992.225	2058.62
992.446	2132.62
992.667	2034.62
992.887	2104.62
993.108	2004.62
993.329	2126.62
993.55	2102.62
993.77	2037.62
993.991	2001.62
994.212	2036.62
994.432	2002.62
994.653	2013.62
994.873	2001.62
995.093	1908.62
995.314	1941.62
995.534	2032.62
995.754	2022.62
995.975	2043.62
996.195	1932.62
996.415	1969.62
996.635	1982.62
996.855	1991.62
997.075	1929.62
997.295	1957.62
997.515	1931.62
997.735	1991.62
997.955	1945.62
998.174	1941.62
998.394	1899.62
998.614	1955.62
998.834	1878.62
999.053	1962.62
999.273	1931.62
999.492	1969.62
999.712	1926.62
999.931	1867.62
1000.151	1912.62
1000.37	1851.62
1000.589	1922.62
1000.809	1815.62
1001.028	1965.62
1001.247	1854.62
1001.466	1758.62
1001.685	1930.62
1001.904	1825.62
1002.123	1821.62
1002.342	1840.62
1002.561	1774.62
1002.78	1811.62
1002.999	1859.62
1003.218	1793.62
1003.436	1768.62
1003.655	1815.62
1003.874	1754.62
1004.092	1762.62
1004.311	1826.62
1004.53	1796.62
1004.748	1816.62
1004.966	1749.62
1005.185	1792.62
1005.403	1811.62
1005.622	1754.62
1005.84	1847.62
1006.058	1758.62
1006.276	1772.62
1006.494	2251.62
1006.712	1771.62
1006.931	1854.62
1007.149	1731.62
1007.367	1736.62
1007.584	1773.62
1007.802	1802.62
1008.02	1746.62
1008.238	1843.62
1008.456	1855.62
1008.673	1746.62
1008.891	1832.62
1009.109	1815.62
1009.326	1846.62
1009.544	1989.62
1009.761	1866.62
1009.979	1998.62
1010.196	2051.62
1010.413	2127.62
1010.631	2204.62
1010.848	2267.62
1011.065	2279.62
1011.282	2213.62
1011.5	2164.62
1011.717	2242.62
1011.934	2168.62
1012.151	2220.62
1012.368	2179.62
1012.585	2129.62
1012.801	2173.62
1013.018	2140.62
1013.235	2136.62
1013.452	2135.62
1013.669	2180.62
1013.885	2131.62
1014.102	2186.62
1014.318	2185.62
1014.535	2101.62
1014.751	2163.62
1014.968	2154.62
1015.184	2154.62
1015.401	2055.62
1015.617	2062.62
1015.833	2022.62
1016.049	2027.62
1016.266	2006.62
1016.482	1983.62
1016.698	1892.62
1016.914	1951.62
1017.13	1901.62
1017.346	1893.62
1017.562	1904.62
1017.778	1873.62
1017.993	1855.62
1018.209	1859.62
1018.425	1879.62
1018.641	1816.62
1018.856	1831.62
1019.072	1841.62
1019.288	1886.62
1019.503	1822.62
1019.719	1756.62
1019.934	1770.62
1020.149	1824.62
1020.365	1782.62
1020.58	1700.62
1020.795	1727.62
1021.011	1682.62
1021.226	1642.62
1021.441	1663.62
1021.656	1540.62
1021.871	1479.62
1022.086	1491.62
1022.301	1472.62
1022.516	1461.62
1022.731	1504.62
1022.946	1388.62
1023.16	1407.62
1023.375	1355.62
1023.59	1325.62
1023.804	1289.62
1024.019	1356.62
1024.234	1244.62
1024.448	1277.62
1024.663	1187.62
1024.877	1200.62
1025.092	1211.62
1025.306	1198.62
1025.52	1107.62
1025.734	1160.62
1025.949	1108.62
1026.163	1060.62
1026.377	1022.62
1026.591	1047.62
1026.805	987.62
1027.019	974.62
1027.233	926.62
1027.447	879.62
1027.661	980.62
1027.875	912.62
1028.088	916.62
1028.302	838.62
1028.516	841.62
1028.73	823.62
1028.943	804.62
1029.157	763.62
1029.37	696.62
1029.584	-1.38
1029.797	2.62
1030.011	-2.38
1030.224	-3.38
