Data from QEP037381__127__11-03-20-215.txt Node

Date: Fri Apr 28 11:03:20 EDT 2023
User: dcclab
Spectrometer: QEP03738
Trigger mode: 4
Integration Time (sec): 1.000000E1
Scans to average: 1
Electric dark correction enabled: true
Nonlinearity correction enabled: false
Boxcar width: 0
XAxis mode: Wavelengths
Number of Pixels in Spectrum: 1044
>>>>>Begin Spectral Data<<<<<
784.041	12.5
784.3	0.5
784.558	-3.5
784.817	-1.5
785.075	71796.5
785.334	14134.5
785.592	7287.5
785.851	5197.5
786.109	3912.5
786.368	3056.5
786.626	2474.5
786.884	2079.5
787.143	1783.5
787.401	1494.5
787.659	1319.5
787.917	1138.5
788.175	1044.5
788.433	929.5
788.691	830.5
788.949	766.5
789.207	723.5
789.465	629.5
789.723	614.5
789.98	564.5
790.238	606.5
790.496	571.5
790.753	536.5
791.011	587.5
791.268	529.5
791.526	518.5
791.783	519.5
792.041	495.5
792.298	409.5
792.556	497.5
792.813	480.5
793.07	461.5
793.327	443.5
793.584	523.5
793.841	440.5
794.099	472.5
794.356	520.5
794.613	427.5
794.869	466.5
795.126	436.5
795.383	417.5
795.64	436.5
795.897	385.5
796.153	448.5
796.41	437.5
796.667	415.5
796.923	434.5
797.18	436.5
797.436	468.5
797.693	432.5
797.949	470.5
798.206	506.5
798.462	418.5
798.718	501.5
798.974	451.5
799.231	497.5
799.487	486.5
799.743	492.5
799.999	531.5
800.255	542.5
800.511	506.5
800.767	573.5
801.023	577.5
801.279	613.5
801.534	651.5
801.79	711.5
802.046	786.5
802.302	944.5
802.557	1117.5
802.813	1473.5
803.068	1917.5
803.324	2713.5
803.579	3819.5
803.835	5352.5
804.09	7297.5
804.345	9282.5
804.601	11392.5
804.856	13261.5
805.111	14664.5
805.366	15781.5
805.621	16353.5
805.876	16928.5
806.131	17313.5
806.386	17618.5
806.641	17862.5
806.896	18158.5
807.151	18456.5
807.406	18609.5
807.661	18960.5
807.915	19310.5
808.17	19729.5
808.425	19856.5
808.679	20106.5
808.934	20352.5
809.188	20582.5
809.443	20781.5
809.697	21024.5
809.951	21202.5
810.206	21243.5
810.46	21525.5
810.714	21715.5
810.968	21776.5
811.223	21971.5
811.477	22209.5
811.731	22325.5
811.985	22372.5
812.239	22510.5
812.493	22582.5
812.747	22707.5
813	22747.5
813.254	22768.5
813.508	23080.5
813.762	23069.5
814.015	23216.5
814.269	23428.5
814.522	23654.5
814.776	23847.5
815.03	24049.5
815.283	24353.5
815.536	24708.5
815.79	25212.5
816.043	25542.5
816.296	25812.5
816.55	26193.5
816.803	26304.5
817.056	26752.5
817.309	27030.5
817.562	27236.5
817.815	27564.5
818.068	27771.5
818.321	28096.5
818.574	28481.5
818.827	28822.5
819.079	29219.5
819.332	29769.5
819.585	30064.5
819.838	30516.5
820.09	30590.5
820.343	30950.5
820.595	30906.5
820.848	31248.5
821.1	31295.5
821.353	31387.5
821.605	31244.5
821.857	31402.5
822.11	31084.5
822.362	31171.5
822.614	30922.5
822.866	31062.5
823.118	30913.5
823.37	31041.5
823.622	31355.5
823.874	31371.5
824.126	31417.5
824.378	31439.5
824.63	31522.5
824.882	31545.5
825.134	31531.5
825.385	31470.5
825.637	31347.5
825.888	31278.5
826.14	31219.5
826.392	31039.5
826.643	30897.5
826.895	30805.5
827.146	30648.5
827.397	30605.5
827.649	30652.5
827.9	30553.5
828.151	30665.5
828.402	30700.5
828.653	30802.5
828.905	30916.5
829.156	31003.5
829.407	30930.5
829.658	30889.5
829.909	30994.5
830.159	30954.5
830.41	30649.5
830.661	30499.5
830.912	30323.5
831.162	30098.5
831.413	30240.5
831.664	30098.5
831.914	30061.5
832.165	29993.5
832.415	29847.5
832.666	29967.5
832.916	30063.5
833.167	29870.5
833.417	29969.5
833.667	29765.5
833.917	29787.5
834.168	29555.5
834.418	29577.5
834.668	29404.5
834.918	29225.5
835.168	29045.5
835.418	28948.5
835.668	28833.5
835.918	28702.5
836.167	28712.5
836.417	28563.5
836.667	28661.5
836.917	28609.5
837.166	28571.5
837.416	28523.5
837.666	28557.5
837.915	28453.5
838.165	28273.5
838.414	28158.5
838.663	28120.5
838.913	28169.5
839.162	28122.5
839.411	28080.5
839.661	28043.5
839.91	27942.5
840.159	27824.5
840.408	27767.5
840.657	27862.5
840.906	27941.5
841.155	27812.5
841.404	27799.5
841.653	27798.5
841.902	27771.5
842.15	27821.5
842.399	27946.5
842.648	27833.5
842.897	27688.5
843.145	27452.5
843.394	27334.5
843.642	27148.5
843.891	27106.5
844.139	26846.5
844.388	26680.5
844.636	26545.5
844.884	26530.5
845.133	26387.5
845.381	26466.5
845.629	26368.5
845.877	26330.5
846.125	26319.5
846.373	26240.5
846.621	25986.5
846.869	26131.5
847.117	25927.5
847.365	25755.5
847.613	25762.5
847.861	25635.5
848.108	25595.5
848.356	25488.5
848.604	25525.5
848.851	25610.5
849.099	25506.5
849.346	25538.5
849.594	25688.5
849.841	25848.5
850.089	25879.5
850.336	25874.5
850.583	25775.5
850.831	25728.5
851.078	25512.5
851.325	25446.5
851.572	25529.5
851.819	25130.5
852.066	24648.5
852.313	24307.5
852.56	24147.5
852.807	23971.5
853.054	23972.5
853.301	23882.5
853.548	24038.5
853.794	24058.5
854.041	24155.5
854.288	24333.5
854.534	24449.5
854.781	24470.5
855.028	24271.5
855.274	24390.5
855.52	24104.5
855.767	23999.5
856.013	24050.5
856.26	24264.5
856.506	23746.5
856.752	23618.5
856.998	23580.5
857.244	23767.5
857.49	23841.5
857.736	23896.5
857.982	23902.5
858.228	23764.5
858.474	23484.5
858.72	23476.5
858.966	23153.5
859.212	23001.5
859.458	22675.5
859.703	22445.5
859.949	22229.5
860.195	22082.5
860.44	21969.5
860.686	21913.5
860.931	21877.5
861.177	21693.5
861.422	21613.5
861.667	21452.5
861.913	21470.5
862.158	21634.5
862.403	21630.5
862.648	21648.5
862.893	21698.5
863.138	21601.5
863.384	21501.5
863.629	21451.5
863.873	21430.5
864.118	21278.5
864.363	21163.5
864.608	21159.5
864.853	20982.5
865.098	20769.5
865.342	20659.5
865.587	20677.5
865.832	20712.5
866.076	20459.5
866.321	20477.5
866.565	20554.5
866.81	20363.5
867.054	20315.5
867.298	20259.5
867.543	20287.5
867.787	20264.5
868.031	20175.5
868.275	20144.5
868.519	20176.5
868.764	20085.5
869.008	20049.5
869.252	19950.5
869.496	19878.5
869.739	19940.5
869.983	20019.5
870.227	19899.5
870.471	19956.5
870.715	20027.5
870.958	20061.5
871.202	20042.5
871.446	19978.5
871.689	20047.5
871.933	20040.5
872.176	19917.5
872.42	19749.5
872.663	19897.5
872.906	19828.5
873.15	19654.5
873.393	19649.5
873.636	19602.5
873.879	19416.5
874.122	19219.5
874.366	18917.5
874.609	18771.5
874.852	18713.5
875.095	18572.5
875.337	18437.5
875.58	18363.5
875.823	18334.5
876.066	18270.5
876.309	18260.5
876.551	18041.5
876.794	17990.5
877.037	17943.5
877.279	17917.5
877.522	17900.5
877.764	17948.5
878.007	17784.5
878.249	17859.5
878.491	17776.5
878.734	17773.5
878.976	17692.5
879.218	17583.5
879.46	17490.5
879.702	17363.5
879.945	17195.5
880.187	17038.5
880.429	16891.5
880.671	16770.5
880.912	16778.5
881.154	16697.5
881.396	16543.5
881.638	16613.5
881.88	16644.5
882.121	16583.5
882.363	16467.5
882.605	16569.5
882.846	16484.5
883.088	16532.5
883.329	16419.5
883.571	16481.5
883.812	16662.5
884.053	16878.5
884.295	17158.5
884.536	17456.5
884.777	17239.5
885.018	17112.5
885.259	17055.5
885.5	16892.5
885.742	17002.5
885.982	16834.5
886.223	16665.5
886.464	16531.5
886.705	16316.5
886.946	16236.5
887.187	15809.5
887.428	15711.5
887.668	15520.5
887.909	15359.5
888.15	15075.5
888.39	15049.5
888.631	14964.5
888.871	14822.5
889.111	14672.5
889.352	14639.5
889.592	14422.5
889.833	14358.5
890.073	14182.5
890.313	14159.5
890.553	14019.5
890.793	13974.5
891.033	13958.5
891.273	13848.5
891.513	13804.5
891.753	13844.5
891.993	13674.5
892.233	13695.5
892.473	13785.5
892.713	13816.5
892.952	13764.5
893.192	13760.5
893.432	13682.5
893.671	13738.5
893.911	13603.5
894.15	13476.5
894.39	13376.5
894.629	13383.5
894.869	13248.5
895.108	13108.5
895.347	13036.5
895.587	13148.5
895.826	13053.5
896.065	12886.5
896.304	12932.5
896.543	12956.5
896.782	12739.5
897.021	12763.5
897.26	12790.5
897.499	12709.5
897.738	12748.5
897.977	12656.5
898.216	12547.5
898.454	12444.5
898.693	12373.5
898.932	12362.5
899.17	12314.5
899.409	12157.5
899.647	12185.5
899.886	12176.5
900.124	12252.5
900.363	12215.5
900.601	12185.5
900.839	12215.5
901.078	12282.5
901.316	12322.5
901.554	12424.5
901.792	12436.5
902.03	12328.5
902.268	12359.5
902.506	12332.5
902.744	12240.5
902.982	12192.5
903.22	11920.5
903.458	11734.5
903.695	11619.5
903.933	11475.5
904.171	11307.5
904.409	11107.5
904.646	11015.5
904.884	10783.5
905.121	10765.5
905.359	10610.5
905.596	10546.5
905.833	10405.5
906.071	10349.5
906.308	10436.5
906.545	10391.5
906.783	10279.5
907.02	10302.5
907.257	10249.5
907.494	10256.5
907.731	10231.5
907.968	10202.5
908.205	10074.5
908.442	10044.5
908.679	9956.5
908.915	9882.5
909.152	9837.5
909.389	9618.5
909.626	9600.5
909.862	9588.5
910.099	9540.5
910.335	9505.5
910.572	9365.5
910.808	9387.5
911.045	9297.5
911.281	9298.5
911.518	9219.5
911.754	9235.5
911.99	9213.5
912.226	9138.5
912.463	9011.5
912.699	8968.5
912.935	8897.5
913.171	8848.5
913.407	8728.5
913.643	8725.5
913.879	8619.5
914.114	8517.5
914.35	8445.5
914.586	8390.5
914.822	8290.5
915.057	8280.5
915.293	8151.5
915.529	8106.5
915.764	8144.5
916	8159.5
916.235	8167.5
916.471	8127.5
916.706	8019.5
916.941	8081.5
917.177	8019.5
917.412	8069.5
917.647	8071.5
917.882	7901.5
918.117	8017.5
918.352	7968.5
918.588	7949.5
918.823	7830.5
919.057	7732.5
919.292	7600.5
919.527	7648.5
919.762	7456.5
919.997	7479.5
920.232	7361.5
920.466	7347.5
920.701	7198.5
920.935	7211.5
921.17	7166.5
921.405	7078.5
921.639	7128.5
921.873	7076.5
922.108	7052.5
922.342	6968.5
922.576	6986.5
922.811	6981.5
923.045	6979.5
923.279	6967.5
923.513	6836.5
923.747	6840.5
923.981	6836.5
924.215	6751.5
924.449	6712.5
924.683	6574.5
924.917	6591.5
925.151	6580.5
925.385	6650.5
925.618	6591.5
925.852	6509.5
926.086	6448.5
926.319	6487.5
926.553	6489.5
926.786	6513.5
927.02	6447.5
927.253	6473.5
927.486	6488.5
927.72	6363.5
927.953	6462.5
928.186	6378.5
928.42	6417.5
928.653	6317.5
928.886	6266.5
929.119	6277.5
929.352	6250.5
929.585	6188.5
929.818	6108.5
930.051	6141.5
930.284	6047.5
930.516	5912.5
930.749	5925.5
930.982	5951.5
931.215	5870.5
931.447	5846.5
931.68	5875.5
931.912	5808.5
932.145	5760.5
932.377	5790.5
932.61	5975.5
932.842	5794.5
933.074	5892.5
933.307	5733.5
933.539	5830.5
933.771	5871.5
934.003	5750.5
934.236	5857.5
934.468	5863.5
934.7	5738.5
934.932	5735.5
935.164	5682.5
935.395	5658.5
935.627	5652.5
935.859	5652.5
936.091	5594.5
936.323	5558.5
936.554	5658.5
936.786	5564.5
937.017	5473.5
937.249	5523.5
937.481	5431.5
937.712	5529.5
937.943	5448.5
938.175	5453.5
938.406	5440.5
938.637	5535.5
938.869	5379.5
939.1	5429.5
939.331	5391.5
939.562	5411.5
939.793	5350.5
940.024	5325.5
940.255	5417.5
940.486	5284.5
940.717	5278.5
940.948	5227.5
941.179	5206.5
941.409	5179.5
941.64	5147.5
941.871	5146.5
942.102	5130.5
942.332	5154.5
942.563	5237.5
942.793	5206.5
943.024	5108.5
943.254	5185.5
943.484	5152.5
943.715	5187.5
943.945	5119.5
944.175	5111.5
944.405	5033.5
944.636	5041.5
944.866	5083.5
945.096	5113.5
945.326	5010.5
945.556	5071.5
945.786	5073.5
946.016	4915.5
946.245	4900.5
946.475	4925.5
946.705	4866.5
946.935	4896.5
947.164	4918.5
947.394	4814.5
947.624	4799.5
947.853	4856.5
948.083	4784.5
948.312	4699.5
948.542	4683.5
948.771	4650.5
949	4680.5
949.23	4675.5
949.459	4700.5
949.688	4716.5
949.917	4665.5
950.146	4683.5
950.375	4712.5
950.604	4620.5
950.833	4690.5
951.062	4706.5
951.291	4614.5
951.52	4555.5
951.749	4583.5
951.978	4519.5
952.206	4510.5
952.435	4554.5
952.664	4557.5
952.892	4526.5
953.121	4462.5
953.349	4483.5
953.578	4499.5
953.806	4459.5
954.035	4399.5
954.263	4440.5
954.491	4307.5
954.719	4386.5
954.948	4350.5
955.176	4272.5
955.404	4254.5
955.632	4294.5
955.86	4274.5
956.088	4259.5
956.316	4237.5
956.544	4235.5
956.772	4163.5
956.999	4121.5
957.227	4190.5
957.455	4070.5
957.683	4154.5
957.91	4021.5
958.138	4007.5
958.365	4036.5
958.593	4010.5
958.82	3937.5
959.048	4035.5
959.275	3982.5
959.502	3995.5
959.73	3945.5
959.957	3939.5
960.184	3954.5
960.411	3910.5
960.638	3979.5
960.865	3898.5
961.092	3949.5
961.319	3851.5
961.546	3937.5
961.773	3952.5
962	3874.5
962.227	3892.5
962.454	3866.5
962.68	3854.5
962.907	3817.5
963.134	3808.5
963.36	3769.5
963.587	3735.5
963.813	3697.5
964.04	3732.5
964.266	3629.5
964.493	3730.5
964.719	3702.5
964.945	3683.5
965.171	3583.5
965.398	3624.5
965.624	3588.5
965.85	3506.5
966.076	3518.5
966.302	3586.5
966.528	3532.5
966.754	3579.5
966.98	3515.5
967.206	3511.5
967.431	3425.5
967.657	3504.5
967.883	3440.5
968.109	3433.5
968.334	3396.5
968.56	3375.5
968.785	3415.5
969.011	3393.5
969.236	3450.5
969.462	3379.5
969.687	3401.5
969.912	3399.5
970.138	3446.5
970.363	3299.5
970.588	3355.5
970.813	3340.5
971.038	3272.5
971.263	3262.5
971.488	3262.5
971.713	3282.5
971.938	3289.5
972.163	3148.5
972.388	3228.5
972.613	3162.5
972.838	3177.5
973.062	3160.5
973.287	3117.5
973.512	3133.5
973.736	3136.5
973.961	3103.5
974.185	3114.5
974.41	3070.5
974.634	2950.5
974.858	3008.5
975.083	3050.5
975.307	3014.5
975.531	2988.5
975.755	2907.5
975.98	2931.5
976.204	2867.5
976.428	2845.5
976.652	2809.5
976.876	2833.5
977.1	2845.5
977.324	2805.5
977.547	2827.5
977.771	2859.5
977.995	2810.5
978.219	2771.5
978.442	2899.5
978.666	2800.5
978.89	2796.5
979.113	2787.5
979.337	2763.5
979.56	2757.5
979.783	2829.5
980.007	2680.5
980.23	2717.5
980.453	2712.5
980.677	2736.5
980.9	2709.5
981.123	2588.5
981.346	2712.5
981.569	2670.5
981.792	2680.5
982.015	2630.5
982.238	2567.5
982.461	2593.5
982.684	2538.5
982.907	2558.5
983.129	2549.5
983.352	2570.5
983.575	2547.5
983.797	2538.5
984.02	2483.5
984.242	2499.5
984.465	2491.5
984.687	2499.5
984.91	2532.5
985.132	2504.5
985.354	2556.5
985.577	2482.5
985.799	2466.5
986.021	2363.5
986.243	2375.5
986.465	2435.5
986.687	2433.5
986.909	2481.5
987.131	2407.5
987.353	2376.5
987.575	2406.5
987.797	2382.5
988.019	2300.5
988.241	2364.5
988.462	2296.5
988.684	2375.5
988.906	2384.5
989.127	2399.5
989.349	2255.5
989.57	2288.5
989.792	2329.5
990.013	2363.5
990.234	2341.5
990.456	2393.5
990.677	2381.5
990.898	2271.5
991.119	2254.5
991.341	2306.5
991.562	2238.5
991.783	2267.5
992.004	2191.5
992.225	2155.5
992.446	2225.5
992.667	2125.5
992.887	2202.5
993.108	2098.5
993.329	2231.5
993.55	2189.5
993.77	2099.5
993.991	2094.5
994.212	2104.5
994.432	2112.5
994.653	2139.5
994.873	2103.5
995.093	1972.5
995.314	2014.5
995.534	2101.5
995.754	2119.5
995.975	2108.5
996.195	2010.5
996.415	2084.5
996.635	2026.5
996.855	2046.5
997.075	2027.5
997.295	2036.5
997.515	2008.5
997.735	2061.5
997.955	2012.5
998.174	2008.5
998.394	1974.5
998.614	2003.5
998.834	1968.5
999.053	2066.5
999.273	2004.5
999.492	2055.5
999.712	1994.5
999.931	1956.5
1000.151	1976.5
1000.37	1941.5
1000.589	2000.5
1000.809	1890.5
1001.028	2012.5
1001.247	1946.5
1001.466	1834.5
1001.685	2034.5
1001.904	1923.5
1002.123	1888.5
1002.342	1892.5
1002.561	1857.5
1002.78	1874.5
1002.999	1927.5
1003.218	1873.5
1003.436	1858.5
1003.655	1874.5
1003.874	1846.5
1004.092	1819.5
1004.311	1847.5
1004.53	1832.5
1004.748	1887.5
1004.966	1825.5
1005.185	1884.5
1005.403	1880.5
1005.622	1861.5
1005.84	1903.5
1006.058	1825.5
1006.276	1807.5
1006.494	2186.5
1006.712	1831.5
1006.931	1886.5
1007.149	1793.5
1007.367	1801.5
1007.584	1849.5
1007.802	1904.5
1008.02	1819.5
1008.238	1967.5
1008.456	1915.5
1008.673	1819.5
1008.891	1904.5
1009.109	1882.5
1009.326	1923.5
1009.544	2028.5
1009.761	1949.5
1009.979	2079.5
1010.196	2077.5
1010.413	2192.5
1010.631	2276.5
1010.848	2329.5
1011.065	2314.5
1011.282	2271.5
1011.5	2202.5
1011.717	2309.5
1011.934	2232.5
1012.151	2267.5
1012.368	2250.5
1012.585	2205.5
1012.801	2278.5
1013.018	2227.5
1013.235	2219.5
1013.452	2230.5
1013.669	2272.5
1013.885	2251.5
1014.102	2249.5
1014.318	2229.5
1014.535	2183.5
1014.751	2215.5
1014.968	2203.5
1015.184	2215.5
1015.401	2126.5
1015.617	2168.5
1015.833	2072.5
1016.049	2086.5
1016.266	2061.5
1016.482	2066.5
1016.698	1984.5
1016.914	2039.5
1017.13	1967.5
1017.346	1981.5
1017.562	2025.5
1017.778	1931.5
1017.993	1939.5
1018.209	1982.5
1018.425	1962.5
1018.641	1900.5
1018.856	1900.5
1019.072	1909.5
1019.288	1944.5
1019.503	1901.5
1019.719	1871.5
1019.934	1810.5
1020.149	1895.5
1020.365	1817.5
1020.58	1758.5
1020.795	1796.5
1021.011	1722.5
1021.226	1689.5
1021.441	1712.5
1021.656	1613.5
1021.871	1553.5
1022.086	1535.5
1022.301	1518.5
1022.516	1491.5
1022.731	1526.5
1022.946	1464.5
1023.16	1428.5
1023.375	1378.5
1023.59	1403.5
1023.804	1333.5
1024.019	1416.5
1024.234	1292.5
1024.448	1301.5
1024.663	1256.5
1024.877	1233.5
1025.092	1270.5
1025.306	1274.5
1025.52	1137.5
1025.734	1213.5
1025.949	1130.5
1026.163	1114.5
1026.377	1039.5
1026.591	1089.5
1026.805	1033.5
1027.019	1030.5
1027.233	982.5
1027.447	898.5
1027.661	1014.5
1027.875	948.5
1028.088	948.5
1028.302	904.5
1028.516	853.5
1028.73	843.5
1028.943	835.5
1029.157	773.5
1029.37	726.5
1029.584	-1.5
1029.797	-1.5
1030.011	-3.5
1030.224	-1.5
