Data from QEP037381__126__11-03-10-215.txt Node

Date: Fri Apr 28 11:03:10 EDT 2023
User: dcclab
Spectrometer: QEP03738
Trigger mode: 4
Integration Time (sec): 1.000000E1
Scans to average: 1
Electric dark correction enabled: true
Nonlinearity correction enabled: false
Boxcar width: 0
XAxis mode: Wavelengths
Number of Pixels in Spectrum: 1044
>>>>>Begin Spectral Data<<<<<
784.041	14.12
784.3	4.12
784.558	-2.88
784.817	-4.88
785.075	71857.12
785.334	14713.12
785.592	7624.12
785.851	5414.12
786.109	4149.12
786.368	3200.12
786.626	2581.12
786.884	2200.12
787.143	1831.12
787.401	1526.12
787.659	1373.12
787.917	1175.12
788.175	1084.12
788.433	962.12
788.691	852.12
788.949	785.12
789.207	767.12
789.465	673.12
789.723	640.12
789.98	573.12
790.238	640.12
790.496	600.12
790.753	562.12
791.011	624.12
791.268	538.12
791.526	527.12
791.783	539.12
792.041	539.12
792.298	455.12
792.556	510.12
792.813	505.12
793.07	495.12
793.327	458.12
793.584	559.12
793.841	476.12
794.099	502.12
794.356	555.12
794.613	445.12
794.869	490.12
795.126	449.12
795.383	443.12
795.64	437.12
795.897	392.12
796.153	473.12
796.41	463.12
796.667	430.12
796.923	463.12
797.18	449.12
797.436	490.12
797.693	424.12
797.949	491.12
798.206	522.12
798.462	449.12
798.718	521.12
798.974	495.12
799.231	539.12
799.487	536.12
799.743	532.12
799.999	566.12
800.255	563.12
800.511	566.12
800.767	617.12
801.023	626.12
801.279	690.12
801.534	740.12
801.79	834.12
802.046	904.12
802.302	1104.12
802.557	1354.12
802.813	1782.12
803.068	2363.12
803.324	3427.12
803.579	4907.12
803.835	6898.12
804.09	9446.12
804.345	12236.12
804.601	14913.12
804.856	17419.12
805.111	19408.12
805.366	20713.12
805.621	21583.12
805.876	22323.12
806.131	22612.12
806.386	23018.12
806.641	23436.12
806.896	23809.12
807.151	24217.12
807.406	24554.12
807.661	24936.12
807.915	25426.12
808.17	25850.12
808.425	26113.12
808.679	26447.12
808.934	26835.12
809.188	27033.12
809.443	27331.12
809.697	27633.12
809.951	27979.12
810.206	28003.12
810.46	28318.12
810.714	28495.12
810.968	28814.12
811.223	29006.12
811.477	29338.12
811.731	29381.12
811.985	29469.12
812.239	29857.12
812.493	29926.12
812.747	30078.12
813	30130.12
813.254	30396.12
813.508	30423.12
813.762	30552.12
814.015	30762.12
814.269	30893.12
814.522	31214.12
814.776	31476.12
815.03	31814.12
815.283	32311.12
815.536	32743.12
815.79	33189.12
816.043	33743.12
816.296	34130.12
816.55	34450.12
816.803	34994.12
817.056	35476.12
817.309	35923.12
817.562	36272.12
817.815	36636.12
818.068	36871.12
818.321	37306.12
818.574	37931.12
818.827	38261.12
819.079	38838.12
819.332	39583.12
819.585	39932.12
819.838	40615.12
820.09	40779.12
820.343	41146.12
820.595	41326.12
820.848	41548.12
821.1	41728.12
821.353	41830.12
821.605	41742.12
821.857	41741.12
822.11	41518.12
822.362	41373.12
822.614	41315.12
822.866	41338.12
823.118	41357.12
823.37	41485.12
823.622	41491.12
823.874	41597.12
824.126	41730.12
824.378	41833.12
824.63	41883.12
824.882	42113.12
825.134	41866.12
825.385	42033.12
825.637	41878.12
825.888	41672.12
826.14	41607.12
826.392	41298.12
826.643	41072.12
826.895	41066.12
827.146	40966.12
827.397	40933.12
827.649	40864.12
827.9	40645.12
828.151	40928.12
828.402	40965.12
828.653	41132.12
828.905	41275.12
829.156	41324.12
829.407	41181.12
829.658	41176.12
829.909	41278.12
830.159	41039.12
830.41	40728.12
830.661	40495.12
830.912	40250.12
831.162	40086.12
831.413	40115.12
831.664	39911.12
831.914	39947.12
832.165	39818.12
832.415	39704.12
832.666	39831.12
832.916	39791.12
833.167	39750.12
833.417	39529.12
833.667	39439.12
833.917	39346.12
834.168	39202.12
834.418	39112.12
834.668	39007.12
834.918	38697.12
835.168	38671.12
835.418	38541.12
835.668	38334.12
835.918	38400.12
836.167	38198.12
836.417	37944.12
836.667	37980.12
836.917	37975.12
837.166	37763.12
837.416	37776.12
837.666	37892.12
837.915	37636.12
838.165	37557.12
838.414	37256.12
838.663	37212.12
838.913	37245.12
839.162	36945.12
839.411	37099.12
839.661	36883.12
839.91	36754.12
840.159	36783.12
840.408	36738.12
840.657	36642.12
840.906	36769.12
841.155	36660.12
841.404	36645.12
841.653	36663.12
841.902	36563.12
842.15	36646.12
842.399	36736.12
842.648	36571.12
842.897	36353.12
843.145	36212.12
843.394	35863.12
843.642	35809.12
843.891	35434.12
844.139	35343.12
844.388	35206.12
844.636	35160.12
844.884	35019.12
845.133	34946.12
845.381	34841.12
845.629	34744.12
845.877	34702.12
846.125	34648.12
846.373	34592.12
846.621	34471.12
846.869	34376.12
847.117	34143.12
847.365	34025.12
847.613	33806.12
847.861	33675.12
848.108	33641.12
848.356	33560.12
848.604	33517.12
848.851	33559.12
849.099	33680.12
849.346	33610.12
849.594	33622.12
849.841	33832.12
850.089	33964.12
850.336	33738.12
850.583	33804.12
850.831	33601.12
851.078	33317.12
851.325	33287.12
851.572	33123.12
851.819	32686.12
852.066	32331.12
852.313	31908.12
852.56	31642.12
852.807	31461.12
853.054	31399.12
853.301	31294.12
853.548	31448.12
853.794	31354.12
854.041	31525.12
854.288	31642.12
854.534	31928.12
854.781	31795.12
855.028	31858.12
855.274	31711.12
855.52	31503.12
855.767	31349.12
856.013	31271.12
856.26	31425.12
856.506	30797.12
856.752	30893.12
856.998	30725.12
857.244	30710.12
857.49	31038.12
857.736	30959.12
857.982	30798.12
858.228	30775.12
858.474	30656.12
858.72	30504.12
858.966	30108.12
859.212	29970.12
859.458	29641.12
859.703	29358.12
859.949	29073.12
860.195	28826.12
860.44	28659.12
860.686	28491.12
860.931	28572.12
861.177	28218.12
861.422	28167.12
861.667	28036.12
861.913	28061.12
862.158	28121.12
862.403	28212.12
862.648	28324.12
862.893	28378.12
863.138	28101.12
863.384	28130.12
863.629	28036.12
863.873	28022.12
864.118	27841.12
864.363	27701.12
864.608	27438.12
864.853	27433.12
865.098	27240.12
865.342	27047.12
865.587	26961.12
865.832	26846.12
866.076	26815.12
866.321	26625.12
866.565	26594.12
866.81	26468.12
867.054	26419.12
867.298	26441.12
867.543	26305.12
867.787	26319.12
868.031	26263.12
868.275	26277.12
868.519	26191.12
868.764	26136.12
869.008	26122.12
869.252	25994.12
869.496	25939.12
869.739	25715.12
869.983	25883.12
870.227	25764.12
870.471	25686.12
870.715	25859.12
870.958	25661.12
871.202	25784.12
871.446	25804.12
871.689	25746.12
871.933	25823.12
872.176	25867.12
872.42	25626.12
872.663	25508.12
872.906	25525.12
873.15	25259.12
873.393	25269.12
873.636	25075.12
873.879	24825.12
874.122	24582.12
874.366	24235.12
874.609	24084.12
874.852	24022.12
875.095	23794.12
875.337	23710.12
875.58	23564.12
875.823	23530.12
876.066	23529.12
876.309	23402.12
876.551	23186.12
876.794	23124.12
877.037	23137.12
877.279	23158.12
877.522	23032.12
877.764	23024.12
878.007	23076.12
878.249	23070.12
878.491	23025.12
878.734	22952.12
878.976	22771.12
879.218	22596.12
879.46	22526.12
879.702	22431.12
879.945	22090.12
880.187	21924.12
880.429	21876.12
880.671	21666.12
880.912	21551.12
881.154	21477.12
881.396	21331.12
881.638	21497.12
881.88	21415.12
882.121	21313.12
882.363	21402.12
882.605	21239.12
882.846	21173.12
883.088	21172.12
883.329	21089.12
883.571	21142.12
883.812	21158.12
884.053	21441.12
884.295	21583.12
884.536	21606.12
884.777	21548.12
885.018	21485.12
885.259	21517.12
885.5	21354.12
885.742	21382.12
885.982	21205.12
886.223	20977.12
886.464	20846.12
886.705	20734.12
886.946	20645.12
887.187	20256.12
887.428	20114.12
887.668	19775.12
887.909	19705.12
888.15	19348.12
888.39	19299.12
888.631	19189.12
888.871	18991.12
889.111	18917.12
889.352	18878.12
889.592	18647.12
889.833	18497.12
890.073	18336.12
890.313	18245.12
890.553	18061.12
890.793	17983.12
891.033	17911.12
891.273	17765.12
891.513	17740.12
891.753	17716.12
891.993	17654.12
892.233	17668.12
892.473	17784.12
892.713	17771.12
892.952	17597.12
893.192	17556.12
893.432	17573.12
893.671	17556.12
893.911	17444.12
894.15	17320.12
894.39	17128.12
894.629	17044.12
894.869	17047.12
895.108	16790.12
895.347	16717.12
895.587	16703.12
895.826	16638.12
896.065	16567.12
896.304	16643.12
896.543	16512.12
896.782	16444.12
897.021	16455.12
897.26	16415.12
897.499	16414.12
897.738	16268.12
897.977	16143.12
898.216	15966.12
898.454	15907.12
898.693	15758.12
898.932	15768.12
899.17	15541.12
899.409	15468.12
899.647	15497.12
899.886	15502.12
900.124	15525.12
900.363	15430.12
900.601	15556.12
900.839	15439.12
901.078	15462.12
901.316	15562.12
901.554	15557.12
901.792	15555.12
902.03	15548.12
902.268	15549.12
902.506	15534.12
902.744	15446.12
902.982	15328.12
903.22	14952.12
903.458	14916.12
903.695	14673.12
903.933	14559.12
904.171	14240.12
904.409	14094.12
904.646	13966.12
904.884	13702.12
905.121	13594.12
905.359	13427.12
905.596	13357.12
905.833	13285.12
906.071	13234.12
906.308	13260.12
906.545	13161.12
906.783	13148.12
907.02	13182.12
907.257	13040.12
907.494	12978.12
907.731	13058.12
907.968	12972.12
908.205	12880.12
908.442	12731.12
908.679	12721.12
908.915	12663.12
909.152	12434.12
909.389	12275.12
909.626	12239.12
909.862	12171.12
910.099	12140.12
910.335	12149.12
910.572	11998.12
910.808	12032.12
911.045	11883.12
911.281	11886.12
911.518	11849.12
911.754	11754.12
911.99	11678.12
912.226	11640.12
912.463	11527.12
912.699	11416.12
912.935	11340.12
913.171	11304.12
913.407	11099.12
913.643	11120.12
913.879	11022.12
914.114	10852.12
914.35	10742.12
914.586	10699.12
914.822	10455.12
915.057	10604.12
915.293	10258.12
915.529	10271.12
915.764	10363.12
916	10327.12
916.235	10274.12
916.471	10222.12
916.706	10144.12
916.941	10227.12
917.177	10158.12
917.412	10177.12
917.647	10184.12
917.882	10067.12
918.117	10085.12
918.352	10117.12
918.588	10067.12
918.823	9893.12
919.057	9808.12
919.292	9633.12
919.527	9715.12
919.762	9490.12
919.997	9438.12
920.232	9353.12
920.466	9304.12
920.701	9084.12
920.935	9169.12
921.17	8979.12
921.405	8964.12
921.639	8916.12
921.873	8938.12
922.108	8931.12
922.342	8817.12
922.576	8768.12
922.811	8778.12
923.045	8792.12
923.279	8776.12
923.513	8555.12
923.747	8667.12
923.981	8531.12
924.215	8550.12
924.449	8464.12
924.683	8308.12
924.917	8251.12
925.151	8237.12
925.385	8263.12
925.618	8244.12
925.852	8211.12
926.086	8109.12
926.319	8187.12
926.553	8119.12
926.786	8125.12
927.02	8142.12
927.253	8153.12
927.486	8146.12
927.72	8050.12
927.953	8120.12
928.186	8030.12
928.42	8000.12
928.653	7901.12
928.886	7949.12
929.119	7937.12
929.352	7829.12
929.585	7785.12
929.818	7733.12
930.051	7679.12
930.284	7559.12
930.516	7445.12
930.749	7412.12
930.982	7424.12
931.215	7403.12
931.447	7261.12
931.68	7295.12
931.912	7301.12
932.145	7189.12
932.377	7217.12
932.61	7435.12
932.842	7210.12
933.074	7268.12
933.307	7154.12
933.539	7314.12
933.771	7210.12
934.003	7209.12
934.236	7242.12
934.468	7242.12
934.7	7198.12
934.932	7167.12
935.164	7108.12
935.395	7030.12
935.627	7050.12
935.859	6991.12
936.091	6912.12
936.323	7034.12
936.554	7013.12
936.786	6930.12
937.017	6806.12
937.249	6868.12
937.481	6796.12
937.712	6797.12
937.943	6770.12
938.175	6815.12
938.406	6753.12
938.637	6815.12
938.869	6700.12
939.1	6782.12
939.331	6659.12
939.562	6679.12
939.793	6698.12
940.024	6721.12
940.255	6647.12
940.486	6543.12
940.717	6550.12
940.948	6535.12
941.179	6425.12
941.409	6475.12
941.64	6461.12
941.871	6411.12
942.102	6408.12
942.332	6451.12
942.563	6407.12
942.793	6434.12
943.024	6380.12
943.254	6403.12
943.484	6415.12
943.715	6408.12
943.945	6411.12
944.175	6336.12
944.405	6304.12
944.636	6321.12
944.866	6334.12
945.096	6305.12
945.326	6279.12
945.556	6255.12
945.786	6261.12
946.016	6187.12
946.245	6086.12
946.475	6089.12
946.705	6052.12
946.935	6043.12
947.164	6033.12
947.394	5924.12
947.624	5942.12
947.853	5943.12
948.083	5880.12
948.312	5829.12
948.542	5788.12
948.771	5764.12
949	5795.12
949.23	5777.12
949.459	5776.12
949.688	5828.12
949.917	5752.12
950.146	5756.12
950.375	5819.12
950.604	5621.12
950.833	5739.12
951.062	5815.12
951.291	5723.12
951.52	5637.12
951.749	5651.12
951.978	5650.12
952.206	5643.12
952.435	5571.12
952.664	5640.12
952.892	5539.12
953.121	5561.12
953.349	5539.12
953.578	5547.12
953.806	5473.12
954.035	5401.12
954.263	5402.12
954.491	5321.12
954.719	5355.12
954.948	5304.12
955.176	5250.12
955.404	5281.12
955.632	5281.12
955.86	5251.12
956.088	5189.12
956.316	5175.12
956.544	5174.12
956.772	5117.12
956.999	5053.12
957.227	5096.12
957.455	5017.12
957.683	5054.12
957.91	5010.12
958.138	4956.12
958.365	4972.12
958.593	4891.12
958.82	4860.12
959.048	4934.12
959.275	4874.12
959.502	4821.12
959.73	4795.12
959.957	4819.12
960.184	4926.12
960.411	4784.12
960.638	4835.12
960.865	4777.12
961.092	4822.12
961.319	4688.12
961.546	4816.12
961.773	4787.12
962	4756.12
962.227	4787.12
962.454	4796.12
962.68	4660.12
962.907	4632.12
963.134	4600.12
963.36	4645.12
963.587	4602.12
963.813	4534.12
964.04	4507.12
964.266	4493.12
964.493	4535.12
964.719	4513.12
964.945	4471.12
965.171	4359.12
965.398	4379.12
965.624	4399.12
965.85	4375.12
966.076	4294.12
966.302	4335.12
966.528	4283.12
966.754	4296.12
966.98	4298.12
967.206	4239.12
967.431	4223.12
967.657	4242.12
967.883	4239.12
968.109	4209.12
968.334	4130.12
968.56	4153.12
968.785	4151.12
969.011	4077.12
969.236	4138.12
969.462	4083.12
969.687	4104.12
969.912	4111.12
970.138	4127.12
970.363	3999.12
970.588	4034.12
970.813	3970.12
971.038	3985.12
971.263	3994.12
971.488	3961.12
971.713	3996.12
971.938	3944.12
972.163	3820.12
972.388	3865.12
972.613	3854.12
972.838	3881.12
973.062	3826.12
973.287	3793.12
973.512	3728.12
973.736	3769.12
973.961	3741.12
974.185	3698.12
974.41	3766.12
974.634	3645.12
974.858	3651.12
975.083	3681.12
975.307	3636.12
975.531	3566.12
975.755	3541.12
975.98	3515.12
976.204	3493.12
976.428	3475.12
976.652	3457.12
976.876	3393.12
977.1	3439.12
977.324	3423.12
977.547	3396.12
977.771	3476.12
977.995	3395.12
978.219	3352.12
978.442	3431.12
978.666	3372.12
978.89	3385.12
979.113	3343.12
979.337	3331.12
979.56	3281.12
979.783	3365.12
980.007	3284.12
980.23	3282.12
980.453	3240.12
980.677	3294.12
980.9	3239.12
981.123	3132.12
981.346	3259.12
981.569	3187.12
981.792	3219.12
982.015	3168.12
982.238	3087.12
982.461	3152.12
982.684	3065.12
982.907	3090.12
983.129	2981.12
983.352	3081.12
983.575	3045.12
983.797	3045.12
984.02	2983.12
984.242	2979.12
984.465	2987.12
984.687	2990.12
984.91	3009.12
985.132	2941.12
985.354	2970.12
985.577	2951.12
985.799	2935.12
986.021	2870.12
986.243	2848.12
986.465	2859.12
986.687	2901.12
986.909	2908.12
987.131	2841.12
987.353	2789.12
987.575	2868.12
987.797	2791.12
988.019	2743.12
988.241	2797.12
988.462	2776.12
988.684	2799.12
988.906	2806.12
989.127	2823.12
989.349	2704.12
989.57	2769.12
989.792	2791.12
990.013	2772.12
990.234	2779.12
990.456	2775.12
990.677	2712.12
990.898	2695.12
991.119	2686.12
991.341	2679.12
991.562	2614.12
991.783	2651.12
992.004	2559.12
992.225	2565.12
992.446	2623.12
992.667	2519.12
992.887	2599.12
993.108	2477.12
993.329	2576.12
993.55	2568.12
993.77	2504.12
993.991	2458.12
994.212	2479.12
994.432	2450.12
994.653	2478.12
994.873	2439.12
995.093	2336.12
995.314	2389.12
995.534	2455.12
995.754	2491.12
995.975	2455.12
996.195	2353.12
996.415	2422.12
996.635	2400.12
996.855	2376.12
997.075	2352.12
997.295	2351.12
997.515	2308.12
997.735	2403.12
997.955	2359.12
998.174	2311.12
998.394	2288.12
998.614	2370.12
998.834	2309.12
999.053	2354.12
999.273	2302.12
999.492	2393.12
999.712	2282.12
999.931	2246.12
1000.151	2305.12
1000.37	2240.12
1000.589	2293.12
1000.809	2216.12
1001.028	2325.12
1001.247	2250.12
1001.466	2123.12
1001.685	2262.12
1001.904	2217.12
1002.123	2203.12
1002.342	2200.12
1002.561	2130.12
1002.78	2137.12
1002.999	2186.12
1003.218	2159.12
1003.436	2134.12
1003.655	2167.12
1003.874	2081.12
1004.092	2100.12
1004.311	2153.12
1004.53	2112.12
1004.748	2179.12
1004.966	2096.12
1005.185	2149.12
1005.403	2103.12
1005.622	2102.12
1005.84	2124.12
1006.058	2047.12
1006.276	2074.12
1006.494	2472.12
1006.712	2081.12
1006.931	2125.12
1007.149	2035.12
1007.367	2029.12
1007.584	2067.12
1007.802	2134.12
1008.02	2057.12
1008.238	2154.12
1008.456	2153.12
1008.673	2012.12
1008.891	2145.12
1009.109	2136.12
1009.326	2184.12
1009.544	2250.12
1009.761	2155.12
1009.979	2240.12
1010.196	2313.12
1010.413	2395.12
1010.631	2440.12
1010.848	2506.12
1011.065	2464.12
1011.282	2454.12
1011.5	2359.12
1011.717	2503.12
1011.934	2419.12
1012.151	2422.12
1012.368	2415.12
1012.585	2345.12
1012.801	2395.12
1013.018	2367.12
1013.235	2298.12
1013.452	2351.12
1013.669	2388.12
1013.885	2336.12
1014.102	2421.12
1014.318	2371.12
1014.535	2330.12
1014.751	2362.12
1014.968	2309.12
1015.184	2332.12
1015.401	2238.12
1015.617	2271.12
1015.833	2236.12
1016.049	2197.12
1016.266	2212.12
1016.482	2195.12
1016.698	2078.12
1016.914	2158.12
1017.13	2105.12
1017.346	2074.12
1017.562	2170.12
1017.778	2065.12
1017.993	2029.12
1018.209	2066.12
1018.425	2083.12
1018.641	2004.12
1018.856	1982.12
1019.072	2028.12
1019.288	2084.12
1019.503	2031.12
1019.719	1920.12
1019.934	1937.12
1020.149	2018.12
1020.365	1919.12
1020.58	1878.12
1020.795	1939.12
1021.011	1834.12
1021.226	1805.12
1021.441	1824.12
1021.656	1743.12
1021.871	1662.12
1022.086	1652.12
1022.301	1602.12
1022.516	1613.12
1022.731	1628.12
1022.946	1560.12
1023.16	1523.12
1023.375	1474.12
1023.59	1497.12
1023.804	1457.12
1024.019	1514.12
1024.234	1373.12
1024.448	1408.12
1024.663	1343.12
1024.877	1349.12
1025.092	1344.12
1025.306	1345.12
1025.52	1232.12
1025.734	1320.12
1025.949	1237.12
1026.163	1203.12
1026.377	1127.12
1026.591	1153.12
1026.805	1106.12
1027.019	1100.12
1027.233	1064.12
1027.447	1021.12
1027.661	1137.12
1027.875	1025.12
1028.088	1038.12
1028.302	953.12
1028.516	919.12
1028.73	928.12
1028.943	924.12
1029.157	837.12
1029.37	791.12
1029.584	-6.88
1029.797	-1.88
1030.011	-4.88
1030.224	3.12
