Data from QEP037381__121__11-02-20-215.txt Node

Date: Fri Apr 28 11:02:20 EDT 2023
User: dcclab
Spectrometer: QEP03738
Trigger mode: 4
Integration Time (sec): 1.000000E1
Scans to average: 1
Electric dark correction enabled: true
Nonlinearity correction enabled: false
Boxcar width: 0
XAxis mode: Wavelengths
Number of Pixels in Spectrum: 1044
>>>>>Begin Spectral Data<<<<<
784.041	13.75
784.3	-2.25
784.558	-3.25
784.817	-4.25
785.075	75509.75
785.334	14759.75
785.592	7677.75
785.851	5417.75
786.109	4110.75
786.368	3208.75
786.626	2590.75
786.884	2167.75
787.143	1823.75
787.401	1503.75
787.659	1344.75
787.917	1168.75
788.175	1070.75
788.433	938.75
788.691	842.75
788.949	763.75
789.207	743.75
789.465	650.75
789.723	633.75
789.98	585.75
790.238	604.75
790.496	567.75
790.753	544.75
791.011	589.75
791.268	543.75
791.526	505.75
791.783	534.75
792.041	504.75
792.298	433.75
792.556	487.75
792.813	471.75
793.07	448.75
793.327	433.75
793.584	508.75
793.841	453.75
794.099	470.75
794.356	524.75
794.613	426.75
794.869	470.75
795.126	422.75
795.383	408.75
795.64	435.75
795.897	382.75
796.153	446.75
796.41	422.75
796.667	421.75
796.923	422.75
797.18	437.75
797.436	454.75
797.693	411.75
797.949	462.75
798.206	505.75
798.462	410.75
798.718	477.75
798.974	454.75
799.231	493.75
799.487	486.75
799.743	515.75
799.999	539.75
800.255	534.75
800.511	504.75
800.767	571.75
801.023	547.75
801.279	594.75
801.534	655.75
801.79	701.75
802.046	749.75
802.302	947.75
802.557	1094.75
802.813	1437.75
803.068	1881.75
803.324	2641.75
803.579	3638.75
803.835	5089.75
804.09	6874.75
804.345	8733.75
804.601	10561.75
804.856	12272.75
805.111	13553.75
805.366	14422.75
805.621	15034.75
805.876	15555.75
806.131	15951.75
806.386	16163.75
806.641	16481.75
806.896	16700.75
807.151	16997.75
807.406	17219.75
807.661	17571.75
807.915	17796.75
808.17	18148.75
808.425	18400.75
808.679	18591.75
808.934	18828.75
809.188	18939.75
809.443	19123.75
809.697	19474.75
809.951	19595.75
810.206	19753.75
810.46	19955.75
810.714	20151.75
810.968	20237.75
811.223	20409.75
811.477	20500.75
811.731	20795.75
811.985	20865.75
812.239	20874.75
812.493	20991.75
812.747	21166.75
813	21086.75
813.254	21344.75
813.508	21458.75
813.762	21456.75
814.015	21603.75
814.269	21761.75
814.522	21969.75
814.776	22157.75
815.03	22377.75
815.283	22716.75
815.536	22984.75
815.79	23367.75
816.043	23721.75
816.296	23986.75
816.55	24278.75
816.803	24526.75
817.056	24985.75
817.309	25130.75
817.562	25562.75
817.815	25667.75
818.068	26045.75
818.321	26294.75
818.574	26591.75
818.827	26931.75
819.079	27433.75
819.332	28016.75
819.585	28221.75
819.838	28599.75
820.09	28794.75
820.343	28880.75
820.595	29048.75
820.848	29262.75
821.1	29506.75
821.353	29377.75
821.605	29442.75
821.857	29311.75
822.11	29199.75
822.362	29173.75
822.614	29155.75
822.866	29338.75
823.118	29246.75
823.37	29308.75
823.622	29494.75
823.874	29443.75
824.126	29747.75
824.378	29742.75
824.63	29631.75
824.882	29794.75
825.134	29794.75
825.385	29736.75
825.637	29588.75
825.888	29688.75
826.14	29647.75
826.392	29398.75
826.643	29341.75
826.895	29338.75
827.146	29142.75
827.397	29037.75
827.649	29071.75
827.9	29060.75
828.151	29064.75
828.402	29185.75
828.653	29325.75
828.905	29328.75
829.156	29386.75
829.407	29507.75
829.658	29503.75
829.909	29694.75
830.159	29700.75
830.41	29549.75
830.661	29284.75
830.912	29043.75
831.162	29044.75
831.413	29052.75
831.664	29014.75
831.914	28835.75
832.165	28811.75
832.415	28891.75
832.666	28874.75
832.916	28949.75
833.167	28831.75
833.417	28966.75
833.667	28669.75
833.917	28693.75
834.168	28639.75
834.418	28577.75
834.668	28300.75
834.918	28347.75
835.168	28265.75
835.418	28018.75
835.668	27994.75
835.918	28063.75
836.167	27954.75
836.417	27823.75
836.667	27836.75
836.917	27743.75
837.166	27715.75
837.416	27853.75
837.666	27827.75
837.915	27794.75
838.165	27734.75
838.414	27619.75
838.663	27607.75
838.913	27632.75
839.162	27462.75
839.411	27626.75
839.661	27387.75
839.91	27406.75
840.159	27545.75
840.408	27468.75
840.657	27427.75
840.906	27470.75
841.155	27461.75
841.404	27342.75
841.653	27491.75
841.902	27566.75
842.15	27658.75
842.399	27697.75
842.648	27528.75
842.897	27536.75
843.145	27227.75
843.394	27084.75
843.642	26920.75
843.891	26874.75
844.139	26661.75
844.388	26652.75
844.636	26248.75
844.884	26393.75
845.133	26417.75
845.381	26316.75
845.629	26375.75
845.877	26297.75
846.125	26446.75
846.373	26267.75
846.621	26174.75
846.869	26085.75
847.117	25999.75
847.365	25895.75
847.613	25803.75
847.861	25637.75
848.108	25733.75
848.356	25662.75
848.604	25731.75
848.851	25688.75
849.099	25721.75
849.346	25789.75
849.594	25795.75
849.841	25979.75
850.089	25919.75
850.336	26096.75
850.583	25958.75
850.831	25918.75
851.078	25823.75
851.325	25790.75
851.572	25725.75
851.819	25364.75
852.066	24992.75
852.313	24576.75
852.56	24424.75
852.807	24360.75
853.054	24334.75
853.301	24410.75
853.548	24294.75
853.794	24599.75
854.041	24463.75
854.288	24729.75
854.534	24830.75
854.781	24908.75
855.028	24882.75
855.274	24796.75
855.52	24823.75
855.767	24718.75
856.013	24755.75
856.26	25080.75
856.506	24421.75
856.752	24369.75
856.998	24410.75
857.244	24285.75
857.49	24564.75
857.736	24652.75
857.982	24649.75
858.228	24559.75
858.474	24086.75
858.72	24012.75
858.966	23776.75
859.212	23616.75
859.458	23327.75
859.703	23100.75
859.949	22830.75
860.195	22890.75
860.44	22811.75
860.686	22795.75
860.931	22802.75
861.177	22568.75
861.422	22325.75
861.667	22278.75
861.913	22194.75
862.158	22173.75
862.403	22340.75
862.648	22391.75
862.893	22406.75
863.138	22403.75
863.384	22255.75
863.629	22172.75
863.873	22187.75
864.118	22090.75
864.363	22034.75
864.608	21932.75
864.853	21827.75
865.098	21593.75
865.342	21585.75
865.587	21551.75
865.832	21503.75
866.076	21415.75
866.321	21360.75
866.565	21283.75
866.81	21270.75
867.054	21256.75
867.298	21154.75
867.543	21115.75
867.787	21133.75
868.031	20979.75
868.275	21090.75
868.519	21077.75
868.764	21057.75
869.008	21037.75
869.252	21040.75
869.496	21005.75
869.739	20938.75
869.983	21086.75
870.227	21100.75
870.471	21029.75
870.715	21144.75
870.958	21141.75
871.202	21264.75
871.446	21163.75
871.689	21210.75
871.933	21122.75
872.176	21219.75
872.42	21091.75
872.663	20922.75
872.906	21094.75
873.15	21094.75
873.393	21029.75
873.636	21016.75
873.879	20743.75
874.122	20493.75
874.366	20067.75
874.609	20018.75
874.852	19829.75
875.095	19788.75
875.337	19728.75
875.58	19480.75
875.823	19441.75
876.066	19445.75
876.309	19594.75
876.551	19192.75
876.794	19132.75
877.037	19153.75
877.279	19062.75
877.522	19079.75
877.764	19188.75
878.007	18932.75
878.249	19002.75
878.491	18918.75
878.734	18932.75
878.976	18912.75
879.218	18583.75
879.46	18591.75
879.702	18415.75
879.945	18354.75
880.187	18100.75
880.429	18015.75
880.671	17950.75
880.912	17749.75
881.154	17851.75
881.396	17671.75
881.638	17817.75
881.88	17721.75
882.121	17714.75
882.363	17761.75
882.605	17716.75
882.846	17642.75
883.088	17784.75
883.329	17730.75
883.571	17758.75
883.812	18081.75
884.053	18510.75
884.295	18990.75
884.536	19120.75
884.777	19002.75
885.018	18829.75
885.259	18757.75
885.5	18610.75
885.742	18692.75
885.982	18467.75
886.223	18272.75
886.464	18175.75
886.705	17857.75
886.946	17743.75
887.187	17348.75
887.428	17198.75
887.668	16790.75
887.909	16575.75
888.15	16327.75
888.39	16151.75
888.631	16127.75
888.871	15938.75
889.111	15887.75
889.352	15743.75
889.592	15531.75
889.833	15454.75
890.073	15328.75
890.313	15328.75
890.553	15170.75
890.793	15036.75
891.033	14992.75
891.273	14958.75
891.513	14823.75
891.753	14826.75
891.993	14851.75
892.233	14876.75
892.473	14955.75
892.713	14878.75
892.952	14813.75
893.192	14878.75
893.432	14862.75
893.671	14866.75
893.911	14689.75
894.15	14590.75
894.39	14516.75
894.629	14361.75
894.869	14306.75
895.108	14241.75
895.347	14148.75
895.587	14093.75
895.826	14136.75
896.065	14106.75
896.304	14059.75
896.543	14061.75
896.782	13937.75
897.021	13959.75
897.26	13890.75
897.499	13911.75
897.738	13969.75
897.977	13783.75
898.216	13705.75
898.454	13637.75
898.693	13459.75
898.932	13479.75
899.17	13469.75
899.409	13353.75
899.647	13388.75
899.886	13352.75
900.124	13339.75
900.363	13328.75
900.601	13405.75
900.839	13408.75
901.078	13448.75
901.316	13611.75
901.554	13665.75
901.792	13718.75
902.03	13748.75
902.268	13735.75
902.506	13671.75
902.744	13539.75
902.982	13535.75
903.22	13269.75
903.458	12974.75
903.695	12782.75
903.933	12690.75
904.171	12446.75
904.409	12211.75
904.646	12081.75
904.884	11871.75
905.121	11813.75
905.359	11663.75
905.596	11583.75
905.833	11418.75
906.071	11382.75
906.308	11471.75
906.545	11394.75
906.783	11220.75
907.02	11265.75
907.257	11251.75
907.494	11289.75
907.731	11215.75
907.968	11139.75
908.205	11077.75
908.442	11015.75
908.679	10941.75
908.915	10908.75
909.152	10816.75
909.389	10661.75
909.626	10614.75
909.862	10437.75
910.099	10487.75
910.335	10453.75
910.572	10364.75
910.808	10365.75
911.045	10314.75
911.281	10293.75
911.518	10292.75
911.754	10134.75
911.99	10181.75
912.226	10064.75
912.463	9962.75
912.699	9874.75
912.935	9809.75
913.171	9724.75
913.407	9663.75
913.643	9572.75
913.879	9519.75
914.114	9425.75
914.35	9314.75
914.586	9225.75
914.822	9175.75
915.057	9250.75
915.293	8931.75
915.529	8918.75
915.764	9026.75
916	8990.75
916.235	9035.75
916.471	8982.75
916.706	8867.75
916.941	8887.75
917.177	8908.75
917.412	8934.75
917.647	8967.75
917.882	8769.75
918.117	8850.75
918.352	8770.75
918.588	8775.75
918.823	8650.75
919.057	8606.75
919.292	8434.75
919.527	8477.75
919.762	8334.75
919.997	8351.75
920.232	8157.75
920.466	8142.75
920.701	7934.75
920.935	7931.75
921.17	7915.75
921.405	7889.75
921.639	7853.75
921.873	7811.75
922.108	7796.75
922.342	7817.75
922.576	7766.75
922.811	7731.75
923.045	7685.75
923.279	7714.75
923.513	7605.75
923.747	7635.75
923.981	7565.75
924.215	7450.75
924.449	7437.75
924.683	7385.75
924.917	7324.75
925.151	7271.75
925.385	7392.75
925.618	7338.75
925.852	7227.75
926.086	7190.75
926.319	7202.75
926.553	7262.75
926.786	7211.75
927.02	7170.75
927.253	7197.75
927.486	7209.75
927.72	7037.75
927.953	7178.75
928.186	7046.75
928.42	7085.75
928.653	6956.75
928.886	7003.75
929.119	6997.75
929.352	6909.75
929.585	6922.75
929.818	6772.75
930.051	6798.75
930.284	6731.75
930.516	6605.75
930.749	6593.75
930.982	6604.75
931.215	6618.75
931.447	6475.75
931.68	6537.75
931.912	6483.75
932.145	6411.75
932.377	6463.75
932.61	6615.75
932.842	6420.75
933.074	6540.75
933.307	6446.75
933.539	6531.75
933.771	6504.75
934.003	6416.75
934.236	6486.75
934.468	6528.75
934.7	6382.75
934.932	6405.75
935.164	6293.75
935.395	6335.75
935.627	6342.75
935.859	6341.75
936.091	6246.75
936.323	6258.75
936.554	6258.75
936.786	6188.75
937.017	6104.75
937.249	6179.75
937.481	6086.75
937.712	6185.75
937.943	6060.75
938.175	6027.75
938.406	6083.75
938.637	6087.75
938.869	6002.75
939.1	6050.75
939.331	5997.75
939.562	6029.75
939.793	5962.75
940.024	5972.75
940.255	5938.75
940.486	5897.75
940.717	5885.75
940.948	5818.75
941.179	5802.75
941.409	5827.75
941.64	5728.75
941.871	5810.75
942.102	5768.75
942.332	5766.75
942.563	5857.75
942.793	5803.75
943.024	5687.75
943.254	5739.75
943.484	5756.75
943.715	5790.75
943.945	5812.75
944.175	5670.75
944.405	5621.75
944.636	5629.75
944.866	5712.75
945.096	5670.75
945.326	5609.75
945.556	5646.75
945.786	5659.75
946.016	5531.75
946.245	5552.75
946.475	5492.75
946.705	5466.75
946.935	5424.75
947.164	5440.75
947.394	5364.75
947.624	5317.75
947.853	5413.75
948.083	5310.75
948.312	5261.75
948.542	5227.75
948.771	5214.75
949	5209.75
949.23	5207.75
949.459	5216.75
949.688	5272.75
949.917	5192.75
950.146	5222.75
950.375	5282.75
950.604	5131.75
950.833	5182.75
951.062	5238.75
951.291	5143.75
951.52	5130.75
951.749	5150.75
951.978	5086.75
952.206	5081.75
952.435	5085.75
952.664	5099.75
952.892	5088.75
953.121	5044.75
953.349	4999.75
953.578	5011.75
953.806	4939.75
954.035	4876.75
954.263	4881.75
954.491	4879.75
954.719	4870.75
954.948	4807.75
955.176	4820.75
955.404	4692.75
955.632	4782.75
955.86	4810.75
956.088	4718.75
956.316	4730.75
956.544	4718.75
956.772	4631.75
956.999	4616.75
957.227	4708.75
957.455	4560.75
957.683	4549.75
957.91	4510.75
958.138	4470.75
958.365	4473.75
958.593	4452.75
958.82	4421.75
959.048	4461.75
959.275	4413.75
959.502	4372.75
959.73	4390.75
959.957	4437.75
960.184	4450.75
960.411	4354.75
960.638	4456.75
960.865	4379.75
961.092	4381.75
961.319	4219.75
961.546	4367.75
961.773	4387.75
962	4317.75
962.227	4315.75
962.454	4272.75
962.68	4276.75
962.907	4276.75
963.134	4230.75
963.36	4206.75
963.587	4209.75
963.813	4190.75
964.04	4152.75
964.266	4055.75
964.493	4131.75
964.719	4122.75
964.945	4097.75
965.171	3995.75
965.398	3981.75
965.624	4008.75
965.85	3920.75
966.076	3938.75
966.302	3945.75
966.528	3929.75
966.754	3925.75
966.98	3954.75
967.206	3916.75
967.431	3824.75
967.657	3866.75
967.883	3854.75
968.109	3839.75
968.334	3786.75
968.56	3781.75
968.785	3791.75
969.011	3769.75
969.236	3815.75
969.462	3708.75
969.687	3696.75
969.912	3757.75
970.138	3766.75
970.363	3674.75
970.588	3753.75
970.813	3721.75
971.038	3664.75
971.263	3660.75
971.488	3663.75
971.713	3711.75
971.938	3622.75
972.163	3511.75
972.388	3565.75
972.613	3495.75
972.838	3529.75
973.062	3498.75
973.287	3501.75
973.512	3416.75
973.736	3441.75
973.961	3433.75
974.185	3443.75
974.41	3446.75
974.634	3311.75
974.858	3295.75
975.083	3341.75
975.307	3370.75
975.531	3312.75
975.755	3277.75
975.98	3241.75
976.204	3215.75
976.428	3166.75
976.652	3193.75
976.876	3150.75
977.1	3182.75
977.324	3134.75
977.547	3157.75
977.771	3161.75
977.995	3126.75
978.219	3088.75
978.442	3170.75
978.666	3108.75
978.89	3083.75
979.113	3108.75
979.337	3094.75
979.56	3040.75
979.783	3146.75
980.007	3029.75
980.23	3069.75
980.453	2960.75
980.677	3016.75
980.9	2992.75
981.123	2874.75
981.346	2970.75
981.569	2964.75
981.792	2963.75
982.015	2941.75
982.238	2902.75
982.461	2858.75
982.684	2818.75
982.907	2807.75
983.129	2800.75
983.352	2844.75
983.575	2819.75
983.797	2816.75
984.02	2748.75
984.242	2751.75
984.465	2733.75
984.687	2801.75
984.91	2773.75
985.132	2704.75
985.354	2766.75
985.577	2734.75
985.799	2721.75
986.021	2617.75
986.243	2685.75
986.465	2695.75
986.687	2702.75
986.909	2729.75
987.131	2687.75
987.353	2605.75
987.575	2658.75
987.797	2614.75
988.019	2531.75
988.241	2599.75
988.462	2540.75
988.684	2627.75
988.906	2673.75
989.127	2643.75
989.349	2563.75
989.57	2576.75
989.792	2599.75
990.013	2626.75
990.234	2591.75
990.456	2652.75
990.677	2568.75
990.898	2504.75
991.119	2540.75
991.341	2568.75
991.562	2465.75
991.783	2526.75
992.004	2424.75
992.225	2395.75
992.446	2429.75
992.667	2342.75
992.887	2450.75
993.108	2350.75
993.329	2411.75
993.55	2376.75
993.77	2303.75
993.991	2302.75
994.212	2359.75
994.432	2339.75
994.653	2332.75
994.873	2342.75
995.093	2174.75
995.314	2277.75
995.534	2300.75
995.754	2340.75
995.975	2374.75
996.195	2244.75
996.415	2249.75
996.635	2242.75
996.855	2242.75
997.075	2251.75
997.295	2225.75
997.515	2241.75
997.735	2294.75
997.955	2232.75
998.174	2231.75
998.394	2186.75
998.614	2238.75
998.834	2202.75
999.053	2289.75
999.273	2220.75
999.492	2258.75
999.712	2192.75
999.931	2144.75
1000.151	2175.75
1000.37	2151.75
1000.589	2221.75
1000.809	2101.75
1001.028	2226.75
1001.247	2105.75
1001.466	2023.75
1001.685	2177.75
1001.904	2099.75
1002.123	2062.75
1002.342	2070.75
1002.561	2020.75
1002.78	2049.75
1002.999	2117.75
1003.218	2033.75
1003.436	1999.75
1003.655	2073.75
1003.874	1978.75
1004.092	2008.75
1004.311	2065.75
1004.53	1991.75
1004.748	2065.75
1004.966	1982.75
1005.185	2043.75
1005.403	2031.75
1005.622	2027.75
1005.84	2123.75
1006.058	1958.75
1006.276	2017.75
1006.494	2352.75
1006.712	2017.75
1006.931	2047.75
1007.149	1997.75
1007.367	1980.75
1007.584	2050.75
1007.802	2051.75
1008.02	2014.75
1008.238	2113.75
1008.456	2150.75
1008.673	1976.75
1008.891	2140.75
1009.109	2117.75
1009.326	2192.75
1009.544	2290.75
1009.761	2250.75
1009.979	2376.75
1010.196	2420.75
1010.413	2543.75
1010.631	2651.75
1010.848	2741.75
1011.065	2770.75
1011.282	2724.75
1011.5	2598.75
1011.717	2708.75
1011.934	2671.75
1012.151	2698.75
1012.368	2658.75
1012.585	2592.75
1012.801	2661.75
1013.018	2603.75
1013.235	2642.75
1013.452	2620.75
1013.669	2628.75
1013.885	2632.75
1014.102	2722.75
1014.318	2645.75
1014.535	2635.75
1014.751	2638.75
1014.968	2625.75
1015.184	2619.75
1015.401	2520.75
1015.617	2532.75
1015.833	2467.75
1016.049	2447.75
1016.266	2406.75
1016.482	2425.75
1016.698	2348.75
1016.914	2381.75
1017.13	2306.75
1017.346	2300.75
1017.562	2369.75
1017.778	2283.75
1017.993	2256.75
1018.209	2307.75
1018.425	2289.75
1018.641	2247.75
1018.856	2212.75
1019.072	2258.75
1019.288	2316.75
1019.503	2254.75
1019.719	2154.75
1019.934	2124.75
1020.149	2211.75
1020.365	2119.75
1020.58	2020.75
1020.795	2077.75
1021.011	1976.75
1021.226	1965.75
1021.441	1953.75
1021.656	1891.75
1021.871	1788.75
1022.086	1752.75
1022.301	1739.75
1022.516	1717.75
1022.731	1755.75
1022.946	1653.75
1023.16	1614.75
1023.375	1587.75
1023.59	1543.75
1023.804	1501.75
1024.019	1561.75
1024.234	1419.75
1024.448	1489.75
1024.663	1377.75
1024.877	1385.75
1025.092	1417.75
1025.306	1399.75
1025.52	1259.75
1025.734	1344.75
1025.949	1247.75
1026.163	1232.75
1026.377	1128.75
1026.591	1197.75
1026.805	1113.75
1027.019	1095.75
1027.233	1072.75
1027.447	999.75
1027.661	1106.75
1027.875	1036.75
1028.088	1028.75
1028.302	978.75
1028.516	929.75
1028.73	933.75
1028.943	899.75
1029.157	832.75
1029.37	800.75
1029.584	1.75
1029.797	-2.25
1030.011	-1.25
1030.224	-2.25
