Data from QEP037381__138__11-05-10-217.txt Node

Date: Fri Apr 28 11:05:10 EDT 2023
User: dcclab
Spectrometer: QEP03738
Trigger mode: 4
Integration Time (sec): 1.000000E1
Scans to average: 1
Electric dark correction enabled: true
Nonlinearity correction enabled: false
Boxcar width: 0
XAxis mode: Wavelengths
Number of Pixels in Spectrum: 1044
>>>>>Begin Spectral Data<<<<<
784.041	11.62
784.3	1.62
784.558	0.62
784.817	-2.38
785.075	71897.62
785.334	14291.62
785.592	7432.62
785.851	5200.62
786.109	3969.62
786.368	3115.62
786.626	2560.62
786.884	2099.62
787.143	1799.62
787.401	1447.62
787.659	1326.62
787.917	1104.62
788.175	1034.62
788.433	888.62
788.691	831.62
788.949	767.62
789.207	722.62
789.465	625.62
789.723	617.62
789.98	552.62
790.238	606.62
790.496	561.62
790.753	535.62
791.011	581.62
791.268	515.62
791.526	503.62
791.783	515.62
792.041	505.62
792.298	432.62
792.556	496.62
792.813	465.62
793.07	438.62
793.327	437.62
793.584	508.62
793.841	443.62
794.099	459.62
794.356	509.62
794.613	407.62
794.869	441.62
795.126	422.62
795.383	393.62
795.64	424.62
795.897	387.62
796.153	429.62
796.41	421.62
796.667	413.62
796.923	414.62
797.18	418.62
797.436	438.62
797.693	395.62
797.949	450.62
798.206	476.62
798.462	407.62
798.718	458.62
798.974	446.62
799.231	471.62
799.487	483.62
799.743	476.62
799.999	516.62
800.255	508.62
800.511	492.62
800.767	552.62
801.023	535.62
801.279	558.62
801.534	604.62
801.79	667.62
802.046	677.62
802.302	840.62
802.557	1005.62
802.813	1267.62
803.068	1581.62
803.324	2269.62
803.579	3148.62
803.835	4331.62
804.09	5856.62
804.345	7499.62
804.601	9078.62
804.856	10593.62
805.111	11730.62
805.366	12590.62
805.621	13129.62
805.876	13459.62
806.131	13691.62
806.386	14001.62
806.641	14266.62
806.896	14465.62
807.151	14724.62
807.406	14911.62
807.661	15209.62
807.915	15384.62
808.17	15655.62
808.425	15817.62
808.679	16011.62
808.934	16289.62
809.188	16375.62
809.443	16617.62
809.697	16760.62
809.951	16899.62
810.206	17043.62
810.46	17127.62
810.714	17343.62
810.968	17501.62
811.223	17453.62
811.477	17705.62
811.731	17847.62
811.985	17896.62
812.239	18008.62
812.493	18123.62
812.747	18148.62
813	18075.62
813.254	18272.62
813.508	18334.62
813.762	18390.62
814.015	18501.62
814.269	18582.62
814.522	18702.62
814.776	18930.62
815.03	19191.62
815.283	19425.62
815.536	19755.62
815.79	19933.62
816.043	20274.62
816.296	20565.62
816.55	20882.62
816.803	21026.62
817.056	21302.62
817.309	21593.62
817.562	21648.62
817.815	22086.62
818.068	22124.62
818.321	22440.62
818.574	22642.62
818.827	22968.62
819.079	23384.62
819.332	23787.62
819.585	24043.62
819.838	24382.62
820.09	24425.62
820.343	24700.62
820.595	24687.62
820.848	24845.62
821.1	24977.62
821.353	25066.62
821.605	24912.62
821.857	24988.62
822.11	24787.62
822.362	24759.62
822.614	24774.62
822.866	24781.62
823.118	24696.62
823.37	24924.62
823.622	25060.62
823.874	25091.62
824.126	25143.62
824.378	25129.62
824.63	25331.62
824.882	25278.62
825.134	25242.62
825.385	25053.62
825.637	25066.62
825.888	25016.62
826.14	24974.62
826.392	24898.62
826.643	24711.62
826.895	24627.62
827.146	24645.62
827.397	24506.62
827.649	24559.62
827.9	24529.62
828.151	24522.62
828.402	24562.62
828.653	24649.62
828.905	24734.62
829.156	24844.62
829.407	24693.62
829.658	24780.62
829.909	24909.62
830.159	24785.62
830.41	24663.62
830.661	24447.62
830.912	24378.62
831.162	24277.62
831.413	24248.62
831.664	24310.62
831.914	24107.62
832.165	24160.62
832.415	24131.62
832.666	24162.62
832.916	24199.62
833.167	24051.62
833.417	24198.62
833.667	23833.62
833.917	23813.62
834.168	23973.62
834.418	23894.62
834.668	23724.62
834.918	23625.62
835.168	23496.62
835.418	23388.62
835.668	23272.62
835.918	23262.62
836.167	23109.62
836.417	23145.62
836.667	23144.62
836.917	23099.62
837.166	23003.62
837.416	23015.62
837.666	23106.62
837.915	23084.62
838.165	23058.62
838.414	22880.62
838.663	22720.62
838.913	22740.62
839.162	22706.62
839.411	22726.62
839.661	22674.62
839.91	22608.62
840.159	22562.62
840.408	22599.62
840.657	22698.62
840.906	22694.62
841.155	22680.62
841.404	22643.62
841.653	22605.62
841.902	22682.62
842.15	22771.62
842.399	22701.62
842.648	22604.62
842.897	22602.62
843.145	22333.62
843.394	22185.62
843.642	22181.62
843.891	21972.62
844.139	21949.62
844.388	21725.62
844.636	21718.62
844.884	21659.62
845.133	21460.62
845.381	21648.62
845.629	21605.62
845.877	21648.62
846.125	21615.62
846.373	21508.62
846.621	21429.62
846.869	21345.62
847.117	21212.62
847.365	21156.62
847.613	21172.62
847.861	21014.62
848.108	20965.62
848.356	20947.62
848.604	20988.62
848.851	20919.62
849.099	20920.62
849.346	20969.62
849.594	21065.62
849.841	21151.62
850.089	21125.62
850.336	21204.62
850.583	21272.62
850.831	21079.62
851.078	21025.62
851.325	20990.62
851.572	21004.62
851.819	20732.62
852.066	20263.62
852.313	20038.62
852.56	19917.62
852.807	19796.62
853.054	19640.62
853.301	19694.62
853.548	19763.62
853.794	19888.62
854.041	19891.62
854.288	19930.62
854.534	20244.62
854.781	20163.62
855.028	20109.62
855.274	20051.62
855.52	20022.62
855.767	20059.62
856.013	20031.62
856.26	20233.62
856.506	19663.62
856.752	19678.62
856.998	19567.62
857.244	19649.62
857.49	19822.62
857.736	19929.62
857.982	19808.62
858.228	19781.62
858.474	19589.62
858.72	19351.62
858.966	19209.62
859.212	19008.62
859.458	18857.62
859.703	18598.62
859.949	18451.62
860.195	18461.62
860.44	18291.62
860.686	18295.62
860.931	18243.62
861.177	18067.62
861.422	17986.62
861.667	17828.62
861.913	17899.62
862.158	17831.62
862.403	17988.62
862.648	18104.62
862.893	18009.62
863.138	17959.62
863.384	17929.62
863.629	17819.62
863.873	17891.62
864.118	17766.62
864.363	17645.62
864.608	17580.62
864.853	17479.62
865.098	17265.62
865.342	17386.62
865.587	17170.62
865.832	17297.62
866.076	17234.62
866.321	17111.62
866.565	17140.62
866.81	16897.62
867.054	16950.62
867.298	16950.62
867.543	16943.62
867.787	16968.62
868.031	16881.62
868.275	16885.62
868.519	16823.62
868.764	16838.62
869.008	16856.62
869.252	16828.62
869.496	16782.62
869.739	16656.62
869.983	16776.62
870.227	16799.62
870.471	16829.62
870.715	16859.62
870.958	16893.62
871.202	16909.62
871.446	16885.62
871.689	16834.62
871.933	16878.62
872.176	16812.62
872.42	16752.62
872.663	16646.62
872.906	16680.62
873.15	16713.62
873.393	16671.62
873.636	16709.62
873.879	16397.62
874.122	16213.62
874.366	16062.62
874.609	15896.62
874.852	15727.62
875.095	15711.62
875.337	15638.62
875.58	15489.62
875.823	15506.62
876.066	15475.62
876.309	15402.62
876.551	15258.62
876.794	15270.62
877.037	15206.62
877.279	15046.62
877.522	15061.62
877.764	15134.62
878.007	15068.62
878.249	15089.62
878.491	15018.62
878.734	15003.62
878.976	14917.62
879.218	14802.62
879.46	14713.62
879.702	14575.62
879.945	14513.62
880.187	14362.62
880.429	14237.62
880.671	14218.62
880.912	14201.62
881.154	14008.62
881.396	14054.62
881.638	14058.62
881.88	14045.62
882.121	14029.62
882.363	13920.62
882.605	13979.62
882.846	13984.62
883.088	14051.62
883.329	13935.62
883.571	14047.62
883.812	14243.62
884.053	14545.62
884.295	14893.62
884.536	15121.62
884.777	14979.62
885.018	14812.62
885.259	14778.62
885.5	14526.62
885.742	14719.62
885.982	14539.62
886.223	14308.62
886.464	14275.62
886.705	14121.62
886.946	13959.62
887.187	13541.62
887.428	13503.62
887.668	13232.62
887.909	13041.62
888.15	12853.62
888.39	12788.62
888.631	12719.62
888.871	12584.62
889.111	12512.62
889.352	12342.62
889.592	12290.62
889.833	12206.62
890.073	12062.62
890.313	12175.62
890.553	11901.62
890.793	11912.62
891.033	11862.62
891.273	11778.62
891.513	11779.62
891.753	11756.62
891.993	11689.62
892.233	11718.62
892.473	11751.62
892.713	11806.62
892.952	11626.62
893.192	11794.62
893.432	11644.62
893.671	11664.62
893.911	11602.62
894.15	11455.62
894.39	11435.62
894.629	11345.62
894.869	11319.62
895.108	11227.62
895.347	11189.62
895.587	11181.62
895.826	11034.62
896.065	11070.62
896.304	11094.62
896.543	11013.62
896.782	10921.62
897.021	10956.62
897.26	10883.62
897.499	11044.62
897.738	10952.62
897.977	10691.62
898.216	10752.62
898.454	10701.62
898.693	10592.62
898.932	10567.62
899.17	10499.62
899.409	10511.62
899.647	10463.62
899.886	10454.62
900.124	10525.62
900.363	10487.62
900.601	10536.62
900.839	10610.62
901.078	10645.62
901.316	10676.62
901.554	10715.62
901.792	10795.62
902.03	10811.62
902.268	10721.62
902.506	10725.62
902.744	10543.62
902.982	10550.62
903.22	10308.62
903.458	10251.62
903.695	10038.62
903.933	10002.62
904.171	9700.62
904.409	9541.62
904.646	9426.62
904.884	9328.62
905.121	9255.62
905.359	9133.62
905.596	9084.62
905.833	8972.62
906.071	8976.62
906.308	9053.62
906.545	8977.62
906.783	8853.62
907.02	8886.62
907.257	8873.62
907.494	8807.62
907.731	8775.62
907.968	8773.62
908.205	8672.62
908.442	8605.62
908.679	8651.62
908.915	8566.62
909.152	8451.62
909.389	8350.62
909.626	8336.62
909.862	8240.62
910.099	8210.62
910.335	8137.62
910.572	8120.62
910.808	8150.62
911.045	8076.62
911.281	8056.62
911.518	8104.62
911.754	7971.62
911.99	7916.62
912.226	7899.62
912.463	7827.62
912.699	7831.62
912.935	7736.62
913.171	7675.62
913.407	7532.62
913.643	7554.62
913.879	7460.62
914.114	7381.62
914.35	7320.62
914.586	7309.62
914.822	7217.62
915.057	7240.62
915.293	7091.62
915.529	7068.62
915.764	7190.62
916	7075.62
916.235	7029.62
916.471	7126.62
916.706	7014.62
916.941	6986.62
917.177	6946.62
917.412	7013.62
917.647	6931.62
917.882	6936.62
918.117	6995.62
918.352	6892.62
918.588	6883.62
918.823	6790.62
919.057	6766.62
919.292	6585.62
919.527	6678.62
919.762	6529.62
919.997	6499.62
920.232	6433.62
920.466	6368.62
920.701	6235.62
920.935	6296.62
921.17	6218.62
921.405	6189.62
921.639	6211.62
921.873	6122.62
922.108	6121.62
922.342	6077.62
922.576	6066.62
922.811	6039.62
923.045	6125.62
923.279	6093.62
923.513	5982.62
923.747	5958.62
923.981	5947.62
924.215	5821.62
924.449	5857.62
924.683	5786.62
924.917	5789.62
925.151	5709.62
925.385	5806.62
925.618	5682.62
925.852	5709.62
926.086	5637.62
926.319	5720.62
926.553	5684.62
926.786	5676.62
927.02	5700.62
927.253	5661.62
927.486	5656.62
927.72	5571.62
927.953	5634.62
928.186	5597.62
928.42	5588.62
928.653	5516.62
928.886	5476.62
929.119	5423.62
929.352	5472.62
929.585	5449.62
929.818	5334.62
930.051	5383.62
930.284	5339.62
930.516	5207.62
930.749	5188.62
930.982	5261.62
931.215	5207.62
931.447	5120.62
931.68	5079.62
931.912	5097.62
932.145	5090.62
932.377	5127.62
932.61	5234.62
932.842	5059.62
933.074	5121.62
933.307	5063.62
933.539	5166.62
933.771	5116.62
934.003	5075.62
934.236	5137.62
934.468	5169.62
934.7	5038.62
934.932	5070.62
935.164	5002.62
935.395	4924.62
935.627	5018.62
935.859	4976.62
936.091	4902.62
936.323	4959.62
936.554	4943.62
936.786	4910.62
937.017	4776.62
937.249	4827.62
937.481	4753.62
937.712	4828.62
937.943	4845.62
938.175	4770.62
938.406	4761.62
938.637	4846.62
938.869	4742.62
939.1	4795.62
939.331	4731.62
939.562	4761.62
939.793	4713.62
940.024	4721.62
940.255	4703.62
940.486	4684.62
940.717	4660.62
940.948	4630.62
941.179	4541.62
941.409	4593.62
941.64	4576.62
941.871	4592.62
942.102	4550.62
942.332	4539.62
942.563	4583.62
942.793	4573.62
943.024	4532.62
943.254	4547.62
943.484	4595.62
943.715	4594.62
943.945	4480.62
944.175	4428.62
944.405	4453.62
944.636	4494.62
944.866	4542.62
945.096	4508.62
945.326	4404.62
945.556	4446.62
945.786	4455.62
946.016	4368.62
946.245	4355.62
946.475	4331.62
946.705	4363.62
946.935	4320.62
947.164	4305.62
947.394	4184.62
947.624	4245.62
947.853	4275.62
948.083	4193.62
948.312	4202.62
948.542	4085.62
948.771	4110.62
949	4117.62
949.23	4107.62
949.459	4155.62
949.688	4185.62
949.917	4089.62
950.146	4166.62
950.375	4143.62
950.604	4097.62
950.833	4184.62
951.062	4150.62
951.291	4095.62
951.52	4063.62
951.749	4065.62
951.978	4026.62
952.206	4040.62
952.435	3980.62
952.664	4048.62
952.892	4009.62
953.121	4020.62
953.349	3955.62
953.578	3999.62
953.806	3922.62
954.035	3895.62
954.263	3945.62
954.491	3819.62
954.719	3860.62
954.948	3801.62
955.176	3786.62
955.404	3732.62
955.632	3810.62
955.86	3765.62
956.088	3730.62
956.316	3782.62
956.544	3790.62
956.772	3713.62
956.999	3649.62
957.227	3773.62
957.455	3648.62
957.683	3667.62
957.91	3590.62
958.138	3600.62
958.365	3575.62
958.593	3566.62
958.82	3529.62
959.048	3586.62
959.275	3530.62
959.502	3535.62
959.73	3462.62
959.957	3523.62
960.184	3506.62
960.411	3461.62
960.638	3496.62
960.865	3475.62
961.092	3489.62
961.319	3407.62
961.546	3493.62
961.773	3518.62
962	3467.62
962.227	3495.62
962.454	3441.62
962.68	3410.62
962.907	3425.62
963.134	3391.62
963.36	3349.62
963.587	3392.62
963.813	3262.62
964.04	3339.62
964.266	3282.62
964.493	3355.62
964.719	3299.62
964.945	3287.62
965.171	3184.62
965.398	3198.62
965.624	3227.62
965.85	3171.62
966.076	3176.62
966.302	3182.62
966.528	3155.62
966.754	3149.62
966.98	3180.62
967.206	3130.62
967.431	3072.62
967.657	3155.62
967.883	3150.62
968.109	3113.62
968.334	3058.62
968.56	3054.62
968.785	3039.62
969.011	3027.62
969.236	3061.62
969.462	2956.62
969.687	3003.62
969.912	3067.62
970.138	3062.62
970.363	2973.62
970.588	3017.62
970.813	2990.62
971.038	2922.62
971.263	2962.62
971.488	2927.62
971.713	2971.62
971.938	2934.62
972.163	2848.62
972.388	2900.62
972.613	2862.62
972.838	2893.62
973.062	2876.62
973.287	2846.62
973.512	2768.62
973.736	2795.62
973.961	2786.62
974.185	2752.62
974.41	2762.62
974.634	2676.62
974.858	2680.62
975.083	2738.62
975.307	2737.62
975.531	2649.62
975.755	2606.62
975.98	2650.62
976.204	2560.62
976.428	2551.62
976.652	2594.62
976.876	2546.62
977.1	2578.62
977.324	2541.62
977.547	2602.62
977.771	2557.62
977.995	2531.62
978.219	2469.62
978.442	2593.62
978.666	2531.62
978.89	2507.62
979.113	2543.62
979.337	2493.62
979.56	2470.62
979.783	2540.62
980.007	2438.62
980.23	2454.62
980.453	2439.62
980.677	2455.62
980.9	2419.62
981.123	2343.62
981.346	2437.62
981.569	2436.62
981.792	2438.62
982.015	2397.62
982.238	2355.62
982.461	2361.62
982.684	2301.62
982.907	2289.62
983.129	2237.62
983.352	2313.62
983.575	2290.62
983.797	2322.62
984.02	2239.62
984.242	2263.62
984.465	2259.62
984.687	2286.62
984.91	2284.62
985.132	2254.62
985.354	2214.62
985.577	2231.62
985.799	2246.62
986.021	2150.62
986.243	2206.62
986.465	2178.62
986.687	2246.62
986.909	2266.62
987.131	2190.62
987.353	2155.62
987.575	2154.62
987.797	2157.62
988.019	2088.62
988.241	2138.62
988.462	2095.62
988.684	2151.62
988.906	2198.62
989.127	2200.62
989.349	2069.62
989.57	2121.62
989.792	2115.62
990.013	2139.62
990.234	2135.62
990.456	2158.62
990.677	2120.62
990.898	2100.62
991.119	2073.62
991.341	2089.62
991.562	2029.62
991.783	2069.62
992.004	1970.62
992.225	1975.62
992.446	2025.62
992.667	1974.62
992.887	2042.62
993.108	1875.62
993.329	2035.62
993.55	2010.62
993.77	1892.62
993.991	1892.62
994.212	1953.62
994.432	1933.62
994.653	1964.62
994.873	1929.62
995.093	1814.62
995.314	1854.62
995.534	1917.62
995.754	1939.62
995.975	1927.62
996.195	1844.62
996.415	1890.62
996.635	1894.62
996.855	1884.62
997.075	1884.62
997.295	1860.62
997.515	1842.62
997.735	1907.62
997.955	1869.62
998.174	1858.62
998.394	1850.62
998.614	1880.62
998.834	1815.62
999.053	1877.62
999.273	1859.62
999.492	1916.62
999.712	1825.62
999.931	1801.62
1000.151	1858.62
1000.37	1791.62
1000.589	1840.62
1000.809	1790.62
1001.028	1857.62
1001.247	1799.62
1001.466	1688.62
1001.685	1846.62
1001.904	1781.62
1002.123	1743.62
1002.342	1774.62
1002.561	1694.62
1002.78	1757.62
1002.999	1825.62
1003.218	1760.62
1003.436	1703.62
1003.655	1781.62
1003.874	1710.62
1004.092	1720.62
1004.311	1736.62
1004.53	1698.62
1004.748	1766.62
1004.966	1706.62
1005.185	1781.62
1005.403	1746.62
1005.622	1716.62
1005.84	1791.62
1006.058	1688.62
1006.276	1737.62
1006.494	2060.62
1006.712	1712.62
1006.931	1762.62
1007.149	1691.62
1007.367	1705.62
1007.584	1742.62
1007.802	1767.62
1008.02	1744.62
1008.238	1815.62
1008.456	1832.62
1008.673	1688.62
1008.891	1832.62
1009.109	1782.62
1009.326	1816.62
1009.544	1972.62
1009.761	1888.62
1009.979	1995.62
1010.196	2007.62
1010.413	2146.62
1010.631	2225.62
1010.848	2251.62
1011.065	2266.62
1011.282	2227.62
1011.5	2141.62
1011.717	2233.62
1011.934	2166.62
1012.151	2219.62
1012.368	2203.62
1012.585	2114.62
1012.801	2178.62
1013.018	2166.62
1013.235	2134.62
1013.452	2160.62
1013.669	2203.62
1013.885	2210.62
1014.102	2199.62
1014.318	2182.62
1014.535	2151.62
1014.751	2149.62
1014.968	2152.62
1015.184	2186.62
1015.401	2032.62
1015.617	2110.62
1015.833	2033.62
1016.049	2040.62
1016.266	2004.62
1016.482	2004.62
1016.698	1920.62
1016.914	1965.62
1017.13	1904.62
1017.346	1935.62
1017.562	1973.62
1017.778	1911.62
1017.993	1867.62
1018.209	1940.62
1018.425	1883.62
1018.641	1863.62
1018.856	1851.62
1019.072	1876.62
1019.288	1922.62
1019.503	1852.62
1019.719	1782.62
1019.934	1782.62
1020.149	1872.62
1020.365	1776.62
1020.58	1704.62
1020.795	1754.62
1021.011	1664.62
1021.226	1632.62
1021.441	1638.62
1021.656	1544.62
1021.871	1467.62
1022.086	1471.62
1022.301	1476.62
1022.516	1449.62
1022.731	1450.62
1022.946	1384.62
1023.16	1367.62
1023.375	1330.62
1023.59	1328.62
1023.804	1265.62
1024.019	1370.62
1024.234	1206.62
1024.448	1226.62
1024.663	1175.62
1024.877	1171.62
1025.092	1178.62
1025.306	1194.62
1025.52	1086.62
1025.734	1164.62
1025.949	1054.62
1026.163	1042.62
1026.377	1002.62
1026.591	1038.62
1026.805	965.62
1027.019	945.62
1027.233	903.62
1027.447	858.62
1027.661	972.62
1027.875	907.62
1028.088	885.62
1028.302	832.62
1028.516	804.62
1028.73	803.62
1028.943	803.62
1029.157	763.62
1029.37	670.62
1029.584	-5.38
1029.797	-2.38
1030.011	-1.38
1030.224	-2.38
