Data from QEP037381__4__13-22-24-035.txt Node

Date: Fri Apr 28 13:22:24 EDT 2023
User: dcclab
Spectrometer: QEP03738
Trigger mode: 4
Integration Time (sec): 1.000000E1
Scans to average: 1
Electric dark correction enabled: true
Nonlinearity correction enabled: false
Boxcar width: 0
XAxis mode: Wavelengths
Number of Pixels in Spectrum: 1044
>>>>>Begin Spectral Data<<<<<
784.041	14.12
784.3	2.12
784.558	-1.88
784.817	-2.88
785.075	69672.12
785.334	13819.12
785.592	7194.12
785.851	5043.12
786.109	3821.12
786.368	2982.12
786.626	2436.12
786.884	2002.12
787.143	1699.12
787.401	1426.12
787.659	1262.12
787.917	1104.12
788.175	1027.12
788.433	890.12
788.691	804.12
788.949	759.12
789.207	722.12
789.465	619.12
789.723	616.12
789.98	544.12
790.238	595.12
790.496	568.12
790.753	548.12
791.011	579.12
791.268	543.12
791.526	521.12
791.783	530.12
792.041	513.12
792.298	423.12
792.556	491.12
792.813	459.12
793.07	451.12
793.327	445.12
793.584	530.12
793.841	442.12
794.099	463.12
794.356	517.12
794.613	425.12
794.869	471.12
795.126	429.12
795.383	420.12
795.64	430.12
795.897	389.12
796.153	431.12
796.41	422.12
796.667	422.12
796.923	405.12
797.18	418.12
797.436	447.12
797.693	414.12
797.949	457.12
798.206	490.12
798.462	405.12
798.718	461.12
798.974	441.12
799.231	475.12
799.487	477.12
799.743	499.12
799.999	499.12
800.255	484.12
800.511	499.12
800.767	528.12
801.023	514.12
801.279	558.12
801.534	596.12
801.79	651.12
802.046	682.12
802.302	816.12
802.557	946.12
802.813	1197.12
803.068	1512.12
803.324	2186.12
803.579	2950.12
803.835	4193.12
804.09	5714.12
804.345	7298.12
804.601	8990.12
804.856	10455.12
805.111	11603.12
805.366	12353.12
805.621	12973.12
805.876	13288.12
806.131	13555.12
806.386	13690.12
806.641	14025.12
806.896	14185.12
807.151	14492.12
807.406	14604.12
807.661	14920.12
807.915	15169.12
808.17	15452.12
808.425	15664.12
808.679	15831.12
808.934	16077.12
809.188	16146.12
809.443	16439.12
809.697	16598.12
809.951	16657.12
810.206	16830.12
810.46	17001.12
810.714	17185.12
810.968	17276.12
811.223	17369.12
811.477	17556.12
811.731	17709.12
811.985	17744.12
812.239	17786.12
812.493	17995.12
812.747	18036.12
813	18168.12
813.254	18240.12
813.508	18322.12
813.762	18341.12
814.015	18435.12
814.269	18596.12
814.522	18747.12
814.776	18974.12
815.03	19177.12
815.283	19446.12
815.536	19737.12
815.79	20125.12
816.043	20372.12
816.296	20499.12
816.55	20827.12
816.803	21169.12
817.056	21436.12
817.309	21523.12
817.562	21762.12
817.815	21945.12
818.068	22194.12
818.321	22388.12
818.574	22793.12
818.827	23221.12
819.079	23558.12
819.332	23983.12
819.585	24166.12
819.838	24499.12
820.09	24602.12
820.343	24914.12
820.595	25023.12
820.848	25111.12
821.1	25294.12
821.353	25272.12
821.605	25320.12
821.857	25375.12
822.11	25139.12
822.362	24999.12
822.614	24991.12
822.866	24997.12
823.118	24920.12
823.37	25252.12
823.622	25227.12
823.874	25290.12
824.126	25362.12
824.378	25443.12
824.63	25581.12
824.882	25630.12
825.134	25507.12
825.385	25488.12
825.637	25440.12
825.888	25405.12
826.14	25357.12
826.392	25176.12
826.643	24983.12
826.895	25086.12
827.146	24939.12
827.397	24701.12
827.649	24951.12
827.9	24913.12
828.151	24802.12
828.402	24832.12
828.653	24974.12
828.905	25053.12
829.156	24981.12
829.407	24967.12
829.658	25008.12
829.909	24958.12
830.159	24739.12
830.41	24559.12
830.661	24563.12
830.912	24413.12
831.162	24340.12
831.413	24228.12
831.664	24378.12
831.914	24312.12
832.165	24291.12
832.415	24362.12
832.666	24217.12
832.916	24339.12
833.167	24271.12
833.417	24066.12
833.667	24023.12
833.917	24044.12
834.168	23922.12
834.418	23800.12
834.668	23710.12
834.918	23519.12
835.168	23471.12
835.418	23529.12
835.668	23354.12
835.918	23379.12
836.167	23379.12
836.417	23346.12
836.667	23242.12
836.917	23092.12
837.166	23155.12
837.416	23162.12
837.666	22997.12
837.915	22982.12
838.165	22841.12
838.414	22664.12
838.663	22568.12
838.913	22658.12
839.162	22526.12
839.411	22640.12
839.661	22461.12
839.91	22467.12
840.159	22348.12
840.408	22353.12
840.657	22384.12
840.906	22406.12
841.155	22342.12
841.404	22264.12
841.653	22318.12
841.902	22329.12
842.15	22354.12
842.399	22230.12
842.648	22208.12
842.897	22141.12
843.145	21967.12
843.394	21885.12
843.642	21670.12
843.891	21665.12
844.139	21569.12
844.388	21524.12
844.636	21359.12
844.884	21397.12
845.133	21222.12
845.381	21278.12
845.629	21233.12
845.877	21170.12
846.125	21240.12
846.373	21128.12
846.621	20883.12
846.869	20892.12
847.117	20822.12
847.365	20729.12
847.613	20644.12
847.861	20596.12
848.108	20582.12
848.356	20513.12
848.604	20442.12
848.851	20494.12
849.099	20514.12
849.346	20584.12
849.594	20601.12
849.841	20697.12
850.089	20631.12
850.336	20653.12
850.583	20751.12
850.831	20479.12
851.078	20416.12
851.325	20339.12
851.572	20260.12
851.819	20026.12
852.066	19614.12
852.313	19543.12
852.56	19257.12
852.807	19364.12
853.054	19271.12
853.301	19173.12
853.548	19251.12
853.794	19365.12
854.041	19324.12
854.288	19347.12
854.534	19682.12
854.781	19682.12
855.028	19353.12
855.274	19378.12
855.52	19307.12
855.767	19151.12
856.013	19123.12
856.26	19207.12
856.506	18908.12
856.752	18885.12
856.998	18875.12
857.244	18962.12
857.49	18937.12
857.736	18911.12
857.982	18888.12
858.228	18968.12
858.474	18826.12
858.72	18707.12
858.966	18524.12
859.212	18456.12
859.458	18223.12
859.703	18020.12
859.949	17859.12
860.195	17819.12
860.44	17654.12
860.686	17572.12
860.931	17503.12
861.177	17395.12
861.422	17338.12
861.667	17356.12
861.913	17444.12
862.158	17461.12
862.403	17722.12
862.648	17621.12
862.893	17633.12
863.138	17603.12
863.384	17525.12
863.629	17382.12
863.873	17333.12
864.118	17311.12
864.363	17096.12
864.608	17110.12
864.853	16954.12
865.098	16883.12
865.342	16765.12
865.587	16701.12
865.832	16785.12
866.076	16747.12
866.321	16560.12
866.565	16620.12
866.81	16471.12
867.054	16500.12
867.298	16370.12
867.543	16335.12
867.787	16484.12
868.031	16385.12
868.275	16248.12
868.519	16235.12
868.764	16297.12
869.008	16145.12
869.252	16165.12
869.496	16099.12
869.739	16099.12
869.983	16060.12
870.227	16076.12
870.471	15958.12
870.715	15932.12
870.958	16000.12
871.202	15948.12
871.446	16005.12
871.689	15990.12
871.933	15962.12
872.176	15987.12
872.42	15903.12
872.663	15860.12
872.906	15822.12
873.15	15684.12
873.393	15516.12
873.636	15491.12
873.879	15285.12
874.122	15269.12
874.366	15028.12
874.609	15006.12
874.852	14892.12
875.095	14915.12
875.337	14814.12
875.58	14714.12
875.823	14698.12
876.066	14673.12
876.309	14720.12
876.551	14598.12
876.794	14570.12
877.037	14513.12
877.279	14403.12
877.522	14494.12
877.764	14512.12
878.007	14510.12
878.249	14499.12
878.491	14422.12
878.734	14376.12
878.976	14378.12
879.218	14265.12
879.46	14215.12
879.702	14106.12
879.945	13903.12
880.187	13744.12
880.429	13704.12
880.671	13690.12
880.912	13679.12
881.154	13638.12
881.396	13550.12
881.638	13490.12
881.88	13652.12
882.121	13458.12
882.363	13488.12
882.605	13483.12
882.846	13464.12
883.088	13352.12
883.329	13254.12
883.571	13242.12
883.812	13172.12
884.053	13188.12
884.295	13317.12
884.536	13492.12
884.777	13257.12
885.018	13258.12
885.259	13228.12
885.5	13167.12
885.742	13357.12
885.982	13201.12
886.223	13090.12
886.464	13044.12
886.705	12887.12
886.946	12853.12
887.187	12768.12
887.428	12763.12
887.668	12594.12
887.909	12510.12
888.15	12341.12
888.39	12334.12
888.631	12251.12
888.871	12206.12
889.111	12122.12
889.352	12057.12
889.592	11942.12
889.833	11769.12
890.073	11789.12
890.313	11716.12
890.553	11480.12
890.793	11581.12
891.033	11485.12
891.273	11465.12
891.513	11396.12
891.753	11447.12
891.993	11372.12
892.233	11419.12
892.473	11522.12
892.713	11375.12
892.952	11403.12
893.192	11359.12
893.432	11411.12
893.671	11409.12
893.911	11237.12
894.15	11217.12
894.39	11057.12
894.629	11099.12
894.869	10957.12
895.108	10842.12
895.347	10813.12
895.587	10834.12
895.826	10685.12
896.065	10627.12
896.304	10681.12
896.543	10721.12
896.782	10576.12
897.021	10601.12
897.26	10576.12
897.499	10532.12
897.738	10609.12
897.977	10437.12
898.216	10375.12
898.454	10268.12
898.693	10145.12
898.932	10201.12
899.17	10119.12
899.409	10070.12
899.647	10028.12
899.886	10058.12
900.124	10094.12
900.363	9961.12
900.601	10025.12
900.839	10023.12
901.078	10090.12
901.316	10021.12
901.554	10013.12
901.792	10045.12
902.03	10020.12
902.268	9991.12
902.506	9992.12
902.744	9917.12
902.982	9889.12
903.22	9683.12
903.458	9631.12
903.695	9569.12
903.933	9410.12
904.171	9260.12
904.409	9157.12
904.646	9103.12
904.884	8991.12
905.121	8951.12
905.359	8893.12
905.596	8797.12
905.833	8735.12
906.071	8677.12
906.308	8709.12
906.545	8673.12
906.783	8621.12
907.02	8619.12
907.257	8572.12
907.494	8607.12
907.731	8543.12
907.968	8566.12
908.205	8381.12
908.442	8404.12
908.679	8418.12
908.915	8300.12
909.152	8232.12
909.389	8098.12
909.626	8108.12
909.862	7996.12
910.099	8018.12
910.335	7976.12
910.572	7886.12
910.808	7916.12
911.045	7885.12
911.281	7830.12
911.518	7878.12
911.754	7802.12
911.99	7760.12
912.226	7702.12
912.463	7601.12
912.699	7568.12
912.935	7571.12
913.171	7487.12
913.407	7398.12
913.643	7359.12
913.879	7307.12
914.114	7209.12
914.35	7116.12
914.586	7112.12
914.822	7032.12
915.057	7075.12
915.293	6919.12
915.529	6861.12
915.764	6909.12
916	6871.12
916.235	6873.12
916.471	6939.12
916.706	6806.12
916.941	6829.12
917.177	6808.12
917.412	6868.12
917.647	6772.12
917.882	6697.12
918.117	6806.12
918.352	6769.12
918.588	6777.12
918.823	6639.12
919.057	6597.12
919.292	6364.12
919.527	6480.12
919.762	6351.12
919.997	6411.12
920.232	6271.12
920.466	6214.12
920.701	6075.12
920.935	6076.12
921.17	6077.12
921.405	6007.12
921.639	6035.12
921.873	5942.12
922.108	5994.12
922.342	5994.12
922.576	5914.12
922.811	5937.12
923.045	5951.12
923.279	5915.12
923.513	5782.12
923.747	5893.12
923.981	5767.12
924.215	5719.12
924.449	5666.12
924.683	5677.12
924.917	5632.12
925.151	5532.12
925.385	5658.12
925.618	5607.12
925.852	5593.12
926.086	5477.12
926.319	5515.12
926.553	5527.12
926.786	5570.12
927.02	5466.12
927.253	5557.12
927.486	5520.12
927.72	5408.12
927.953	5550.12
928.186	5425.12
928.42	5450.12
928.653	5353.12
928.886	5352.12
929.119	5299.12
929.352	5300.12
929.585	5276.12
929.818	5271.12
930.051	5207.12
930.284	5180.12
930.516	5058.12
930.749	5054.12
930.982	5099.12
931.215	5015.12
931.447	4955.12
931.68	4953.12
931.912	4945.12
932.145	4933.12
932.377	4927.12
932.61	5077.12
932.842	4882.12
933.074	4957.12
933.307	4899.12
933.539	5031.12
933.771	4921.12
934.003	4930.12
934.236	5000.12
934.468	4942.12
934.7	4858.12
934.932	4876.12
935.164	4886.12
935.395	4839.12
935.627	4852.12
935.859	4829.12
936.091	4766.12
936.323	4841.12
936.554	4783.12
936.786	4711.12
937.017	4683.12
937.249	4705.12
937.481	4641.12
937.712	4703.12
937.943	4677.12
938.175	4627.12
938.406	4594.12
938.637	4710.12
938.869	4592.12
939.1	4644.12
939.331	4577.12
939.562	4584.12
939.793	4637.12
940.024	4570.12
940.255	4631.12
940.486	4527.12
940.717	4526.12
940.948	4463.12
941.179	4439.12
941.409	4449.12
941.64	4417.12
941.871	4438.12
942.102	4412.12
942.332	4445.12
942.563	4452.12
942.793	4466.12
943.024	4375.12
943.254	4446.12
943.484	4418.12
943.715	4464.12
943.945	4398.12
944.175	4330.12
944.405	4343.12
944.636	4322.12
944.866	4421.12
945.096	4400.12
945.326	4269.12
945.556	4298.12
945.786	4285.12
946.016	4249.12
946.245	4216.12
946.475	4205.12
946.705	4160.12
946.935	4145.12
947.164	4183.12
947.394	4089.12
947.624	4138.12
947.853	4133.12
948.083	4073.12
948.312	4026.12
948.542	3972.12
948.771	3965.12
949	4015.12
949.23	3989.12
949.459	4015.12
949.688	4043.12
949.917	3994.12
950.146	3982.12
950.375	4011.12
950.604	3945.12
950.833	4015.12
951.062	4009.12
951.291	3962.12
951.52	3947.12
951.749	3937.12
951.978	3843.12
952.206	3863.12
952.435	3886.12
952.664	3898.12
952.892	3868.12
953.121	3868.12
953.349	3874.12
953.578	3855.12
953.806	3804.12
954.035	3741.12
954.263	3776.12
954.491	3760.12
954.719	3742.12
954.948	3671.12
955.176	3707.12
955.404	3624.12
955.632	3688.12
955.86	3658.12
956.088	3622.12
956.316	3644.12
956.544	3672.12
956.772	3600.12
956.999	3552.12
957.227	3631.12
957.455	3543.12
957.683	3544.12
957.91	3481.12
958.138	3458.12
958.365	3443.12
958.593	3453.12
958.82	3408.12
959.048	3414.12
959.275	3436.12
959.502	3382.12
959.73	3393.12
959.957	3414.12
960.184	3445.12
960.411	3313.12
960.638	3443.12
960.865	3376.12
961.092	3380.12
961.319	3318.12
961.546	3361.12
961.773	3422.12
962	3291.12
962.227	3370.12
962.454	3317.12
962.68	3316.12
962.907	3286.12
963.134	3269.12
963.36	3283.12
963.587	3255.12
963.813	3223.12
964.04	3226.12
964.266	3163.12
964.493	3231.12
964.719	3200.12
964.945	3184.12
965.171	3059.12
965.398	3120.12
965.624	3134.12
965.85	3030.12
966.076	3074.12
966.302	3088.12
966.528	3018.12
966.754	3109.12
966.98	3031.12
967.206	3044.12
967.431	2988.12
967.657	3054.12
967.883	3024.12
968.109	3023.12
968.334	2966.12
968.56	2947.12
968.785	2957.12
969.011	2897.12
969.236	3017.12
969.462	2897.12
969.687	2933.12
969.912	2960.12
970.138	2997.12
970.363	2855.12
970.588	2913.12
970.813	2877.12
971.038	2834.12
971.263	2872.12
971.488	2854.12
971.713	2875.12
971.938	2860.12
972.163	2776.12
972.388	2783.12
972.613	2759.12
972.838	2785.12
973.062	2732.12
973.287	2743.12
973.512	2669.12
973.736	2728.12
973.961	2735.12
974.185	2660.12
974.41	2702.12
974.634	2631.12
974.858	2610.12
975.083	2632.12
975.307	2637.12
975.531	2583.12
975.755	2514.12
975.98	2553.12
976.204	2465.12
976.428	2486.12
976.652	2457.12
976.876	2492.12
977.1	2481.12
977.324	2437.12
977.547	2516.12
977.771	2504.12
977.995	2464.12
978.219	2395.12
978.442	2494.12
978.666	2466.12
978.89	2461.12
979.113	2460.12
979.337	2390.12
979.56	2367.12
979.783	2492.12
980.007	2328.12
980.23	2386.12
980.453	2347.12
980.677	2400.12
980.9	2344.12
981.123	2291.12
981.346	2336.12
981.569	2336.12
981.792	2337.12
982.015	2305.12
982.238	2262.12
982.461	2303.12
982.684	2204.12
982.907	2214.12
983.129	2211.12
983.352	2248.12
983.575	2207.12
983.797	2227.12
984.02	2205.12
984.242	2202.12
984.465	2157.12
984.687	2215.12
984.91	2218.12
985.132	2194.12
985.354	2204.12
985.577	2141.12
985.799	2173.12
986.021	2086.12
986.243	2116.12
986.465	2093.12
986.687	2137.12
986.909	2168.12
987.131	2115.12
987.353	2050.12
987.575	2121.12
987.797	2050.12
988.019	2004.12
988.241	2039.12
988.462	2007.12
988.684	2067.12
988.906	2103.12
989.127	2121.12
989.349	1985.12
989.57	2003.12
989.792	2068.12
990.013	2060.12
990.234	2071.12
990.456	2104.12
990.677	2067.12
990.898	2015.12
991.119	2004.12
991.341	2026.12
991.562	1964.12
991.783	2008.12
992.004	1928.12
992.225	1877.12
992.446	1941.12
992.667	1861.12
992.887	1934.12
993.108	1828.12
993.329	1967.12
993.55	1910.12
993.77	1840.12
993.991	1855.12
994.212	1884.12
994.432	1859.12
994.653	1837.12
994.873	1839.12
995.093	1741.12
995.314	1781.12
995.534	1838.12
995.754	1875.12
995.975	1888.12
996.195	1745.12
996.415	1804.12
996.635	1776.12
996.855	1796.12
997.075	1770.12
997.295	1736.12
997.515	1751.12
997.735	1795.12
997.955	1759.12
998.174	1750.12
998.394	1740.12
998.614	1784.12
998.834	1703.12
999.053	1803.12
999.273	1780.12
999.492	1777.12
999.712	1748.12
999.931	1704.12
1000.151	1748.12
1000.37	1719.12
1000.589	1784.12
1000.809	1686.12
1001.028	1818.12
1001.247	1748.12
1001.466	1629.12
1001.685	1761.12
1001.904	1715.12
1002.123	1693.12
1002.342	1649.12
1002.561	1640.12
1002.78	1644.12
1002.999	1729.12
1003.218	1669.12
1003.436	1627.12
1003.655	1676.12
1003.874	1644.12
1004.092	1634.12
1004.311	1712.12
1004.53	1633.12
1004.748	1690.12
1004.966	1622.12
1005.185	1678.12
1005.403	1677.12
1005.622	1649.12
1005.84	1705.12
1006.058	1635.12
1006.276	1599.12
1006.494	1975.12
1006.712	1645.12
1006.931	1656.12
1007.149	1579.12
1007.367	1583.12
1007.584	1637.12
1007.802	1612.12
1008.02	1575.12
1008.238	1708.12
1008.456	1668.12
1008.673	1526.12
1008.891	1641.12
1009.109	1550.12
1009.326	1618.12
1009.544	1690.12
1009.761	1553.12
1009.979	1629.12
1010.196	1594.12
1010.413	1705.12
1010.631	1710.12
1010.848	1720.12
1011.065	1688.12
1011.282	1666.12
1011.5	1598.12
1011.717	1688.12
1011.934	1665.12
1012.151	1684.12
1012.368	1661.12
1012.585	1622.12
1012.801	1669.12
1013.018	1617.12
1013.235	1593.12
1013.452	1603.12
1013.669	1635.12
1013.885	1580.12
1014.102	1590.12
1014.318	1569.12
1014.535	1529.12
1014.751	1545.12
1014.968	1556.12
1015.184	1565.12
1015.401	1525.12
1015.617	1525.12
1015.833	1485.12
1016.049	1509.12
1016.266	1450.12
1016.482	1483.12
1016.698	1420.12
1016.914	1471.12
1017.13	1424.12
1017.346	1438.12
1017.562	1490.12
1017.778	1437.12
1017.993	1388.12
1018.209	1457.12
1018.425	1429.12
1018.641	1393.12
1018.856	1371.12
1019.072	1402.12
1019.288	1447.12
1019.503	1402.12
1019.719	1289.12
1019.934	1335.12
1020.149	1413.12
1020.365	1359.12
1020.58	1298.12
1020.795	1341.12
1021.011	1298.12
1021.226	1271.12
1021.441	1320.12
1021.656	1272.12
1021.871	1181.12
1022.086	1172.12
1022.301	1188.12
1022.516	1172.12
1022.731	1239.12
1022.946	1140.12
1023.16	1131.12
1023.375	1091.12
1023.59	1073.12
1023.804	1053.12
1024.019	1152.12
1024.234	1035.12
1024.448	1064.12
1024.663	993.12
1024.877	1027.12
1025.092	1046.12
1025.306	1047.12
1025.52	946.12
1025.734	1052.12
1025.949	952.12
1026.163	941.12
1026.377	903.12
1026.591	940.12
1026.805	864.12
1027.019	858.12
1027.233	807.12
1027.447	756.12
1027.661	853.12
1027.875	801.12
1028.088	823.12
1028.302	740.12
1028.516	732.12
1028.73	734.12
1028.943	732.12
1029.157	680.12
1029.37	621.12
1029.584	-3.88
1029.797	-2.88
1030.011	-1.88
1030.224	-2.88
