Data from QEP037381__32__13-27-04-036.txt Node

Date: Fri Apr 28 13:27:04 EDT 2023
User: dcclab
Spectrometer: QEP03738
Trigger mode: 4
Integration Time (sec): 1.000000E1
Scans to average: 1
Electric dark correction enabled: true
Nonlinearity correction enabled: false
Boxcar width: 0
XAxis mode: Wavelengths
Number of Pixels in Spectrum: 1044
>>>>>Begin Spectral Data<<<<<
784.041	11.62
784.3	0.62
784.558	-2.38
784.817	-2.38
785.075	68333.62
785.334	13628.62
785.592	7059.62
785.851	5018.62
786.109	3792.62
786.368	2958.62
786.626	2399.62
786.884	1990.62
787.143	1664.62
787.401	1397.62
787.659	1226.62
787.917	1059.62
788.175	976.62
788.433	855.62
788.691	782.62
788.949	723.62
789.207	691.62
789.465	595.62
789.723	571.62
789.98	533.62
790.238	566.62
790.496	541.62
790.753	517.62
791.011	559.62
791.268	499.62
791.526	468.62
791.783	501.62
792.041	474.62
792.298	396.62
792.556	453.62
792.813	454.62
793.07	420.62
793.327	412.62
793.584	494.62
793.841	419.62
794.099	426.62
794.356	477.62
794.613	392.62
794.869	433.62
795.126	403.62
795.383	382.62
795.64	386.62
795.897	353.62
796.153	420.62
796.41	398.62
796.667	387.62
796.923	388.62
797.18	390.62
797.436	418.62
797.693	379.62
797.949	424.62
798.206	459.62
798.462	355.62
798.718	416.62
798.974	397.62
799.231	426.62
799.487	418.62
799.743	423.62
799.999	461.62
800.255	441.62
800.511	418.62
800.767	455.62
801.023	430.62
801.279	470.62
801.534	495.62
801.79	524.62
802.046	536.62
802.302	639.62
802.557	685.62
802.813	826.62
803.068	958.62
803.324	1323.62
803.579	1751.62
803.835	2407.62
804.09	3267.62
804.345	4225.62
804.601	5146.62
804.856	6052.62
805.111	6772.62
805.366	7235.62
805.621	7543.62
805.876	7775.62
806.131	7908.62
806.386	8040.62
806.641	8081.62
806.896	8307.62
807.151	8443.62
807.406	8571.62
807.661	8681.62
807.915	8957.62
808.17	8997.62
808.425	9121.62
808.679	9226.62
808.934	9367.62
809.188	9467.62
809.443	9554.62
809.697	9705.62
809.951	9732.62
810.206	9804.62
810.46	9943.62
810.714	9989.62
810.968	10068.62
811.223	10073.62
811.477	10193.62
811.731	10289.62
811.985	10263.62
812.239	10335.62
812.493	10444.62
812.747	10451.62
813	10517.62
813.254	10556.62
813.508	10519.62
813.762	10686.62
814.015	10654.62
814.269	10719.62
814.522	10907.62
814.776	10972.62
815.03	11188.62
815.283	11233.62
815.536	11467.62
815.79	11693.62
816.043	11772.62
816.296	11938.62
816.55	12009.62
816.803	12132.62
817.056	12335.62
817.309	12517.62
817.562	12560.62
817.815	12743.62
818.068	12836.62
818.321	12983.62
818.574	13180.62
818.827	13359.62
819.079	13551.62
819.332	13839.62
819.585	13939.62
819.838	14185.62
820.09	14223.62
820.343	14345.62
820.595	14433.62
820.848	14576.62
821.1	14614.62
821.353	14595.62
821.605	14515.62
821.857	14615.62
822.11	14496.62
822.362	14527.62
822.614	14515.62
822.866	14541.62
823.118	14525.62
823.37	14561.62
823.622	14536.62
823.874	14536.62
824.126	14729.62
824.378	14731.62
824.63	14815.62
824.882	14771.62
825.134	14738.62
825.385	14760.62
825.637	14721.62
825.888	14696.62
826.14	14570.62
826.392	14477.62
826.643	14414.62
826.895	14419.62
827.146	14333.62
827.397	14326.62
827.649	14364.62
827.9	14291.62
828.151	14243.62
828.402	14339.62
828.653	14279.62
828.905	14341.62
829.156	14393.62
829.407	14361.62
829.658	14330.62
829.909	14423.62
830.159	14362.62
830.41	14265.62
830.661	14239.62
830.912	13933.62
831.162	14020.62
831.413	14023.62
831.664	14102.62
831.914	14019.62
832.165	13990.62
832.415	13914.62
832.666	14049.62
832.916	14106.62
833.167	13935.62
833.417	13939.62
833.667	13860.62
833.917	13824.62
834.168	13909.62
834.418	13903.62
834.668	13739.62
834.918	13692.62
835.168	13693.62
835.418	13557.62
835.668	13573.62
835.918	13567.62
836.167	13523.62
836.417	13418.62
836.667	13409.62
836.917	13478.62
837.166	13361.62
837.416	13378.62
837.666	13335.62
837.915	13190.62
838.165	13178.62
838.414	13102.62
838.663	13015.62
838.913	13062.62
839.162	13004.62
839.411	13047.62
839.661	12972.62
839.91	13006.62
840.159	12902.62
840.408	12952.62
840.657	13064.62
840.906	13000.62
841.155	12982.62
841.404	12897.62
841.653	12889.62
841.902	12889.62
842.15	12928.62
842.399	12857.62
842.648	12862.62
842.897	12839.62
843.145	12708.62
843.394	12549.62
843.642	12606.62
843.891	12590.62
844.139	12519.62
844.388	12429.62
844.636	12396.62
844.884	12365.62
845.133	12281.62
845.381	12351.62
845.629	12352.62
845.877	12308.62
846.125	12257.62
846.373	12217.62
846.621	12208.62
846.869	12151.62
847.117	12105.62
847.365	11951.62
847.613	12028.62
847.861	12001.62
848.108	11992.62
848.356	11944.62
848.604	11795.62
848.851	11933.62
849.099	11846.62
849.346	11977.62
849.594	11916.62
849.841	11967.62
850.089	11974.62
850.336	12000.62
850.583	11982.62
850.831	11959.62
851.078	11822.62
851.325	11871.62
851.572	11950.62
851.819	11712.62
852.066	11489.62
852.313	11253.62
852.56	11277.62
852.807	11216.62
853.054	11269.62
853.301	11243.62
853.548	11193.62
853.794	11288.62
854.041	11378.62
854.288	11296.62
854.534	11499.62
854.781	11379.62
855.028	11352.62
855.274	11317.62
855.52	11279.62
855.767	11129.62
856.013	11114.62
856.26	11376.62
856.506	10968.62
856.752	11051.62
856.998	11069.62
857.244	11026.62
857.49	11076.62
857.736	11140.62
857.982	11059.62
858.228	11129.62
858.474	10900.62
858.72	10978.62
858.966	10864.62
859.212	10753.62
859.458	10676.62
859.703	10525.62
859.949	10385.62
860.195	10410.62
860.44	10316.62
860.686	10249.62
860.931	10256.62
861.177	10113.62
861.422	10173.62
861.667	10110.62
861.913	10062.62
862.158	10264.62
862.403	10271.62
862.648	10236.62
862.893	10168.62
863.138	10224.62
863.384	10082.62
863.629	10230.62
863.873	10184.62
864.118	10131.62
864.363	9914.62
864.608	9998.62
864.853	9975.62
865.098	9853.62
865.342	9842.62
865.587	9710.62
865.832	9842.62
866.076	9798.62
866.321	9720.62
866.565	9760.62
866.81	9569.62
867.054	9687.62
867.298	9654.62
867.543	9632.62
867.787	9629.62
868.031	9599.62
868.275	9539.62
868.519	9553.62
868.764	9590.62
869.008	9540.62
869.252	9545.62
869.496	9380.62
869.739	9437.62
869.983	9489.62
870.227	9423.62
870.471	9395.62
870.715	9366.62
870.958	9452.62
871.202	9459.62
871.446	9433.62
871.689	9304.62
871.933	9366.62
872.176	9352.62
872.42	9367.62
872.663	9321.62
872.906	9316.62
873.15	9257.62
873.393	9137.62
873.636	9130.62
873.879	9072.62
874.122	9040.62
874.366	8928.62
874.609	8910.62
874.852	8792.62
875.095	8839.62
875.337	8711.62
875.58	8643.62
875.823	8678.62
876.066	8706.62
876.309	8673.62
876.551	8570.62
876.794	8451.62
877.037	8551.62
877.279	8507.62
877.522	8513.62
877.764	8536.62
878.007	8511.62
878.249	8540.62
878.491	8460.62
878.734	8569.62
878.976	8484.62
879.218	8327.62
879.46	8359.62
879.702	8339.62
879.945	8255.62
880.187	8106.62
880.429	8162.62
880.671	8069.62
880.912	8093.62
881.154	8027.62
881.396	7921.62
881.638	7943.62
881.88	7933.62
882.121	7962.62
882.363	7926.62
882.605	7995.62
882.846	7925.62
883.088	7857.62
883.329	7866.62
883.571	7791.62
883.812	7856.62
884.053	7884.62
884.295	7992.62
884.536	8076.62
884.777	7974.62
885.018	7938.62
885.259	7962.62
885.5	7870.62
885.742	8006.62
885.982	7883.62
886.223	7778.62
886.464	7733.62
886.705	7728.62
886.946	7674.62
887.187	7488.62
887.428	7577.62
887.668	7418.62
887.909	7381.62
888.15	7318.62
888.39	7316.62
888.631	7283.62
888.871	7182.62
889.111	7108.62
889.352	7062.62
889.592	7007.62
889.833	6996.62
890.073	6944.62
890.313	6941.62
890.553	6785.62
890.793	6838.62
891.033	6762.62
891.273	6749.62
891.513	6742.62
891.753	6750.62
891.993	6770.62
892.233	6701.62
892.473	6769.62
892.713	6745.62
892.952	6741.62
893.192	6734.62
893.432	6680.62
893.671	6762.62
893.911	6696.62
894.15	6632.62
894.39	6514.62
894.629	6470.62
894.869	6496.62
895.108	6489.62
895.347	6367.62
895.587	6430.62
895.826	6352.62
896.065	6365.62
896.304	6358.62
896.543	6342.62
896.782	6256.62
897.021	6293.62
897.26	6285.62
897.499	6327.62
897.738	6344.62
897.977	6244.62
898.216	6123.62
898.454	6153.62
898.693	6032.62
898.932	6122.62
899.17	5951.62
899.409	6006.62
899.647	5963.62
899.886	6015.62
900.124	5988.62
900.363	5955.62
900.601	6021.62
900.839	6005.62
901.078	6038.62
901.316	5990.62
901.554	6029.62
901.792	6048.62
902.03	6017.62
902.268	5985.62
902.506	5984.62
902.744	5973.62
902.982	5916.62
903.22	5806.62
903.458	5796.62
903.695	5738.62
903.933	5695.62
904.171	5576.62
904.409	5502.62
904.646	5482.62
904.884	5354.62
905.121	5348.62
905.359	5299.62
905.596	5247.62
905.833	5171.62
906.071	5189.62
906.308	5195.62
906.545	5192.62
906.783	5148.62
907.02	5122.62
907.257	5078.62
907.494	5087.62
907.731	5092.62
907.968	5116.62
908.205	5040.62
908.442	5007.62
908.679	5022.62
908.915	4949.62
909.152	4898.62
909.389	4818.62
909.626	4846.62
909.862	4793.62
910.099	4788.62
910.335	4841.62
910.572	4687.62
910.808	4732.62
911.045	4679.62
911.281	4628.62
911.518	4754.62
911.754	4666.62
911.99	4634.62
912.226	4589.62
912.463	4561.62
912.699	4527.62
912.935	4549.62
913.171	4501.62
913.407	4434.62
913.643	4428.62
913.879	4398.62
914.114	4315.62
914.35	4312.62
914.586	4271.62
914.822	4192.62
915.057	4276.62
915.293	4084.62
915.529	4098.62
915.764	4206.62
916	4154.62
916.235	4155.62
916.471	4142.62
916.706	4063.62
916.941	4122.62
917.177	4084.62
917.412	4118.62
917.647	4140.62
917.882	4044.62
918.117	4090.62
918.352	4063.62
918.588	4108.62
918.823	3964.62
919.057	4008.62
919.292	3822.62
919.527	3949.62
919.762	3848.62
919.997	3868.62
920.232	3797.62
920.466	3792.62
920.701	3653.62
920.935	3716.62
921.17	3634.62
921.405	3638.62
921.639	3668.62
921.873	3607.62
922.108	3658.62
922.342	3638.62
922.576	3557.62
922.811	3554.62
923.045	3623.62
923.279	3637.62
923.513	3500.62
923.747	3595.62
923.981	3499.62
924.215	3441.62
924.449	3466.62
924.683	3467.62
924.917	3408.62
925.151	3375.62
925.385	3469.62
925.618	3406.62
925.852	3407.62
926.086	3330.62
926.319	3362.62
926.553	3391.62
926.786	3377.62
927.02	3329.62
927.253	3356.62
927.486	3395.62
927.72	3282.62
927.953	3371.62
928.186	3296.62
928.42	3309.62
928.653	3272.62
928.886	3229.62
929.119	3246.62
929.352	3239.62
929.585	3271.62
929.818	3200.62
930.051	3224.62
930.284	3185.62
930.516	3074.62
930.749	3084.62
930.982	3109.62
931.215	3085.62
931.447	3022.62
931.68	3055.62
931.912	3021.62
932.145	3033.62
932.377	3088.62
932.61	3163.62
932.842	2981.62
933.074	3049.62
933.307	3000.62
933.539	3089.62
933.771	3088.62
934.003	2998.62
934.236	3100.62
934.468	3127.62
934.7	3004.62
934.932	3058.62
935.164	2978.62
935.395	2950.62
935.627	2981.62
935.859	2969.62
936.091	2914.62
936.323	2928.62
936.554	2982.62
936.786	2890.62
937.017	2867.62
937.249	2889.62
937.481	2824.62
937.712	2941.62
937.943	2888.62
938.175	2848.62
938.406	2854.62
938.637	2936.62
938.869	2812.62
939.1	2867.62
939.331	2830.62
939.562	2869.62
939.793	2862.62
940.024	2852.62
940.255	2854.62
940.486	2795.62
940.717	2789.62
940.948	2761.62
941.179	2705.62
941.409	2743.62
941.64	2748.62
941.871	2740.62
942.102	2782.62
942.332	2709.62
942.563	2803.62
942.793	2769.62
943.024	2671.62
943.254	2695.62
943.484	2762.62
943.715	2768.62
943.945	2760.62
944.175	2681.62
944.405	2661.62
944.636	2633.62
944.866	2690.62
945.096	2719.62
945.326	2672.62
945.556	2694.62
945.786	2718.62
946.016	2623.62
946.245	2613.62
946.475	2584.62
946.705	2613.62
946.935	2592.62
947.164	2566.62
947.394	2562.62
947.624	2527.62
947.853	2578.62
948.083	2548.62
948.312	2516.62
948.542	2477.62
948.771	2456.62
949	2465.62
949.23	2474.62
949.459	2506.62
949.688	2539.62
949.917	2507.62
950.146	2488.62
950.375	2520.62
950.604	2456.62
950.833	2525.62
951.062	2517.62
951.291	2459.62
951.52	2463.62
951.749	2461.62
951.978	2411.62
952.206	2429.62
952.435	2424.62
952.664	2435.62
952.892	2432.62
953.121	2403.62
953.349	2441.62
953.578	2418.62
953.806	2444.62
954.035	2324.62
954.263	2355.62
954.491	2316.62
954.719	2397.62
954.948	2325.62
955.176	2342.62
955.404	2250.62
955.632	2323.62
955.86	2324.62
956.088	2313.62
956.316	2320.62
956.544	2315.62
956.772	2283.62
956.999	2257.62
957.227	2332.62
957.455	2254.62
957.683	2235.62
957.91	2222.62
958.138	2190.62
958.365	2209.62
958.593	2173.62
958.82	2117.62
959.048	2198.62
959.275	2160.62
959.502	2163.62
959.73	2115.62
959.957	2178.62
960.184	2192.62
960.411	2136.62
960.638	2235.62
960.865	2148.62
961.092	2182.62
961.319	2084.62
961.546	2194.62
961.773	2166.62
962	2121.62
962.227	2199.62
962.454	2152.62
962.68	2130.62
962.907	2158.62
963.134	2097.62
963.36	2102.62
963.587	2120.62
963.813	2068.62
964.04	2080.62
964.266	2031.62
964.493	2121.62
964.719	2083.62
964.945	2056.62
965.171	1962.62
965.398	2018.62
965.624	2042.62
965.85	1958.62
966.076	1945.62
966.302	1987.62
966.528	1957.62
966.754	2020.62
966.98	1968.62
967.206	1993.62
967.431	1925.62
967.657	1994.62
967.883	1965.62
968.109	1963.62
968.334	1907.62
968.56	1897.62
968.785	1897.62
969.011	1877.62
969.236	1939.62
969.462	1877.62
969.687	1902.62
969.912	1928.62
970.138	1931.62
970.363	1861.62
970.588	1898.62
970.813	1870.62
971.038	1829.62
971.263	1863.62
971.488	1886.62
971.713	1908.62
971.938	1909.62
972.163	1799.62
972.388	1843.62
972.613	1809.62
972.838	1827.62
973.062	1820.62
973.287	1819.62
973.512	1732.62
973.736	1750.62
973.961	1761.62
974.185	1742.62
974.41	1773.62
974.634	1673.62
974.858	1725.62
975.083	1754.62
975.307	1781.62
975.531	1698.62
975.755	1639.62
975.98	1670.62
976.204	1600.62
976.428	1636.62
976.652	1617.62
976.876	1613.62
977.1	1633.62
977.324	1619.62
977.547	1656.62
977.771	1644.62
977.995	1624.62
978.219	1607.62
978.442	1671.62
978.666	1620.62
978.89	1609.62
979.113	1620.62
979.337	1618.62
979.56	1575.62
979.783	1659.62
980.007	1549.62
980.23	1570.62
980.453	1542.62
980.677	1583.62
980.9	1559.62
981.123	1503.62
981.346	1580.62
981.569	1548.62
981.792	1613.62
982.015	1551.62
982.238	1519.62
982.461	1517.62
982.684	1483.62
982.907	1482.62
983.129	1499.62
983.352	1542.62
983.575	1522.62
983.797	1500.62
984.02	1473.62
984.242	1483.62
984.465	1464.62
984.687	1487.62
984.91	1511.62
985.132	1502.62
985.354	1510.62
985.577	1487.62
985.799	1477.62
986.021	1392.62
986.243	1428.62
986.465	1425.62
986.687	1484.62
986.909	1500.62
987.131	1450.62
987.353	1416.62
987.575	1464.62
987.797	1425.62
988.019	1361.62
988.241	1430.62
988.462	1375.62
988.684	1453.62
988.906	1467.62
989.127	1474.62
989.349	1372.62
989.57	1390.62
989.792	1447.62
990.013	1426.62
990.234	1486.62
990.456	1483.62
990.677	1449.62
990.898	1381.62
991.119	1403.62
991.341	1424.62
991.562	1340.62
991.783	1403.62
992.004	1343.62
992.225	1321.62
992.446	1361.62
992.667	1310.62
992.887	1373.62
993.108	1283.62
993.329	1406.62
993.55	1351.62
993.77	1286.62
993.991	1281.62
994.212	1350.62
994.432	1301.62
994.653	1332.62
994.873	1315.62
995.093	1206.62
995.314	1253.62
995.534	1346.62
995.754	1333.62
995.975	1365.62
996.195	1236.62
996.415	1302.62
996.635	1294.62
996.855	1290.62
997.075	1255.62
997.295	1272.62
997.515	1248.62
997.735	1295.62
997.955	1249.62
998.174	1270.62
998.394	1224.62
998.614	1289.62
998.834	1252.62
999.053	1303.62
999.273	1279.62
999.492	1319.62
999.712	1275.62
999.931	1234.62
1000.151	1283.62
1000.37	1262.62
1000.589	1289.62
1000.809	1240.62
1001.028	1349.62
1001.247	1266.62
1001.466	1208.62
1001.685	1334.62
1001.904	1279.62
1002.123	1282.62
1002.342	1249.62
1002.561	1223.62
1002.78	1230.62
1002.999	1300.62
1003.218	1263.62
1003.436	1234.62
1003.655	1289.62
1003.874	1227.62
1004.092	1238.62
1004.311	1298.62
1004.53	1253.62
1004.748	1332.62
1004.966	1225.62
1005.185	1284.62
1005.403	1261.62
1005.622	1253.62
1005.84	1312.62
1006.058	1241.62
1006.276	1268.62
1006.494	1658.62
1006.712	1234.62
1006.931	1299.62
1007.149	1240.62
1007.367	1207.62
1007.584	1254.62
1007.802	1267.62
1008.02	1226.62
1008.238	1321.62
1008.456	1308.62
1008.673	1161.62
1008.891	1273.62
1009.109	1216.62
1009.326	1256.62
1009.544	1315.62
1009.761	1243.62
1009.979	1295.62
1010.196	1298.62
1010.413	1331.62
1010.631	1367.62
1010.848	1378.62
1011.065	1378.62
1011.282	1309.62
1011.5	1244.62
1011.717	1382.62
1011.934	1299.62
1012.151	1349.62
1012.368	1319.62
1012.585	1266.62
1012.801	1318.62
1013.018	1288.62
1013.235	1235.62
1013.452	1281.62
1013.669	1281.62
1013.885	1246.62
1014.102	1278.62
1014.318	1261.62
1014.535	1203.62
1014.751	1257.62
1014.968	1259.62
1015.184	1282.62
1015.401	1191.62
1015.617	1245.62
1015.833	1179.62
1016.049	1171.62
1016.266	1166.62
1016.482	1201.62
1016.698	1130.62
1016.914	1202.62
1017.13	1125.62
1017.346	1166.62
1017.562	1217.62
1017.778	1143.62
1017.993	1113.62
1018.209	1177.62
1018.425	1152.62
1018.641	1117.62
1018.856	1100.62
1019.072	1123.62
1019.288	1190.62
1019.503	1136.62
1019.719	1053.62
1019.934	1068.62
1020.149	1142.62
1020.365	1089.62
1020.58	1032.62
1020.795	1103.62
1021.011	1024.62
1021.226	1044.62
1021.441	1036.62
1021.656	994.62
1021.871	931.62
1022.086	949.62
1022.301	947.62
1022.516	945.62
1022.731	1020.62
1022.946	915.62
1023.16	896.62
1023.375	854.62
1023.59	858.62
1023.804	836.62
1024.019	932.62
1024.234	817.62
1024.448	864.62
1024.663	799.62
1024.877	812.62
1025.092	848.62
1025.306	842.62
1025.52	755.62
1025.734	866.62
1025.949	769.62
1026.163	783.62
1026.377	698.62
1026.591	764.62
1026.805	693.62
1027.019	702.62
1027.233	660.62
1027.447	604.62
1027.661	719.62
1027.875	660.62
1028.088	660.62
1028.302	598.62
1028.516	592.62
1028.73	603.62
1028.943	596.62
1029.157	549.62
1029.37	527.62
1029.584	-4.38
1029.797	0.62
1030.011	-3.38
1030.224	-0.38
