Data from QEP037381__28__13-26-24-034.txt Node

Date: Fri Apr 28 13:26:24 EDT 2023
User: dcclab
Spectrometer: QEP03738
Trigger mode: 4
Integration Time (sec): 1.000000E1
Scans to average: 1
Electric dark correction enabled: true
Nonlinearity correction enabled: false
Boxcar width: 0
XAxis mode: Wavelengths
Number of Pixels in Spectrum: 1044
>>>>>Begin Spectral Data<<<<<
784.041	12.38
784.3	-1.62
784.558	-3.62
784.817	-2.62
785.075	66037.38
785.334	13382.38
785.592	7036.38
785.851	5027.38
786.109	3808.38
786.368	2984.38
786.626	2424.38
786.884	2047.38
787.143	1681.38
787.401	1371.38
787.659	1252.38
787.917	1090.38
788.175	989.38
788.433	884.38
788.691	787.38
788.949	719.38
789.207	703.38
789.465	605.38
789.723	600.38
789.98	541.38
790.238	576.38
790.496	560.38
790.753	504.38
791.011	572.38
791.268	506.38
791.526	484.38
791.783	511.38
792.041	479.38
792.298	406.38
792.556	461.38
792.813	458.38
793.07	436.38
793.327	410.38
793.584	509.38
793.841	424.38
794.099	442.38
794.356	489.38
794.613	404.38
794.869	452.38
795.126	409.38
795.383	389.38
795.64	391.38
795.897	360.38
796.153	409.38
796.41	400.38
796.667	395.38
796.923	392.38
797.18	408.38
797.436	428.38
797.693	384.38
797.949	432.38
798.206	461.38
798.462	369.38
798.718	437.38
798.974	410.38
799.231	444.38
799.487	424.38
799.743	446.38
799.999	461.38
800.255	437.38
800.511	430.38
800.767	486.38
801.023	450.38
801.279	489.38
801.534	505.38
801.79	548.38
802.046	558.38
802.302	669.38
802.557	736.38
802.813	911.38
803.068	1093.38
803.324	1519.38
803.579	2006.38
803.835	2806.38
804.09	3822.38
804.345	4973.38
804.601	6115.38
804.856	7267.38
805.111	8058.38
805.366	8643.38
805.621	8951.38
805.876	9162.38
806.131	9330.38
806.386	9502.38
806.641	9662.38
806.896	9768.38
807.151	9962.38
807.406	10185.38
807.661	10279.38
807.915	10450.38
808.17	10685.38
808.425	10808.38
808.679	10873.38
808.934	11096.38
809.188	11148.38
809.443	11221.38
809.697	11432.38
809.951	11459.38
810.206	11592.38
810.46	11779.38
810.714	11818.38
810.968	11942.38
811.223	12047.38
811.477	12118.38
811.731	12226.38
811.985	12173.38
812.239	12285.38
812.493	12327.38
812.747	12403.38
813	12515.38
813.254	12626.38
813.508	12590.38
813.762	12588.38
814.015	12546.38
814.269	12823.38
814.522	12906.38
814.776	13065.38
815.03	13224.38
815.283	13448.38
815.536	13595.38
815.79	13774.38
816.043	14011.38
816.296	14250.38
816.55	14299.38
816.803	14471.38
817.056	14731.38
817.309	14781.38
817.562	14979.38
817.815	15165.38
818.068	15263.38
818.321	15436.38
818.574	15690.38
818.827	16002.38
819.079	16152.38
819.332	16482.38
819.585	16675.38
819.838	16828.38
820.09	17011.38
820.343	17108.38
820.595	17156.38
820.848	17224.38
821.1	17409.38
821.353	17388.38
821.605	17297.38
821.857	17347.38
822.11	17161.38
822.362	17183.38
822.614	17166.38
822.866	17135.38
823.118	17286.38
823.37	17351.38
823.622	17366.38
823.874	17397.38
824.126	17523.38
824.378	17415.38
824.63	17555.38
824.882	17622.38
825.134	17558.38
825.385	17573.38
825.637	17534.38
825.888	17342.38
826.14	17385.38
826.392	17211.38
826.643	17169.38
826.895	17218.38
827.146	17049.38
827.397	17011.38
827.649	17054.38
827.9	16972.38
828.151	16988.38
828.402	17100.38
828.653	17104.38
828.905	17139.38
829.156	17192.38
829.407	17035.38
829.658	17130.38
829.909	17085.38
830.159	17005.38
830.41	16955.38
830.661	16873.38
830.912	16734.38
831.162	16703.38
831.413	16655.38
831.664	16721.38
831.914	16562.38
832.165	16725.38
832.415	16721.38
832.666	16630.38
832.916	16655.38
833.167	16590.38
833.417	16629.38
833.667	16553.38
833.917	16537.38
834.168	16473.38
834.418	16406.38
834.668	16303.38
834.918	16195.38
835.168	16234.38
835.418	16109.38
835.668	16039.38
835.918	16119.38
836.167	16101.38
836.417	16044.38
836.667	16014.38
836.917	15873.38
837.166	15977.38
837.416	15889.38
837.666	15920.38
837.915	15732.38
838.165	15723.38
838.414	15513.38
838.663	15538.38
838.913	15465.38
839.162	15515.38
839.411	15495.38
839.661	15388.38
839.91	15331.38
840.159	15390.38
840.408	15393.38
840.657	15346.38
840.906	15406.38
841.155	15379.38
841.404	15311.38
841.653	15273.38
841.902	15263.38
842.15	15317.38
842.399	15296.38
842.648	15247.38
842.897	15153.38
843.145	15129.38
843.394	15052.38
843.642	14926.38
843.891	14914.38
844.139	14795.38
844.388	14721.38
844.636	14614.38
844.884	14638.38
845.133	14507.38
845.381	14521.38
845.629	14568.38
845.877	14540.38
846.125	14563.38
846.373	14459.38
846.621	14427.38
846.869	14361.38
847.117	14350.38
847.365	14284.38
847.613	14282.38
847.861	14152.38
848.108	14208.38
848.356	14158.38
848.604	14025.38
848.851	14087.38
849.099	14164.38
849.346	14097.38
849.594	14263.38
849.841	14284.38
850.089	14261.38
850.336	14220.38
850.583	14283.38
850.831	14200.38
851.078	14073.38
851.325	13954.38
851.572	14061.38
851.819	13864.38
852.066	13609.38
852.313	13374.38
852.56	13303.38
852.807	13355.38
853.054	13272.38
853.301	13186.38
853.548	13269.38
853.794	13423.38
854.041	13328.38
854.288	13452.38
854.534	13587.38
854.781	13543.38
855.028	13338.38
855.274	13414.38
855.52	13313.38
855.767	13080.38
856.013	13156.38
856.26	13417.38
856.506	13049.38
856.752	13018.38
856.998	12927.38
857.244	13048.38
857.49	13055.38
857.736	13101.38
857.982	13096.38
858.228	13029.38
858.474	12885.38
858.72	12858.38
858.966	12784.38
859.212	12709.38
859.458	12546.38
859.703	12433.38
859.949	12309.38
860.195	12351.38
860.44	12135.38
860.686	12121.38
860.931	12059.38
861.177	11978.38
861.422	12050.38
861.667	11910.38
861.913	11943.38
862.158	12023.38
862.403	12056.38
862.648	12006.38
862.893	12126.38
863.138	12074.38
863.384	12017.38
863.629	12088.38
863.873	11917.38
864.118	11913.38
864.363	11789.38
864.608	11791.38
864.853	11792.38
865.098	11701.38
865.342	11647.38
865.587	11548.38
865.832	11538.38
866.076	11501.38
866.321	11480.38
866.565	11492.38
866.81	11369.38
867.054	11400.38
867.298	11405.38
867.543	11306.38
867.787	11355.38
868.031	11307.38
868.275	11235.38
868.519	11185.38
868.764	11202.38
869.008	11237.38
869.252	11180.38
869.496	11129.38
869.739	11050.38
869.983	11135.38
870.227	11104.38
870.471	11013.38
870.715	11040.38
870.958	11099.38
871.202	11067.38
871.446	11020.38
871.689	11092.38
871.933	11053.38
872.176	11029.38
872.42	10998.38
872.663	10957.38
872.906	10916.38
873.15	10886.38
873.393	10775.38
873.636	10706.38
873.879	10618.38
874.122	10554.38
874.366	10440.38
874.609	10409.38
874.852	10255.38
875.095	10311.38
875.337	10291.38
875.58	10155.38
875.823	10232.38
876.066	10262.38
876.309	10241.38
876.551	10062.38
876.794	10033.38
877.037	10047.38
877.279	10000.38
877.522	10017.38
877.764	10063.38
878.007	9999.38
878.249	10050.38
878.491	9938.38
878.734	9990.38
878.976	9928.38
879.218	9820.38
879.46	9874.38
879.702	9726.38
879.945	9709.38
880.187	9532.38
880.429	9479.38
880.671	9481.38
880.912	9445.38
881.154	9413.38
881.396	9323.38
881.638	9390.38
881.88	9369.38
882.121	9325.38
882.363	9291.38
882.605	9391.38
882.846	9248.38
883.088	9236.38
883.329	9184.38
883.571	9146.38
883.812	9159.38
884.053	9233.38
884.295	9206.38
884.536	9333.38
884.777	9280.38
885.018	9297.38
885.259	9287.38
885.5	9210.38
885.742	9350.38
885.982	9117.38
886.223	9130.38
886.464	8981.38
886.705	9013.38
886.946	9021.38
887.187	8780.38
887.428	8830.38
887.668	8786.38
887.909	8613.38
888.15	8581.38
888.39	8634.38
888.631	8506.38
888.871	8431.38
889.111	8425.38
889.352	8268.38
889.592	8192.38
889.833	8172.38
890.073	8164.38
890.313	8188.38
890.553	8039.38
890.793	8059.38
891.033	7958.38
891.273	7943.38
891.513	7897.38
891.753	7931.38
891.993	7886.38
892.233	7895.38
892.473	7989.38
892.713	7965.38
892.952	7830.38
893.192	7876.38
893.432	7851.38
893.671	7868.38
893.911	7770.38
894.15	7707.38
894.39	7605.38
894.629	7632.38
894.869	7662.38
895.108	7548.38
895.347	7473.38
895.587	7543.38
895.826	7437.38
896.065	7463.38
896.304	7465.38
896.543	7460.38
896.782	7346.38
897.021	7391.38
897.26	7334.38
897.499	7359.38
897.738	7407.38
897.977	7262.38
898.216	7196.38
898.454	7152.38
898.693	7078.38
898.932	7139.38
899.17	7043.38
899.409	7022.38
899.647	7007.38
899.886	6929.38
900.124	6989.38
900.363	6976.38
900.601	6976.38
900.839	6915.38
901.078	7037.38
901.316	6947.38
901.554	6997.38
901.792	7036.38
902.03	6927.38
902.268	6940.38
902.506	6953.38
902.744	6849.38
902.982	6915.38
903.22	6729.38
903.458	6726.38
903.695	6648.38
903.933	6562.38
904.171	6462.38
904.409	6402.38
904.646	6370.38
904.884	6234.38
905.121	6265.38
905.359	6140.38
905.596	6170.38
905.833	6070.38
906.071	5971.38
906.308	6088.38
906.545	6045.38
906.783	5961.38
907.02	6011.38
907.257	5947.38
907.494	5951.38
907.731	5969.38
907.968	5927.38
908.205	5881.38
908.442	5839.38
908.679	5855.38
908.915	5819.38
909.152	5735.38
909.389	5621.38
909.626	5656.38
909.862	5564.38
910.099	5562.38
910.335	5566.38
910.572	5480.38
910.808	5537.38
911.045	5498.38
911.281	5427.38
911.518	5558.38
911.754	5447.38
911.99	5402.38
912.226	5368.38
912.463	5301.38
912.699	5269.38
912.935	5262.38
913.171	5204.38
913.407	5140.38
913.643	5151.38
913.879	5076.38
914.114	5087.38
914.35	4953.38
914.586	4976.38
914.822	4859.38
915.057	4927.38
915.293	4841.38
915.529	4781.38
915.764	4857.38
916	4835.38
916.235	4812.38
916.471	4841.38
916.706	4684.38
916.941	4699.38
917.177	4761.38
917.412	4765.38
917.647	4715.38
917.882	4703.38
918.117	4780.38
918.352	4762.38
918.588	4763.38
918.823	4656.38
919.057	4596.38
919.292	4473.38
919.527	4544.38
919.762	4483.38
919.997	4465.38
920.232	4404.38
920.466	4409.38
920.701	4248.38
920.935	4326.38
921.17	4241.38
921.405	4195.38
921.639	4253.38
921.873	4242.38
922.108	4193.38
922.342	4251.38
922.576	4169.38
922.811	4139.38
923.045	4185.38
923.279	4197.38
923.513	4055.38
923.747	4096.38
923.981	4107.38
924.215	4038.38
924.449	4035.38
924.683	3993.38
924.917	3979.38
925.151	3972.38
925.385	4000.38
925.618	3951.38
925.852	3950.38
926.086	3835.38
926.319	3896.38
926.553	3909.38
926.786	3936.38
927.02	3874.38
927.253	3885.38
927.486	3883.38
927.72	3811.38
927.953	3862.38
928.186	3821.38
928.42	3830.38
928.653	3776.38
928.886	3784.38
929.119	3772.38
929.352	3762.38
929.585	3756.38
929.818	3648.38
930.051	3662.38
930.284	3661.38
930.516	3582.38
930.749	3550.38
930.982	3588.38
931.215	3586.38
931.447	3494.38
931.68	3500.38
931.912	3479.38
932.145	3500.38
932.377	3534.38
932.61	3634.38
932.842	3490.38
933.074	3502.38
933.307	3447.38
933.539	3600.38
933.771	3544.38
934.003	3482.38
934.236	3569.38
934.468	3563.38
934.7	3468.38
934.932	3468.38
935.164	3446.38
935.395	3429.38
935.627	3480.38
935.859	3430.38
936.091	3326.38
936.323	3396.38
936.554	3458.38
936.786	3344.38
937.017	3323.38
937.249	3333.38
937.481	3295.38
937.712	3329.38
937.943	3335.38
938.175	3313.38
938.406	3304.38
938.637	3352.38
938.869	3255.38
939.1	3325.38
939.331	3285.38
939.562	3272.38
939.793	3287.38
940.024	3303.38
940.255	3262.38
940.486	3212.38
940.717	3189.38
940.948	3226.38
941.179	3173.38
941.409	3155.38
941.64	3172.38
941.871	3159.38
942.102	3152.38
942.332	3114.38
942.563	3182.38
942.793	3176.38
943.024	3108.38
943.254	3151.38
943.484	3160.38
943.715	3142.38
943.945	3139.38
944.175	3062.38
944.405	3054.38
944.636	3044.38
944.866	3122.38
945.096	3147.38
945.326	3031.38
945.556	3085.38
945.786	3088.38
946.016	3026.38
946.245	2990.38
946.475	2985.38
946.705	2998.38
946.935	2974.38
947.164	2961.38
947.394	2914.38
947.624	2970.38
947.853	2994.38
948.083	2935.38
948.312	2909.38
948.542	2832.38
948.771	2838.38
949	2876.38
949.23	2847.38
949.459	2830.38
949.688	2885.38
949.917	2868.38
950.146	2885.38
950.375	2866.38
950.604	2829.38
950.833	2917.38
951.062	2894.38
951.291	2841.38
951.52	2818.38
951.749	2821.38
951.978	2764.38
952.206	2764.38
952.435	2812.38
952.664	2828.38
952.892	2812.38
953.121	2741.38
953.349	2818.38
953.578	2773.38
953.806	2751.38
954.035	2696.38
954.263	2700.38
954.491	2667.38
954.719	2722.38
954.948	2705.38
955.176	2656.38
955.404	2583.38
955.632	2645.38
955.86	2624.38
956.088	2589.38
956.316	2661.38
956.544	2642.38
956.772	2602.38
956.999	2568.38
957.227	2640.38
957.455	2534.38
957.683	2553.38
957.91	2498.38
958.138	2508.38
958.365	2515.38
958.593	2507.38
958.82	2421.38
959.048	2529.38
959.275	2489.38
959.502	2471.38
959.73	2476.38
959.957	2468.38
960.184	2504.38
960.411	2441.38
960.638	2531.38
960.865	2445.38
961.092	2486.38
961.319	2382.38
961.546	2463.38
961.773	2485.38
962	2427.38
962.227	2484.38
962.454	2439.38
962.68	2400.38
962.907	2404.38
963.134	2343.38
963.36	2391.38
963.587	2416.38
963.813	2306.38
964.04	2356.38
964.266	2288.38
964.493	2362.38
964.719	2362.38
964.945	2322.38
965.171	2238.38
965.398	2294.38
965.624	2316.38
965.85	2245.38
966.076	2234.38
966.302	2280.38
966.528	2234.38
966.754	2241.38
966.98	2274.38
967.206	2243.38
967.431	2192.38
967.657	2252.38
967.883	2239.38
968.109	2223.38
968.334	2155.38
968.56	2177.38
968.785	2188.38
969.011	2155.38
969.236	2179.38
969.462	2119.38
969.687	2154.38
969.912	2176.38
970.138	2194.38
970.363	2083.38
970.588	2145.38
970.813	2100.38
971.038	2116.38
971.263	2121.38
971.488	2111.38
971.713	2135.38
971.938	2124.38
972.163	2037.38
972.388	2063.38
972.613	2044.38
972.838	2062.38
973.062	2046.38
973.287	2030.38
973.512	1954.38
973.736	2021.38
973.961	1978.38
974.185	1960.38
974.41	2042.38
974.634	1907.38
974.858	1951.38
975.083	1975.38
975.307	2003.38
975.531	1929.38
975.755	1832.38
975.98	1861.38
976.204	1838.38
976.428	1810.38
976.652	1816.38
976.876	1827.38
977.1	1831.38
977.324	1800.38
977.547	1839.38
977.771	1869.38
977.995	1825.38
978.219	1767.38
978.442	1910.38
978.666	1850.38
978.89	1823.38
979.113	1842.38
979.337	1784.38
979.56	1753.38
979.783	1840.38
980.007	1772.38
980.23	1761.38
980.453	1735.38
980.677	1779.38
980.9	1796.38
981.123	1670.38
981.346	1783.38
981.569	1761.38
981.792	1770.38
982.015	1744.38
982.238	1684.38
982.461	1705.38
982.684	1672.38
982.907	1653.38
983.129	1657.38
983.352	1728.38
983.575	1683.38
983.797	1689.38
984.02	1636.38
984.242	1646.38
984.465	1641.38
984.687	1655.38
984.91	1693.38
985.132	1652.38
985.354	1665.38
985.577	1645.38
985.799	1657.38
986.021	1557.38
986.243	1581.38
986.465	1625.38
986.687	1653.38
986.909	1666.38
987.131	1625.38
987.353	1568.38
987.575	1612.38
987.797	1588.38
988.019	1541.38
988.241	1592.38
988.462	1566.38
988.684	1575.38
988.906	1636.38
989.127	1626.38
989.349	1531.38
989.57	1572.38
989.792	1608.38
990.013	1596.38
990.234	1607.38
990.456	1626.38
990.677	1614.38
990.898	1546.38
991.119	1543.38
991.341	1568.38
991.562	1494.38
991.783	1536.38
992.004	1457.38
992.225	1452.38
992.446	1508.38
992.667	1436.38
992.887	1493.38
993.108	1413.38
993.329	1540.38
993.55	1490.38
993.77	1419.38
993.991	1440.38
994.212	1476.38
994.432	1446.38
994.653	1473.38
994.873	1472.38
995.093	1336.38
995.314	1372.38
995.534	1470.38
995.754	1458.38
995.975	1502.38
996.195	1369.38
996.415	1458.38
996.635	1426.38
996.855	1438.38
997.075	1359.38
997.295	1396.38
997.515	1369.38
997.735	1425.38
997.955	1399.38
998.174	1356.38
998.394	1370.38
998.614	1404.38
998.834	1341.38
999.053	1431.38
999.273	1411.38
999.492	1448.38
999.712	1372.38
999.931	1367.38
1000.151	1386.38
1000.37	1358.38
1000.589	1454.38
1000.809	1352.38
1001.028	1462.38
1001.247	1388.38
1001.466	1311.38
1001.685	1429.38
1001.904	1382.38
1002.123	1367.38
1002.342	1389.38
1002.561	1319.38
1002.78	1351.38
1002.999	1405.38
1003.218	1363.38
1003.436	1325.38
1003.655	1393.38
1003.874	1316.38
1004.092	1355.38
1004.311	1381.38
1004.53	1335.38
1004.748	1423.38
1004.966	1345.38
1005.185	1385.38
1005.403	1389.38
1005.622	1332.38
1005.84	1425.38
1006.058	1333.38
1006.276	1348.38
1006.494	1706.38
1006.712	1326.38
1006.931	1382.38
1007.149	1278.38
1007.367	1298.38
1007.584	1321.38
1007.802	1392.38
1008.02	1327.38
1008.238	1392.38
1008.456	1398.38
1008.673	1263.38
1008.891	1337.38
1009.109	1311.38
1009.326	1341.38
1009.544	1398.38
1009.761	1297.38
1009.979	1384.38
1010.196	1366.38
1010.413	1434.38
1010.631	1442.38
1010.848	1470.38
1011.065	1445.38
1011.282	1381.38
1011.5	1333.38
1011.717	1445.38
1011.934	1421.38
1012.151	1414.38
1012.368	1398.38
1012.585	1354.38
1012.801	1389.38
1013.018	1356.38
1013.235	1326.38
1013.452	1339.38
1013.669	1334.38
1013.885	1333.38
1014.102	1352.38
1014.318	1316.38
1014.535	1270.38
1014.751	1324.38
1014.968	1335.38
1015.184	1343.38
1015.401	1266.38
1015.617	1283.38
1015.833	1224.38
1016.049	1268.38
1016.266	1263.38
1016.482	1269.38
1016.698	1196.38
1016.914	1250.38
1017.13	1203.38
1017.346	1221.38
1017.562	1236.38
1017.778	1199.38
1017.993	1165.38
1018.209	1229.38
1018.425	1227.38
1018.641	1183.38
1018.856	1134.38
1019.072	1171.38
1019.288	1237.38
1019.503	1187.38
1019.719	1100.38
1019.934	1103.38
1020.149	1215.38
1020.365	1149.38
1020.58	1105.38
1020.795	1155.38
1021.011	1087.38
1021.226	1094.38
1021.441	1120.38
1021.656	1037.38
1021.871	992.38
1022.086	1005.38
1022.301	1000.38
1022.516	980.38
1022.731	1075.38
1022.946	959.38
1023.16	969.38
1023.375	927.38
1023.59	916.38
1023.804	897.38
1024.019	985.38
1024.234	869.38
1024.448	906.38
1024.663	841.38
1024.877	860.38
1025.092	884.38
1025.306	898.38
1025.52	825.38
1025.734	901.38
1025.949	817.38
1026.163	779.38
1026.377	744.38
1026.591	795.38
1026.805	723.38
1027.019	720.38
1027.233	689.38
1027.447	644.38
1027.661	747.38
1027.875	709.38
1028.088	709.38
1028.302	637.38
1028.516	642.38
1028.73	640.38
1028.943	625.38
1029.157	595.38
1029.37	564.38
1029.584	0.38
1029.797	-2.62
1030.011	0.38
1030.224	-2.62
