Data from QEP037381__228__11-35-49-424.txt Node

Date: Fri Apr 28 11:35:49 EDT 2023
User: dcclab
Spectrometer: QEP03738
Trigger mode: 4
Integration Time (sec): 1.000000E1
Scans to average: 1
Electric dark correction enabled: true
Nonlinearity correction enabled: false
Boxcar width: 0
XAxis mode: Wavelengths
Number of Pixels in Spectrum: 1044
>>>>>Begin Spectral Data<<<<<
784.041	15.25
784.3	0.25
784.558	1.25
784.817	-6.75
785.075	65654.25
785.334	12787.25
785.592	6577.25
785.851	4632.25
786.109	3570.25
786.368	2820.25
786.626	2271.25
786.884	1909.25
787.143	1587.25
787.401	1319.25
787.659	1188.25
787.917	1014.25
788.175	954.25
788.433	855.25
788.691	766.25
788.949	710.25
789.207	691.25
789.465	599.25
789.723	599.25
789.98	528.25
790.238	549.25
790.496	541.25
790.753	509.25
791.011	560.25
791.268	496.25
791.526	471.25
791.783	492.25
792.041	486.25
792.298	396.25
792.556	462.25
792.813	447.25
793.07	412.25
793.327	400.25
793.584	491.25
793.841	403.25
794.099	424.25
794.356	479.25
794.613	384.25
794.869	411.25
795.126	396.25
795.383	369.25
795.64	408.25
795.897	357.25
796.153	404.25
796.41	384.25
796.667	379.25
796.923	383.25
797.18	384.25
797.436	414.25
797.693	364.25
797.949	416.25
798.206	442.25
798.462	370.25
798.718	429.25
798.974	389.25
799.231	434.25
799.487	435.25
799.743	419.25
799.999	443.25
800.255	434.25
800.511	420.25
800.767	473.25
801.023	448.25
801.279	465.25
801.534	491.25
801.79	536.25
802.046	537.25
802.302	639.25
802.557	727.25
802.813	889.25
803.068	1064.25
803.324	1481.25
803.579	1961.25
803.835	2669.25
804.09	3554.25
804.345	4430.25
804.601	5274.25
804.856	6116.25
805.111	6797.25
805.366	7240.25
805.621	7570.25
805.876	7720.25
806.131	7883.25
806.386	8040.25
806.641	8144.25
806.896	8280.25
807.151	8408.25
807.406	8523.25
807.661	8704.25
807.915	8808.25
808.17	8957.25
808.425	9104.25
808.679	9141.25
808.934	9402.25
809.188	9431.25
809.443	9565.25
809.697	9652.25
809.951	9715.25
810.206	9787.25
810.46	9966.25
810.714	9997.25
810.968	10157.25
811.223	10105.25
811.477	10227.25
811.731	10254.25
811.985	10257.25
812.239	10276.25
812.493	10364.25
812.747	10473.25
813	10363.25
813.254	10531.25
813.508	10584.25
813.762	10593.25
814.015	10603.25
814.269	10728.25
814.522	10763.25
814.776	10952.25
815.03	11028.25
815.283	11142.25
815.536	11327.25
815.79	11422.25
816.043	11595.25
816.296	11742.25
816.55	11900.25
816.803	11987.25
817.056	12310.25
817.309	12346.25
817.562	12448.25
817.815	12644.25
818.068	12700.25
818.321	12900.25
818.574	12989.25
818.827	13256.25
819.079	13386.25
819.332	13663.25
819.585	13791.25
819.838	13991.25
820.09	13935.25
820.343	14127.25
820.595	14082.25
820.848	14315.25
821.1	14388.25
821.353	14321.25
821.605	14245.25
821.857	14224.25
822.11	14202.25
822.362	14110.25
822.614	14059.25
822.866	14082.25
823.118	14084.25
823.37	14117.25
823.622	14256.25
823.874	14222.25
824.126	14356.25
824.378	14283.25
824.63	14345.25
824.882	14399.25
825.134	14331.25
825.385	14178.25
825.637	14224.25
825.888	14174.25
826.14	14250.25
826.392	14032.25
826.643	14010.25
826.895	13895.25
827.146	13825.25
827.397	13788.25
827.649	13874.25
827.9	13816.25
828.151	13841.25
828.402	13799.25
828.653	13791.25
828.905	13927.25
829.156	14027.25
829.407	13905.25
829.658	13950.25
829.909	14101.25
830.159	14074.25
830.41	13929.25
830.661	13907.25
830.912	13687.25
831.162	13744.25
831.413	13702.25
831.664	13707.25
831.914	13686.25
832.165	13641.25
832.415	13629.25
832.666	13664.25
832.916	13674.25
833.167	13617.25
833.417	13613.25
833.667	13572.25
833.917	13477.25
834.168	13529.25
834.418	13499.25
834.668	13415.25
834.918	13219.25
835.168	13256.25
835.418	13156.25
835.668	13120.25
835.918	13136.25
836.167	13116.25
836.417	13012.25
836.667	13006.25
836.917	12969.25
837.166	13008.25
837.416	12963.25
837.666	12910.25
837.915	12930.25
838.165	12902.25
838.414	12812.25
838.663	12869.25
838.913	12939.25
839.162	12861.25
839.411	12945.25
839.661	12787.25
839.91	12762.25
840.159	12837.25
840.408	12800.25
840.657	12857.25
840.906	12916.25
841.155	12853.25
841.404	12875.25
841.653	12807.25
841.902	12841.25
842.15	12874.25
842.399	12879.25
842.648	12878.25
842.897	12770.25
843.145	12656.25
843.394	12537.25
843.642	12534.25
843.891	12386.25
844.139	12325.25
844.388	12117.25
844.636	12171.25
844.884	12166.25
845.133	12076.25
845.381	12109.25
845.629	12138.25
845.877	12210.25
846.125	12245.25
846.373	12200.25
846.621	12110.25
846.869	12108.25
847.117	11993.25
847.365	11931.25
847.613	11843.25
847.861	11819.25
848.108	11953.25
848.356	11957.25
848.604	11792.25
848.851	11801.25
849.099	11915.25
849.346	11824.25
849.594	11973.25
849.841	11969.25
850.089	12029.25
850.336	12023.25
850.583	12104.25
850.831	12057.25
851.078	12041.25
851.325	12086.25
851.572	12354.25
851.819	12034.25
852.066	11699.25
852.313	11427.25
852.56	11206.25
852.807	11155.25
853.054	11157.25
853.301	11209.25
853.548	11291.25
853.794	11411.25
854.041	11344.25
854.288	11402.25
854.534	11525.25
854.781	11466.25
855.028	11345.25
855.274	11435.25
855.52	11407.25
855.767	11417.25
856.013	11437.25
856.26	11779.25
856.506	11228.25
856.752	11219.25
856.998	11245.25
857.244	11221.25
857.49	11409.25
857.736	11394.25
857.982	11306.25
858.228	11234.25
858.474	11166.25
858.72	11032.25
858.966	10936.25
859.212	10750.25
859.458	10697.25
859.703	10550.25
859.949	10394.25
860.195	10375.25
860.44	10381.25
860.686	10451.25
860.931	10427.25
861.177	10266.25
861.422	10231.25
861.667	10105.25
861.913	10063.25
862.158	10098.25
862.403	10181.25
862.648	10165.25
862.893	10328.25
863.138	10211.25
863.384	10108.25
863.629	10140.25
863.873	10113.25
864.118	10079.25
864.363	9912.25
864.608	10016.25
864.853	10015.25
865.098	9821.25
865.342	9809.25
865.587	9787.25
865.832	9797.25
866.076	9789.25
866.321	9745.25
866.565	9735.25
866.81	9792.25
867.054	9760.25
867.298	9667.25
867.543	9611.25
867.787	9669.25
868.031	9609.25
868.275	9618.25
868.519	9624.25
868.764	9693.25
869.008	9683.25
869.252	9685.25
869.496	9703.25
869.739	9744.25
869.983	9708.25
870.227	9772.25
870.471	9753.25
870.715	9814.25
870.958	9910.25
871.202	9914.25
871.446	9915.25
871.689	9848.25
871.933	9866.25
872.176	9813.25
872.42	9742.25
872.663	9793.25
872.906	9851.25
873.15	9855.25
873.393	9792.25
873.636	9859.25
873.879	9650.25
874.122	9577.25
874.366	9411.25
874.609	9336.25
874.852	9227.25
875.095	9207.25
875.337	9137.25
875.58	8989.25
875.823	9020.25
876.066	8995.25
876.309	9057.25
876.551	8953.25
876.794	8839.25
877.037	8887.25
877.279	8762.25
877.522	8727.25
877.764	8765.25
878.007	8650.25
878.249	8709.25
878.491	8552.25
878.734	8637.25
878.976	8622.25
879.218	8490.25
879.46	8443.25
879.702	8369.25
879.945	8328.25
880.187	8154.25
880.429	8182.25
880.671	8159.25
880.912	8170.25
881.154	8116.25
881.396	8027.25
881.638	8125.25
881.88	8040.25
882.121	8036.25
882.363	8014.25
882.605	8120.25
882.846	8073.25
883.088	8085.25
883.329	8132.25
883.571	8230.25
883.812	8391.25
884.053	8727.25
884.295	9011.25
884.536	9268.25
884.777	9103.25
885.018	9082.25
885.259	8971.25
885.5	8898.25
885.742	9004.25
885.982	8784.25
886.223	8684.25
886.464	8535.25
886.705	8310.25
886.946	8221.25
887.187	8000.25
887.428	7934.25
887.668	7620.25
887.909	7427.25
888.15	7416.25
888.39	7372.25
888.631	7299.25
888.871	7188.25
889.111	7108.25
889.352	7004.25
889.592	6993.25
889.833	6965.25
890.073	6892.25
890.313	6940.25
890.553	6754.25
890.793	6807.25
891.033	6717.25
891.273	6698.25
891.513	6679.25
891.753	6669.25
891.993	6676.25
892.233	6709.25
892.473	6756.25
892.713	6749.25
892.952	6711.25
893.192	6732.25
893.432	6647.25
893.671	6758.25
893.911	6682.25
894.15	6674.25
894.39	6553.25
894.629	6577.25
894.869	6538.25
895.108	6527.25
895.347	6483.25
895.587	6481.25
895.826	6459.25
896.065	6469.25
896.304	6488.25
896.543	6479.25
896.782	6400.25
897.021	6439.25
897.26	6504.25
897.499	6593.25
897.738	6583.25
897.977	6440.25
898.216	6431.25
898.454	6348.25
898.693	6341.25
898.932	6361.25
899.17	6356.25
899.409	6383.25
899.647	6318.25
899.886	6305.25
900.124	6372.25
900.363	6359.25
900.601	6442.25
900.839	6482.25
901.078	6526.25
901.316	6584.25
901.554	6665.25
901.792	6760.25
902.03	6752.25
902.268	6760.25
902.506	6723.25
902.744	6550.25
902.982	6582.25
903.22	6305.25
903.458	6207.25
903.695	6084.25
903.933	6012.25
904.171	5834.25
904.409	5685.25
904.646	5611.25
904.884	5466.25
905.121	5469.25
905.359	5363.25
905.596	5315.25
905.833	5231.25
906.071	5251.25
906.308	5201.25
906.545	5176.25
906.783	5078.25
907.02	5107.25
907.257	5062.25
907.494	5041.25
907.731	5072.25
907.968	5061.25
908.205	5005.25
908.442	4880.25
908.679	4952.25
908.915	4876.25
909.152	4815.25
909.389	4722.25
909.626	4709.25
909.862	4704.25
910.099	4669.25
910.335	4716.25
910.572	4563.25
910.808	4628.25
911.045	4553.25
911.281	4548.25
911.518	4553.25
911.754	4513.25
911.99	4485.25
912.226	4420.25
912.463	4441.25
912.699	4413.25
912.935	4307.25
913.171	4365.25
913.407	4242.25
913.643	4291.25
913.879	4270.25
914.114	4219.25
914.35	4096.25
914.586	4094.25
914.822	4053.25
915.057	4121.25
915.293	3950.25
915.529	3991.25
915.764	4034.25
916	4040.25
916.235	4015.25
916.471	4036.25
916.706	3970.25
916.941	3969.25
917.177	3901.25
917.412	3991.25
917.647	3963.25
917.882	3907.25
918.117	3947.25
918.352	3899.25
918.588	3975.25
918.823	3863.25
919.057	3849.25
919.292	3707.25
919.527	3813.25
919.762	3720.25
919.997	3751.25
920.232	3625.25
920.466	3674.25
920.701	3583.25
920.935	3619.25
921.17	3550.25
921.405	3495.25
921.639	3569.25
921.873	3513.25
922.108	3530.25
922.342	3548.25
922.576	3459.25
922.811	3462.25
923.045	3469.25
923.279	3512.25
923.513	3331.25
923.747	3443.25
923.981	3406.25
924.215	3391.25
924.449	3324.25
924.683	3311.25
924.917	3310.25
925.151	3278.25
925.385	3361.25
925.618	3329.25
925.852	3307.25
926.086	3254.25
926.319	3310.25
926.553	3248.25
926.786	3294.25
927.02	3265.25
927.253	3290.25
927.486	3299.25
927.72	3240.25
927.953	3247.25
928.186	3198.25
928.42	3201.25
928.653	3191.25
928.886	3114.25
929.119	3146.25
929.352	3118.25
929.585	3129.25
929.818	3090.25
930.051	3102.25
930.284	3093.25
930.516	3024.25
930.749	2991.25
930.982	3047.25
931.215	3049.25
931.447	2931.25
931.68	3000.25
931.912	2948.25
932.145	2940.25
932.377	2986.25
932.61	3092.25
932.842	2961.25
933.074	3015.25
933.307	2943.25
933.539	3006.25
933.771	2960.25
934.003	2939.25
934.236	3035.25
934.468	3028.25
934.7	2948.25
934.932	2964.25
935.164	2895.25
935.395	2904.25
935.627	2924.25
935.859	2927.25
936.091	2893.25
936.323	2903.25
936.554	2906.25
936.786	2869.25
937.017	2807.25
937.249	2878.25
937.481	2831.25
937.712	2873.25
937.943	2814.25
938.175	2826.25
938.406	2830.25
938.637	2888.25
938.869	2770.25
939.1	2837.25
939.331	2739.25
939.562	2795.25
939.793	2786.25
940.024	2812.25
940.255	2818.25
940.486	2743.25
940.717	2755.25
940.948	2750.25
941.179	2685.25
941.409	2687.25
941.64	2682.25
941.871	2674.25
942.102	2668.25
942.332	2702.25
942.563	2700.25
942.793	2692.25
943.024	2639.25
943.254	2705.25
943.484	2732.25
943.715	2771.25
943.945	2686.25
944.175	2609.25
944.405	2610.25
944.636	2630.25
944.866	2674.25
945.096	2659.25
945.326	2605.25
945.556	2642.25
945.786	2673.25
946.016	2595.25
946.245	2539.25
946.475	2565.25
946.705	2530.25
946.935	2552.25
947.164	2547.25
947.394	2510.25
947.624	2530.25
947.853	2554.25
948.083	2506.25
948.312	2484.25
948.542	2410.25
948.771	2410.25
949	2409.25
949.23	2418.25
949.459	2433.25
949.688	2476.25
949.917	2429.25
950.146	2450.25
950.375	2513.25
950.604	2409.25
950.833	2477.25
951.062	2446.25
951.291	2431.25
951.52	2376.25
951.749	2401.25
951.978	2371.25
952.206	2376.25
952.435	2336.25
952.664	2417.25
952.892	2418.25
953.121	2344.25
953.349	2410.25
953.578	2382.25
953.806	2347.25
954.035	2292.25
954.263	2331.25
954.491	2260.25
954.719	2305.25
954.948	2273.25
955.176	2230.25
955.404	2199.25
955.632	2251.25
955.86	2290.25
956.088	2245.25
956.316	2246.25
956.544	2259.25
956.772	2200.25
956.999	2190.25
957.227	2277.25
957.455	2160.25
957.683	2162.25
957.91	2133.25
958.138	2117.25
958.365	2137.25
958.593	2152.25
958.82	2075.25
959.048	2112.25
959.275	2099.25
959.502	2096.25
959.73	2072.25
959.957	2110.25
960.184	2117.25
960.411	2080.25
960.638	2137.25
960.865	2080.25
961.092	2109.25
961.319	2021.25
961.546	2105.25
961.773	2113.25
962	2058.25
962.227	2116.25
962.454	2068.25
962.68	2012.25
962.907	2067.25
963.134	2002.25
963.36	2055.25
963.587	2062.25
963.813	1990.25
964.04	2005.25
964.266	1959.25
964.493	2061.25
964.719	1985.25
964.945	2015.25
965.171	1918.25
965.398	1976.25
965.624	1945.25
965.85	1915.25
966.076	1901.25
966.302	1957.25
966.528	1911.25
966.754	1924.25
966.98	1905.25
967.206	1921.25
967.431	1858.25
967.657	1912.25
967.883	1886.25
968.109	1890.25
968.334	1838.25
968.56	1828.25
968.785	1874.25
969.011	1836.25
969.236	1853.25
969.462	1826.25
969.687	1822.25
969.912	1857.25
970.138	1900.25
970.363	1807.25
970.588	1857.25
970.813	1791.25
971.038	1779.25
971.263	1812.25
971.488	1805.25
971.713	1869.25
971.938	1829.25
972.163	1746.25
972.388	1744.25
972.613	1727.25
972.838	1755.25
973.062	1735.25
973.287	1730.25
973.512	1697.25
973.736	1749.25
973.961	1704.25
974.185	1707.25
974.41	1719.25
974.634	1629.25
974.858	1645.25
975.083	1694.25
975.307	1698.25
975.531	1651.25
975.755	1582.25
975.98	1600.25
976.204	1565.25
976.428	1564.25
976.652	1583.25
976.876	1555.25
977.1	1572.25
977.324	1555.25
977.547	1616.25
977.771	1597.25
977.995	1576.25
978.219	1525.25
978.442	1635.25
978.666	1551.25
978.89	1568.25
979.113	1590.25
979.337	1579.25
979.56	1533.25
979.783	1616.25
980.007	1508.25
980.23	1547.25
980.453	1522.25
980.677	1562.25
980.9	1533.25
981.123	1455.25
981.346	1534.25
981.569	1522.25
981.792	1566.25
982.015	1511.25
982.238	1471.25
982.461	1512.25
982.684	1480.25
982.907	1454.25
983.129	1426.25
983.352	1489.25
983.575	1469.25
983.797	1462.25
984.02	1435.25
984.242	1410.25
984.465	1421.25
984.687	1483.25
984.91	1477.25
985.132	1466.25
985.354	1487.25
985.577	1443.25
985.799	1446.25
986.021	1345.25
986.243	1375.25
986.465	1396.25
986.687	1454.25
986.909	1486.25
987.131	1419.25
987.353	1368.25
987.575	1421.25
987.797	1368.25
988.019	1329.25
988.241	1408.25
988.462	1340.25
988.684	1422.25
988.906	1425.25
989.127	1453.25
989.349	1338.25
989.57	1384.25
989.792	1429.25
990.013	1423.25
990.234	1432.25
990.456	1468.25
990.677	1401.25
990.898	1373.25
991.119	1376.25
991.341	1401.25
991.562	1344.25
991.783	1417.25
992.004	1331.25
992.225	1312.25
992.446	1358.25
992.667	1269.25
992.887	1350.25
993.108	1254.25
993.329	1377.25
993.55	1313.25
993.77	1266.25
993.991	1252.25
994.212	1315.25
994.432	1306.25
994.653	1336.25
994.873	1317.25
995.093	1201.25
995.314	1255.25
995.534	1349.25
995.754	1353.25
995.975	1371.25
996.195	1279.25
996.415	1315.25
996.635	1314.25
996.855	1313.25
997.075	1291.25
997.295	1285.25
997.515	1258.25
997.735	1337.25
997.955	1299.25
998.174	1284.25
998.394	1242.25
998.614	1319.25
998.834	1271.25
999.053	1338.25
999.273	1288.25
999.492	1355.25
999.712	1280.25
999.931	1245.25
1000.151	1298.25
1000.37	1291.25
1000.589	1347.25
1000.809	1264.25
1001.028	1340.25
1001.247	1308.25
1001.466	1197.25
1001.685	1368.25
1001.904	1268.25
1002.123	1273.25
1002.342	1312.25
1002.561	1247.25
1002.78	1248.25
1002.999	1335.25
1003.218	1277.25
1003.436	1231.25
1003.655	1297.25
1003.874	1248.25
1004.092	1275.25
1004.311	1303.25
1004.53	1246.25
1004.748	1345.25
1004.966	1254.25
1005.185	1362.25
1005.403	1289.25
1005.622	1255.25
1005.84	1367.25
1006.058	1255.25
1006.276	1291.25
1006.494	1656.25
1006.712	1300.25
1006.931	1371.25
1007.149	1281.25
1007.367	1289.25
1007.584	1301.25
1007.802	1345.25
1008.02	1321.25
1008.238	1408.25
1008.456	1420.25
1008.673	1285.25
1008.891	1399.25
1009.109	1355.25
1009.326	1435.25
1009.544	1516.25
1009.761	1435.25
1009.979	1584.25
1010.196	1560.25
1010.413	1710.25
1010.631	1758.25
1010.848	1805.25
1011.065	1811.25
1011.282	1758.25
1011.5	1746.25
1011.717	1830.25
1011.934	1766.25
1012.151	1812.25
1012.368	1771.25
1012.585	1753.25
1012.801	1800.25
1013.018	1773.25
1013.235	1731.25
1013.452	1759.25
1013.669	1781.25
1013.885	1752.25
1014.102	1819.25
1014.318	1799.25
1014.535	1727.25
1014.751	1812.25
1014.968	1762.25
1015.184	1808.25
1015.401	1740.25
1015.617	1771.25
1015.833	1674.25
1016.049	1678.25
1016.266	1668.25
1016.482	1679.25
1016.698	1612.25
1016.914	1677.25
1017.13	1593.25
1017.346	1601.25
1017.562	1677.25
1017.778	1638.25
1017.993	1596.25
1018.209	1672.25
1018.425	1644.25
1018.641	1575.25
1018.856	1557.25
1019.072	1635.25
1019.288	1657.25
1019.503	1603.25
1019.719	1522.25
1019.934	1544.25
1020.149	1596.25
1020.365	1540.25
1020.58	1460.25
1020.795	1529.25
1021.011	1434.25
1021.226	1428.25
1021.441	1449.25
1021.656	1329.25
1021.871	1268.25
1022.086	1286.25
1022.301	1281.25
1022.516	1259.25
1022.731	1311.25
1022.946	1223.25
1023.16	1179.25
1023.375	1144.25
1023.59	1162.25
1023.804	1111.25
1024.019	1179.25
1024.234	1052.25
1024.448	1109.25
1024.663	1020.25
1024.877	1023.25
1025.092	1046.25
1025.306	1056.25
1025.52	959.25
1025.734	1030.25
1025.949	940.25
1026.163	915.25
1026.377	868.25
1026.591	910.25
1026.805	851.25
1027.019	845.25
1027.233	814.25
1027.447	756.25
1027.661	875.25
1027.875	797.25
1028.088	821.25
1028.302	738.25
1028.516	723.25
1028.73	725.25
1028.943	723.25
1029.157	677.25
1029.37	630.25
1029.584	-1.75
1029.797	-3.75
1030.011	-3.75
1030.224	-0.75
