Data from QEP037381__223__11-34-59-424.txt Node

Date: Fri Apr 28 11:34:59 EDT 2023
User: dcclab
Spectrometer: QEP03738
Trigger mode: 4
Integration Time (sec): 1.000000E1
Scans to average: 1
Electric dark correction enabled: true
Nonlinearity correction enabled: false
Boxcar width: 0
XAxis mode: Wavelengths
Number of Pixels in Spectrum: 1044
>>>>>Begin Spectral Data<<<<<
784.041	13.38
784.3	-0.62
784.558	-3.62
784.817	-3.62
785.075	64484.38
785.334	12786.38
785.592	6582.38
785.851	4627.38
786.109	3516.38
786.368	2764.38
786.626	2242.38
786.884	1850.38
787.143	1548.38
787.401	1289.38
787.659	1169.38
787.917	1007.38
788.175	914.38
788.433	818.38
788.691	760.38
788.949	693.38
789.207	667.38
789.465	577.38
789.723	565.38
789.98	514.38
790.238	547.38
790.496	527.38
790.753	482.38
791.011	553.38
791.268	474.38
791.526	468.38
791.783	504.38
792.041	482.38
792.298	387.38
792.556	456.38
792.813	451.38
793.07	420.38
793.327	407.38
793.584	486.38
793.841	407.38
794.099	425.38
794.356	471.38
794.613	386.38
794.869	431.38
795.126	395.38
795.383	379.38
795.64	400.38
795.897	357.38
796.153	410.38
796.41	388.38
796.667	373.38
796.923	378.38
797.18	369.38
797.436	413.38
797.693	373.38
797.949	414.38
798.206	454.38
798.462	354.38
798.718	422.38
798.974	393.38
799.231	425.38
799.487	402.38
799.743	420.38
799.999	448.38
800.255	439.38
800.511	400.38
800.767	446.38
801.023	430.38
801.279	450.38
801.534	487.38
801.79	512.38
802.046	509.38
802.302	620.38
802.557	682.38
802.813	807.38
803.068	938.38
803.324	1280.38
803.579	1717.38
803.835	2298.38
804.09	3133.38
804.345	3893.38
804.601	4786.38
804.856	5576.38
805.111	6144.38
805.366	6587.38
805.621	6872.38
805.876	7121.38
806.131	7188.38
806.386	7376.38
806.641	7383.38
806.896	7537.38
807.151	7715.38
807.406	7704.38
807.661	7901.38
807.915	8023.38
808.17	8150.38
808.425	8247.38
808.679	8361.38
808.934	8431.38
809.188	8477.38
809.443	8619.38
809.697	8750.38
809.951	8796.38
810.206	8823.38
810.46	8927.38
810.714	8952.38
810.968	9129.38
811.223	9143.38
811.477	9183.38
811.731	9255.38
811.985	9201.38
812.239	9220.38
812.493	9346.38
812.747	9385.38
813	9386.38
813.254	9380.38
813.508	9489.38
813.762	9469.38
814.015	9580.38
814.269	9638.38
814.522	9656.38
814.776	9735.38
815.03	9891.38
815.283	9991.38
815.536	10103.38
815.79	10195.38
816.043	10405.38
816.296	10560.38
816.55	10686.38
816.803	10753.38
817.056	10895.38
817.309	10966.38
817.562	11010.38
817.815	11233.38
818.068	11278.38
818.321	11440.38
818.574	11529.38
818.827	11697.38
819.079	11861.38
819.332	12166.38
819.585	12221.38
819.838	12446.38
820.09	12417.38
820.343	12583.38
820.595	12480.38
820.848	12587.38
821.1	12653.38
821.353	12590.38
821.605	12575.38
821.857	12603.38
822.11	12439.38
822.362	12486.38
822.614	12438.38
822.866	12517.38
823.118	12480.38
823.37	12622.38
823.622	12617.38
823.874	12668.38
824.126	12686.38
824.378	12646.38
824.63	12675.38
824.882	12808.38
825.134	12652.38
825.385	12685.38
825.637	12546.38
825.888	12461.38
826.14	12503.38
826.392	12400.38
826.643	12306.38
826.895	12331.38
827.146	12213.38
827.397	12144.38
827.649	12263.38
827.9	12138.38
828.151	12114.38
828.402	12153.38
828.653	12185.38
828.905	12132.38
829.156	12269.38
829.407	12301.38
829.658	12327.38
829.909	12380.38
830.159	12379.38
830.41	12262.38
830.661	12140.38
830.912	12103.38
831.162	11961.38
831.413	11944.38
831.664	12035.38
831.914	11914.38
832.165	11947.38
832.415	11921.38
832.666	11894.38
832.916	11896.38
833.167	11858.38
833.417	11875.38
833.667	11833.38
833.917	11817.38
834.168	11831.38
834.418	11709.38
834.668	11683.38
834.918	11565.38
835.168	11564.38
835.418	11483.38
835.668	11419.38
835.918	11423.38
836.167	11374.38
836.417	11331.38
836.667	11409.38
836.917	11370.38
837.166	11261.38
837.416	11292.38
837.666	11308.38
837.915	11240.38
838.165	11226.38
838.414	11068.38
838.663	11082.38
838.913	11160.38
839.162	11015.38
839.411	11121.38
839.661	11051.38
839.91	11070.38
840.159	10950.38
840.408	11047.38
840.657	11091.38
840.906	10964.38
841.155	11034.38
841.404	10988.38
841.653	11006.38
841.902	11009.38
842.15	10953.38
842.399	11113.38
842.648	11089.38
842.897	10922.38
843.145	10867.38
843.394	10720.38
843.642	10718.38
843.891	10667.38
844.139	10624.38
844.388	10468.38
844.636	10472.38
844.884	10424.38
845.133	10412.38
845.381	10507.38
845.629	10463.38
845.877	10421.38
846.125	10400.38
846.373	10455.38
846.621	10362.38
846.869	10349.38
847.117	10288.38
847.365	10213.38
847.613	10138.38
847.861	10171.38
848.108	10178.38
848.356	10164.38
848.604	10044.38
848.851	10099.38
849.099	10148.38
849.346	10131.38
849.594	10116.38
849.841	10135.38
850.089	10211.38
850.336	10165.38
850.583	10196.38
850.831	10228.38
851.078	10170.38
851.325	10257.38
851.572	10392.38
851.819	10261.38
852.066	9816.38
852.313	9578.38
852.56	9475.38
852.807	9535.38
853.054	9491.38
853.301	9443.38
853.548	9561.38
853.794	9597.38
854.041	9634.38
854.288	9565.38
854.534	9815.38
854.781	9631.38
855.028	9584.38
855.274	9635.38
855.52	9651.38
855.767	9566.38
856.013	9625.38
856.26	9887.38
856.506	9411.38
856.752	9414.38
856.998	9378.38
857.244	9438.38
857.49	9517.38
857.736	9542.38
857.982	9488.38
858.228	9419.38
858.474	9340.38
858.72	9222.38
858.966	9180.38
859.212	9051.38
859.458	8952.38
859.703	8863.38
859.949	8791.38
860.195	8692.38
860.44	8704.38
860.686	8705.38
860.931	8764.38
861.177	8563.38
861.422	8557.38
861.667	8500.38
861.913	8485.38
862.158	8504.38
862.403	8514.38
862.648	8513.38
862.893	8602.38
863.138	8525.38
863.384	8468.38
863.629	8492.38
863.873	8406.38
864.118	8422.38
864.363	8347.38
864.608	8316.38
864.853	8333.38
865.098	8205.38
865.342	8192.38
865.587	8137.38
865.832	8177.38
866.076	8115.38
866.321	8174.38
866.565	8053.38
866.81	8041.38
867.054	8058.38
867.298	8041.38
867.543	7961.38
867.787	8029.38
868.031	8012.38
868.275	7941.38
868.519	7990.38
868.764	8042.38
869.008	7928.38
869.252	8005.38
869.496	7893.38
869.739	7910.38
869.983	7929.38
870.227	8039.38
870.471	7957.38
870.715	8094.38
870.958	8150.38
871.202	8118.38
871.446	8091.38
871.689	8044.38
871.933	8063.38
872.176	8071.38
872.42	7984.38
872.663	8015.38
872.906	8044.38
873.15	7950.38
873.393	7970.38
873.636	7990.38
873.879	7936.38
874.122	7845.38
874.366	7652.38
874.609	7606.38
874.852	7545.38
875.095	7498.38
875.337	7398.38
875.58	7281.38
875.823	7347.38
876.066	7395.38
876.309	7362.38
876.551	7201.38
876.794	7159.38
877.037	7202.38
877.279	7162.38
877.522	7157.38
877.764	7188.38
878.007	7102.38
878.249	7163.38
878.491	7044.38
878.734	7036.38
878.976	7060.38
879.218	6910.38
879.46	6986.38
879.702	6893.38
879.945	6760.38
880.187	6718.38
880.429	6708.38
880.671	6641.38
880.912	6596.38
881.154	6623.38
881.396	6524.38
881.638	6640.38
881.88	6612.38
882.121	6553.38
882.363	6564.38
882.605	6548.38
882.846	6540.38
883.088	6586.38
883.329	6544.38
883.571	6636.38
883.812	6730.38
884.053	6993.38
884.295	7178.38
884.536	7327.38
884.777	7260.38
885.018	7219.38
885.259	7189.38
885.5	7046.38
885.742	7161.38
885.982	7012.38
886.223	6835.38
886.464	6821.38
886.705	6637.38
886.946	6632.38
887.187	6456.38
887.428	6354.38
887.668	6188.38
887.909	6069.38
888.15	6004.38
888.39	5954.38
888.631	5930.38
888.871	5846.38
889.111	5857.38
889.352	5776.38
889.592	5727.38
889.833	5695.38
890.073	5614.38
890.313	5660.38
890.553	5495.38
890.793	5522.38
891.033	5452.38
891.273	5379.38
891.513	5487.38
891.753	5509.38
891.993	5391.38
892.233	5459.38
892.473	5487.38
892.713	5414.38
892.952	5417.38
893.192	5404.38
893.432	5428.38
893.671	5477.38
893.911	5419.38
894.15	5422.38
894.39	5288.38
894.629	5290.38
894.869	5265.38
895.108	5266.38
895.347	5254.38
895.587	5225.38
895.826	5211.38
896.065	5196.38
896.304	5216.38
896.543	5264.38
896.782	5117.38
897.021	5190.38
897.26	5213.38
897.499	5215.38
897.738	5290.38
897.977	5159.38
898.216	5111.38
898.454	5082.38
898.693	5024.38
898.932	5023.38
899.17	4992.38
899.409	4983.38
899.647	4964.38
899.886	4951.38
900.124	5004.38
900.363	5007.38
900.601	5033.38
900.839	5015.38
901.078	5097.38
901.316	5136.38
901.554	5175.38
901.792	5188.38
902.03	5214.38
902.268	5206.38
902.506	5259.38
902.744	5140.38
902.982	5072.38
903.22	4934.38
903.458	4874.38
903.695	4781.38
903.933	4698.38
904.171	4560.38
904.409	4499.38
904.646	4525.38
904.884	4348.38
905.121	4379.38
905.359	4304.38
905.596	4292.38
905.833	4180.38
906.071	4166.38
906.308	4193.38
906.545	4140.38
906.783	4096.38
907.02	4103.38
907.257	4073.38
907.494	4097.38
907.731	4067.38
907.968	4099.38
908.205	4037.38
908.442	3986.38
908.679	3957.38
908.915	3916.38
909.152	3928.38
909.389	3846.38
909.626	3866.38
909.862	3794.38
910.099	3816.38
910.335	3835.38
910.572	3707.38
910.808	3759.38
911.045	3703.38
911.281	3663.38
911.518	3745.38
911.754	3667.38
911.99	3691.38
912.226	3643.38
912.463	3569.38
912.699	3593.38
912.935	3570.38
913.171	3526.38
913.407	3488.38
913.643	3521.38
913.879	3500.38
914.114	3400.38
914.35	3403.38
914.586	3337.38
914.822	3327.38
915.057	3380.38
915.293	3247.38
915.529	3269.38
915.764	3299.38
916	3295.38
916.235	3262.38
916.471	3273.38
916.706	3183.38
916.941	3243.38
917.177	3188.38
917.412	3279.38
917.647	3247.38
917.882	3219.38
918.117	3240.38
918.352	3210.38
918.588	3265.38
918.823	3139.38
919.057	3134.38
919.292	3025.38
919.527	3139.38
919.762	3016.38
919.997	3106.38
920.232	2954.38
920.466	2997.38
920.701	2902.38
920.935	2968.38
921.17	2888.38
921.405	2854.38
921.639	2935.38
921.873	2839.38
922.108	2875.38
922.342	2889.38
922.576	2817.38
922.811	2810.38
923.045	2854.38
923.279	2908.38
923.513	2739.38
923.747	2825.38
923.981	2784.38
924.215	2745.38
924.449	2734.38
924.683	2648.38
924.917	2649.38
925.151	2715.38
925.385	2735.38
925.618	2704.38
925.852	2715.38
926.086	2637.38
926.319	2697.38
926.553	2677.38
926.786	2683.38
927.02	2681.38
927.253	2708.38
927.486	2681.38
927.72	2597.38
927.953	2716.38
928.186	2628.38
928.42	2667.38
928.653	2593.38
928.886	2583.38
929.119	2601.38
929.352	2551.38
929.585	2600.38
929.818	2544.38
930.051	2552.38
930.284	2542.38
930.516	2451.38
930.749	2441.38
930.982	2522.38
931.215	2428.38
931.447	2396.38
931.68	2412.38
931.912	2405.38
932.145	2431.38
932.377	2448.38
932.61	2539.38
932.842	2334.38
933.074	2451.38
933.307	2381.38
933.539	2477.38
933.771	2445.38
934.003	2418.38
934.236	2488.38
934.468	2499.38
934.7	2391.38
934.932	2434.38
935.164	2354.38
935.395	2343.38
935.627	2383.38
935.859	2391.38
936.091	2336.38
936.323	2375.38
936.554	2370.38
936.786	2334.38
937.017	2291.38
937.249	2341.38
937.481	2257.38
937.712	2354.38
937.943	2329.38
938.175	2308.38
938.406	2277.38
938.637	2373.38
938.869	2246.38
939.1	2303.38
939.331	2300.38
939.562	2294.38
939.793	2276.38
940.024	2307.38
940.255	2301.38
940.486	2217.38
940.717	2213.38
940.948	2255.38
941.179	2137.38
941.409	2223.38
941.64	2202.38
941.871	2200.38
942.102	2181.38
942.332	2202.38
942.563	2236.38
942.793	2215.38
943.024	2153.38
943.254	2207.38
943.484	2222.38
943.715	2211.38
943.945	2215.38
944.175	2173.38
944.405	2110.38
944.636	2123.38
944.866	2164.38
945.096	2155.38
945.326	2106.38
945.556	2180.38
945.786	2208.38
946.016	2094.38
946.245	2064.38
946.475	2090.38
946.705	2066.38
946.935	2066.38
947.164	2116.38
947.394	2061.38
947.624	2080.38
947.853	2075.38
948.083	2079.38
948.312	2045.38
948.542	1994.38
948.771	1958.38
949	2012.38
949.23	1984.38
949.459	2012.38
949.688	2093.38
949.917	1989.38
950.146	1997.38
950.375	2111.38
950.604	1972.38
950.833	2062.38
951.062	2058.38
951.291	1990.38
951.52	1998.38
951.749	1985.38
951.978	1966.38
952.206	1943.38
952.435	1951.38
952.664	1969.38
952.892	1979.38
953.121	1948.38
953.349	1944.38
953.578	1953.38
953.806	1951.38
954.035	1876.38
954.263	1915.38
954.491	1875.38
954.719	1896.38
954.948	1876.38
955.176	1849.38
955.404	1806.38
955.632	1885.38
955.86	1905.38
956.088	1854.38
956.316	1870.38
956.544	1898.38
956.772	1829.38
956.999	1803.38
957.227	1897.38
957.455	1799.38
957.683	1833.38
957.91	1768.38
958.138	1767.38
958.365	1779.38
958.593	1766.38
958.82	1678.38
959.048	1784.38
959.275	1771.38
959.502	1729.38
959.73	1715.38
959.957	1779.38
960.184	1819.38
960.411	1746.38
960.638	1794.38
960.865	1738.38
961.092	1776.38
961.319	1677.38
961.546	1758.38
961.773	1778.38
962	1734.38
962.227	1749.38
962.454	1742.38
962.68	1691.38
962.907	1735.38
963.134	1673.38
963.36	1714.38
963.587	1748.38
963.813	1652.38
964.04	1702.38
964.266	1659.38
964.493	1737.38
964.719	1702.38
964.945	1734.38
965.171	1600.38
965.398	1629.38
965.624	1691.38
965.85	1608.38
966.076	1648.38
966.302	1650.38
966.528	1621.38
966.754	1659.38
966.98	1622.38
967.206	1619.38
967.431	1595.38
967.657	1624.38
967.883	1625.38
968.109	1612.38
968.334	1556.38
968.56	1538.38
968.785	1555.38
969.011	1561.38
969.236	1568.38
969.462	1528.38
969.687	1566.38
969.912	1607.38
970.138	1622.38
970.363	1529.38
970.588	1551.38
970.813	1558.38
971.038	1504.38
971.263	1522.38
971.488	1556.38
971.713	1571.38
971.938	1555.38
972.163	1476.38
972.388	1484.38
972.613	1480.38
972.838	1492.38
973.062	1485.38
973.287	1501.38
973.512	1419.38
973.736	1474.38
973.961	1439.38
974.185	1451.38
974.41	1468.38
974.634	1374.38
974.858	1428.38
975.083	1434.38
975.307	1459.38
975.531	1428.38
975.755	1354.38
975.98	1401.38
976.204	1315.38
976.428	1342.38
976.652	1338.38
976.876	1343.38
977.1	1358.38
977.324	1328.38
977.547	1371.38
977.771	1384.38
977.995	1357.38
978.219	1276.38
978.442	1410.38
978.666	1342.38
978.89	1334.38
979.113	1353.38
979.337	1316.38
979.56	1292.38
979.783	1379.38
980.007	1314.38
980.23	1320.38
980.453	1282.38
980.677	1326.38
980.9	1314.38
981.123	1228.38
981.346	1344.38
981.569	1303.38
981.792	1342.38
982.015	1289.38
982.238	1280.38
982.461	1277.38
982.684	1251.38
982.907	1231.38
983.129	1232.38
983.352	1276.38
983.575	1249.38
983.797	1256.38
984.02	1221.38
984.242	1239.38
984.465	1230.38
984.687	1270.38
984.91	1284.38
985.132	1246.38
985.354	1300.38
985.577	1269.38
985.799	1248.38
986.021	1167.38
986.243	1222.38
986.465	1202.38
986.687	1242.38
986.909	1288.38
987.131	1243.38
987.353	1214.38
987.575	1269.38
987.797	1182.38
988.019	1153.38
988.241	1196.38
988.462	1168.38
988.684	1246.38
988.906	1266.38
989.127	1297.38
989.349	1153.38
989.57	1197.38
989.792	1229.38
990.013	1245.38
990.234	1249.38
990.456	1277.38
990.677	1254.38
990.898	1202.38
991.119	1209.38
991.341	1241.38
991.562	1155.38
991.783	1191.38
992.004	1163.38
992.225	1141.38
992.446	1180.38
992.667	1115.38
992.887	1201.38
993.108	1083.38
993.329	1227.38
993.55	1171.38
993.77	1129.38
993.991	1131.38
994.212	1143.38
994.432	1134.38
994.653	1153.38
994.873	1167.38
995.093	1038.38
995.314	1103.38
995.534	1170.38
995.754	1191.38
995.975	1213.38
996.195	1110.38
996.415	1163.38
996.635	1145.38
996.855	1152.38
997.075	1111.38
997.295	1122.38
997.515	1115.38
997.735	1180.38
997.955	1158.38
998.174	1123.38
998.394	1103.38
998.614	1152.38
998.834	1112.38
999.053	1166.38
999.273	1160.38
999.492	1188.38
999.712	1138.38
999.931	1111.38
1000.151	1163.38
1000.37	1121.38
1000.589	1195.38
1000.809	1120.38
1001.028	1212.38
1001.247	1166.38
1001.466	1072.38
1001.685	1211.38
1001.904	1147.38
1002.123	1150.38
1002.342	1129.38
1002.561	1101.38
1002.78	1123.38
1002.999	1187.38
1003.218	1131.38
1003.436	1110.38
1003.655	1177.38
1003.874	1103.38
1004.092	1142.38
1004.311	1205.38
1004.53	1166.38
1004.748	1206.38
1004.966	1124.38
1005.185	1197.38
1005.403	1175.38
1005.622	1161.38
1005.84	1216.38
1006.058	1106.38
1006.276	1174.38
1006.494	1510.38
1006.712	1133.38
1006.931	1214.38
1007.149	1119.38
1007.367	1117.38
1007.584	1152.38
1007.802	1231.38
1008.02	1167.38
1008.238	1271.38
1008.456	1262.38
1008.673	1121.38
1008.891	1248.38
1009.109	1218.38
1009.326	1263.38
1009.544	1333.38
1009.761	1243.38
1009.979	1337.38
1010.196	1348.38
1010.413	1447.38
1010.631	1468.38
1010.848	1530.38
1011.065	1554.38
1011.282	1487.38
1011.5	1438.38
1011.717	1540.38
1011.934	1470.38
1012.151	1524.38
1012.368	1485.38
1012.585	1460.38
1012.801	1477.38
1013.018	1505.38
1013.235	1449.38
1013.452	1461.38
1013.669	1461.38
1013.885	1474.38
1014.102	1478.38
1014.318	1489.38
1014.535	1434.38
1014.751	1458.38
1014.968	1473.38
1015.184	1495.38
1015.401	1389.38
1015.617	1440.38
1015.833	1389.38
1016.049	1387.38
1016.266	1360.38
1016.482	1412.38
1016.698	1308.38
1016.914	1374.38
1017.13	1336.38
1017.346	1303.38
1017.562	1388.38
1017.778	1332.38
1017.993	1299.38
1018.209	1376.38
1018.425	1341.38
1018.641	1304.38
1018.856	1272.38
1019.072	1298.38
1019.288	1343.38
1019.503	1300.38
1019.719	1235.38
1019.934	1265.38
1020.149	1329.38
1020.365	1261.38
1020.58	1217.38
1020.795	1247.38
1021.011	1195.38
1021.226	1164.38
1021.441	1187.38
1021.656	1109.38
1021.871	1059.38
1022.086	1047.38
1022.301	1038.38
1022.516	1022.38
1022.731	1092.38
1022.946	998.38
1023.16	980.38
1023.375	954.38
1023.59	929.38
1023.804	911.38
1024.019	1019.38
1024.234	855.38
1024.448	918.38
1024.663	847.38
1024.877	857.38
1025.092	869.38
1025.306	885.38
1025.52	791.38
1025.734	894.38
1025.949	793.38
1026.163	759.38
1026.377	732.38
1026.591	765.38
1026.805	710.38
1027.019	709.38
1027.233	688.38
1027.447	625.38
1027.661	744.38
1027.875	696.38
1028.088	694.38
1028.302	618.38
1028.516	604.38
1028.73	612.38
1028.943	611.38
1029.157	544.38
1029.37	522.38
1029.584	1.38
1029.797	-3.62
1030.011	0.38
1030.224	-3.62
