Data from QEP037381__251__11-39-39-425.txt Node

Date: Fri Apr 28 11:39:39 EDT 2023
User: dcclab
Spectrometer: QEP03738
Trigger mode: 4
Integration Time (sec): 1.000000E1
Scans to average: 1
Electric dark correction enabled: true
Nonlinearity correction enabled: false
Boxcar width: 0
XAxis mode: Wavelengths
Number of Pixels in Spectrum: 1044
>>>>>Begin Spectral Data<<<<<
784.041	13.75
784.3	0.75
784.558	-1.25
784.817	-3.25
785.075	66195.75
785.334	13006.75
785.592	6611.75
785.851	4722.75
786.109	3608.75
786.368	2822.75
786.626	2261.75
786.884	1922.75
787.143	1612.75
787.401	1327.75
787.659	1211.75
787.917	1038.75
788.175	955.75
788.433	838.75
788.691	757.75
788.949	704.75
789.207	682.75
789.465	587.75
789.723	576.75
789.98	520.75
790.238	562.75
790.496	540.75
790.753	494.75
791.011	557.75
791.268	498.75
791.526	466.75
791.783	486.75
792.041	480.75
792.298	394.75
792.556	453.75
792.813	443.75
793.07	423.75
793.327	410.75
793.584	488.75
793.841	417.75
794.099	427.75
794.356	474.75
794.613	395.75
794.869	423.75
795.126	393.75
795.383	373.75
795.64	398.75
795.897	348.75
796.153	405.75
796.41	388.75
796.667	371.75
796.923	388.75
797.18	380.75
797.436	415.75
797.693	365.75
797.949	417.75
798.206	453.75
798.462	353.75
798.718	425.75
798.974	394.75
799.231	441.75
799.487	427.75
799.743	426.75
799.999	449.75
800.255	434.75
800.511	415.75
800.767	463.75
801.023	446.75
801.279	468.75
801.534	482.75
801.79	534.75
802.046	537.75
802.302	637.75
802.557	678.75
802.813	885.75
803.068	1014.75
803.324	1374.75
803.579	1833.75
803.835	2469.75
804.09	3304.75
804.345	4123.75
804.601	4899.75
804.856	5656.75
805.111	6262.75
805.366	6641.75
805.621	6933.75
805.876	7188.75
806.131	7279.75
806.386	7346.75
806.641	7495.75
806.896	7528.75
807.151	7741.75
807.406	7780.75
807.661	7963.75
807.915	8069.75
808.17	8187.75
808.425	8317.75
808.679	8329.75
808.934	8586.75
809.188	8597.75
809.443	8743.75
809.697	8909.75
809.951	8861.75
810.206	8905.75
810.46	9045.75
810.714	9083.75
810.968	9269.75
811.223	9125.75
811.477	9296.75
811.731	9411.75
811.985	9389.75
812.239	9426.75
812.493	9449.75
812.747	9457.75
813	9432.75
813.254	9522.75
813.508	9614.75
813.762	9640.75
814.015	9628.75
814.269	9703.75
814.522	9804.75
814.776	9894.75
815.03	9923.75
815.283	10105.75
815.536	10190.75
815.79	10393.75
816.043	10525.75
816.296	10654.75
816.55	10749.75
816.803	10798.75
817.056	11096.75
817.309	11083.75
817.562	11193.75
817.815	11359.75
818.068	11448.75
818.321	11548.75
818.574	11712.75
818.827	11888.75
819.079	11922.75
819.332	12278.75
819.585	12501.75
819.838	12577.75
820.09	12548.75
820.343	12653.75
820.595	12595.75
820.848	12754.75
821.1	12760.75
821.353	12798.75
821.605	12723.75
821.857	12642.75
822.11	12578.75
822.362	12527.75
822.614	12467.75
822.866	12600.75
823.118	12523.75
823.37	12694.75
823.622	12754.75
823.874	12675.75
824.126	12815.75
824.378	12744.75
824.63	12763.75
824.882	12879.75
825.134	12731.75
825.385	12711.75
825.637	12553.75
825.888	12553.75
826.14	12513.75
826.392	12441.75
826.643	12376.75
826.895	12304.75
827.146	12213.75
827.397	12255.75
827.649	12259.75
827.9	12164.75
828.151	12173.75
828.402	12227.75
828.653	12237.75
828.905	12280.75
829.156	12275.75
829.407	12252.75
829.658	12368.75
829.909	12511.75
830.159	12513.75
830.41	12438.75
830.661	12305.75
830.912	12216.75
831.162	12243.75
831.413	12128.75
831.664	12232.75
831.914	12130.75
832.165	12035.75
832.415	12007.75
832.666	12054.75
832.916	12117.75
833.167	12070.75
833.417	12045.75
833.667	12043.75
833.917	11840.75
834.168	11908.75
834.418	11867.75
834.668	11797.75
834.918	11740.75
835.168	11707.75
835.418	11596.75
835.668	11559.75
835.918	11586.75
836.167	11537.75
836.417	11397.75
836.667	11404.75
836.917	11477.75
837.166	11453.75
837.416	11522.75
837.666	11454.75
837.915	11405.75
838.165	11397.75
838.414	11282.75
838.663	11293.75
838.913	11363.75
839.162	11287.75
839.411	11407.75
839.661	11326.75
839.91	11391.75
840.159	11348.75
840.408	11312.75
840.657	11399.75
840.906	11310.75
841.155	11350.75
841.404	11268.75
841.653	11325.75
841.902	11286.75
842.15	11381.75
842.399	11434.75
842.648	11296.75
842.897	11312.75
843.145	11146.75
843.394	11060.75
843.642	11040.75
843.891	11020.75
844.139	10858.75
844.388	10790.75
844.636	10725.75
844.884	10663.75
845.133	10624.75
845.381	10650.75
845.629	10766.75
845.877	10710.75
846.125	10742.75
846.373	10698.75
846.621	10662.75
846.869	10672.75
847.117	10562.75
847.365	10447.75
847.613	10500.75
847.861	10440.75
848.108	10525.75
848.356	10413.75
848.604	10426.75
848.851	10428.75
849.099	10420.75
849.346	10390.75
849.594	10560.75
849.841	10559.75
850.089	10547.75
850.336	10581.75
850.583	10676.75
850.831	10536.75
851.078	10639.75
851.325	10692.75
851.572	10910.75
851.819	10717.75
852.066	10174.75
852.313	9993.75
852.56	9797.75
852.807	9815.75
853.054	9814.75
853.301	9861.75
853.548	9961.75
853.794	10040.75
854.041	9986.75
854.288	9993.75
854.534	10144.75
854.781	10087.75
855.028	10016.75
855.274	10116.75
855.52	10114.75
855.767	10152.75
856.013	10295.75
856.26	10573.75
856.506	9951.75
856.752	9858.75
856.998	9950.75
857.244	9987.75
857.49	10115.75
857.736	10107.75
857.982	10070.75
858.228	10028.75
858.474	9792.75
858.72	9705.75
858.966	9680.75
859.212	9528.75
859.458	9355.75
859.703	9254.75
859.949	9239.75
860.195	9236.75
860.44	9194.75
860.686	9222.75
860.931	9266.75
861.177	9032.75
861.422	8970.75
861.667	8817.75
861.913	8798.75
862.158	8859.75
862.403	8855.75
862.648	8840.75
862.893	8915.75
863.138	8844.75
863.384	8725.75
863.629	8740.75
863.873	8832.75
864.118	8788.75
864.363	8810.75
864.608	8747.75
864.853	8623.75
865.098	8588.75
865.342	8546.75
865.587	8531.75
865.832	8512.75
866.076	8617.75
866.321	8517.75
866.565	8523.75
866.81	8405.75
867.054	8395.75
867.298	8432.75
867.543	8325.75
867.787	8375.75
868.031	8416.75
868.275	8433.75
868.519	8399.75
868.764	8468.75
869.008	8386.75
869.252	8452.75
869.496	8474.75
869.739	8509.75
869.983	8561.75
870.227	8624.75
870.471	8577.75
870.715	8706.75
870.958	8771.75
871.202	8725.75
871.446	8761.75
871.689	8799.75
871.933	8732.75
872.176	8726.75
872.42	8655.75
872.663	8686.75
872.906	8647.75
873.15	8748.75
873.393	8818.75
873.636	8801.75
873.879	8716.75
874.122	8499.75
874.366	8277.75
874.609	8296.75
874.852	8113.75
875.095	8110.75
875.337	7952.75
875.58	7941.75
875.823	7894.75
876.066	7905.75
876.309	7895.75
876.551	7745.75
876.794	7857.75
877.037	7838.75
877.279	7613.75
877.522	7670.75
877.764	7645.75
878.007	7583.75
878.249	7572.75
878.491	7458.75
878.734	7523.75
878.976	7399.75
879.218	7309.75
879.46	7403.75
879.702	7256.75
879.945	7261.75
880.187	7098.75
880.429	7093.75
880.671	6992.75
880.912	6985.75
881.154	7038.75
881.396	6877.75
881.638	7010.75
881.88	6961.75
882.121	6973.75
882.363	6964.75
882.605	7022.75
882.846	7025.75
883.088	7076.75
883.329	7095.75
883.571	7268.75
883.812	7549.75
884.053	7913.75
884.295	8314.75
884.536	8522.75
884.777	8498.75
885.018	8300.75
885.259	8223.75
885.5	8172.75
885.742	8236.75
885.982	7968.75
886.223	7788.75
886.464	7649.75
886.705	7506.75
886.946	7320.75
887.187	6981.75
887.428	6918.75
887.668	6665.75
887.909	6547.75
888.15	6354.75
888.39	6319.75
888.631	6265.75
888.871	6184.75
889.111	6129.75
889.352	6091.75
889.592	5954.75
889.833	5944.75
890.073	5910.75
890.313	5890.75
890.553	5766.75
890.793	5783.75
891.033	5755.75
891.273	5712.75
891.513	5703.75
891.753	5770.75
891.993	5663.75
892.233	5733.75
892.473	5728.75
892.713	5683.75
892.952	5680.75
893.192	5766.75
893.432	5705.75
893.671	5725.75
893.911	5691.75
894.15	5663.75
894.39	5595.75
894.629	5547.75
894.869	5602.75
895.108	5586.75
895.347	5512.75
895.587	5565.75
895.826	5512.75
896.065	5527.75
896.304	5551.75
896.543	5578.75
896.782	5481.75
897.021	5560.75
897.26	5580.75
897.499	5642.75
897.738	5620.75
897.977	5608.75
898.216	5533.75
898.454	5509.75
898.693	5477.75
898.932	5498.75
899.17	5438.75
899.409	5494.75
899.647	5497.75
899.886	5496.75
900.124	5531.75
900.363	5541.75
900.601	5612.75
900.839	5592.75
901.078	5674.75
901.316	5790.75
901.554	5859.75
901.792	6009.75
902.03	5958.75
902.268	5948.75
902.506	5986.75
902.744	5858.75
902.982	5806.75
903.22	5582.75
903.458	5404.75
903.695	5334.75
903.933	5181.75
904.171	5014.75
904.409	4931.75
904.646	4838.75
904.884	4697.75
905.121	4675.75
905.359	4568.75
905.596	4540.75
905.833	4459.75
906.071	4374.75
906.308	4443.75
906.545	4397.75
906.783	4313.75
907.02	4338.75
907.257	4283.75
907.494	4262.75
907.731	4294.75
907.968	4249.75
908.205	4188.75
908.442	4183.75
908.679	4159.75
908.915	4105.75
909.152	4108.75
909.389	3973.75
909.626	4019.75
909.862	3901.75
910.099	3926.75
910.335	3929.75
910.572	3826.75
910.808	3866.75
911.045	3847.75
911.281	3790.75
911.518	3876.75
911.754	3785.75
911.99	3765.75
912.226	3775.75
912.463	3661.75
912.699	3682.75
912.935	3677.75
913.171	3632.75
913.407	3579.75
913.643	3600.75
913.879	3573.75
914.114	3512.75
914.35	3469.75
914.586	3447.75
914.822	3412.75
915.057	3465.75
915.293	3304.75
915.529	3318.75
915.764	3389.75
916	3381.75
916.235	3346.75
916.471	3374.75
916.706	3228.75
916.941	3316.75
917.177	3308.75
917.412	3319.75
917.647	3303.75
917.882	3248.75
918.117	3272.75
918.352	3318.75
918.588	3315.75
918.823	3274.75
919.057	3229.75
919.292	3087.75
919.527	3184.75
919.762	3104.75
919.997	3107.75
920.232	3067.75
920.466	3057.75
920.701	2964.75
920.935	2987.75
921.17	2949.75
921.405	2950.75
921.639	3006.75
921.873	2931.75
922.108	2948.75
922.342	2955.75
922.576	2859.75
922.811	2898.75
923.045	2901.75
923.279	2898.75
923.513	2819.75
923.747	2893.75
923.981	2860.75
924.215	2801.75
924.449	2830.75
924.683	2773.75
924.917	2755.75
925.151	2734.75
925.385	2791.75
925.618	2782.75
925.852	2758.75
926.086	2684.75
926.319	2737.75
926.553	2720.75
926.786	2738.75
927.02	2725.75
927.253	2715.75
927.486	2768.75
927.72	2675.75
927.953	2746.75
928.186	2712.75
928.42	2711.75
928.653	2681.75
928.886	2606.75
929.119	2667.75
929.352	2648.75
929.585	2632.75
929.818	2594.75
930.051	2610.75
930.284	2602.75
930.516	2517.75
930.749	2508.75
930.982	2548.75
931.215	2539.75
931.447	2471.75
931.68	2461.75
931.912	2428.75
932.145	2469.75
932.377	2512.75
932.61	2607.75
932.842	2430.75
933.074	2506.75
933.307	2468.75
933.539	2568.75
933.771	2556.75
934.003	2487.75
934.236	2579.75
934.468	2549.75
934.7	2453.75
934.932	2528.75
935.164	2445.75
935.395	2422.75
935.627	2451.75
935.859	2460.75
936.091	2394.75
936.323	2396.75
936.554	2465.75
936.786	2425.75
937.017	2347.75
937.249	2408.75
937.481	2315.75
937.712	2399.75
937.943	2369.75
938.175	2359.75
938.406	2350.75
938.637	2424.75
938.869	2324.75
939.1	2391.75
939.331	2341.75
939.562	2364.75
939.793	2336.75
940.024	2379.75
940.255	2364.75
940.486	2320.75
940.717	2354.75
940.948	2279.75
941.179	2288.75
941.409	2279.75
941.64	2261.75
941.871	2301.75
942.102	2246.75
942.332	2263.75
942.563	2298.75
942.793	2296.75
943.024	2206.75
943.254	2254.75
943.484	2286.75
943.715	2339.75
943.945	2257.75
944.175	2213.75
944.405	2196.75
944.636	2236.75
944.866	2230.75
945.096	2215.75
945.326	2163.75
945.556	2224.75
945.786	2246.75
946.016	2201.75
946.245	2138.75
946.475	2127.75
946.705	2137.75
946.935	2148.75
947.164	2158.75
947.394	2102.75
947.624	2131.75
947.853	2181.75
948.083	2131.75
948.312	2086.75
948.542	2069.75
948.771	2020.75
949	2021.75
949.23	2031.75
949.459	2043.75
949.688	2121.75
949.917	2068.75
950.146	2082.75
950.375	2115.75
950.604	1979.75
950.833	2097.75
951.062	2092.75
951.291	2038.75
951.52	2007.75
951.749	2046.75
951.978	1980.75
952.206	2005.75
952.435	1995.75
952.664	1998.75
952.892	2020.75
953.121	1995.75
953.349	2020.75
953.578	2009.75
953.806	1994.75
954.035	1934.75
954.263	1969.75
954.491	1896.75
954.719	1951.75
954.948	1916.75
955.176	1927.75
955.404	1825.75
955.632	1908.75
955.86	1887.75
956.088	1891.75
956.316	1890.75
956.544	1932.75
956.772	1851.75
956.999	1827.75
957.227	1945.75
957.455	1820.75
957.683	1809.75
957.91	1808.75
958.138	1783.75
958.365	1786.75
958.593	1782.75
958.82	1742.75
959.048	1842.75
959.275	1792.75
959.502	1769.75
959.73	1751.75
959.957	1795.75
960.184	1822.75
960.411	1752.75
960.638	1809.75
960.865	1770.75
961.092	1773.75
961.319	1703.75
961.546	1783.75
961.773	1792.75
962	1746.75
962.227	1803.75
962.454	1744.75
962.68	1752.75
962.907	1754.75
963.134	1698.75
963.36	1751.75
963.587	1740.75
963.813	1689.75
964.04	1736.75
964.266	1679.75
964.493	1747.75
964.719	1723.75
964.945	1725.75
965.171	1643.75
965.398	1694.75
965.624	1697.75
965.85	1632.75
966.076	1598.75
966.302	1644.75
966.528	1642.75
966.754	1681.75
966.98	1639.75
967.206	1626.75
967.431	1585.75
967.657	1639.75
967.883	1644.75
968.109	1636.75
968.334	1567.75
968.56	1576.75
968.785	1593.75
969.011	1557.75
969.236	1601.75
969.462	1538.75
969.687	1559.75
969.912	1606.75
970.138	1615.75
970.363	1579.75
970.588	1572.75
970.813	1543.75
971.038	1531.75
971.263	1558.75
971.488	1557.75
971.713	1596.75
971.938	1589.75
972.163	1483.75
972.388	1504.75
972.613	1492.75
972.838	1518.75
973.062	1495.75
973.287	1496.75
973.512	1439.75
973.736	1472.75
973.961	1466.75
974.185	1453.75
974.41	1493.75
974.634	1372.75
974.858	1421.75
975.083	1445.75
975.307	1472.75
975.531	1403.75
975.755	1369.75
975.98	1389.75
976.204	1337.75
976.428	1364.75
976.652	1348.75
976.876	1312.75
977.1	1384.75
977.324	1330.75
977.547	1383.75
977.771	1357.75
977.995	1354.75
978.219	1278.75
978.442	1443.75
978.666	1369.75
978.89	1361.75
979.113	1359.75
979.337	1343.75
979.56	1301.75
979.783	1402.75
980.007	1316.75
980.23	1319.75
980.453	1319.75
980.677	1357.75
980.9	1339.75
981.123	1237.75
981.346	1349.75
981.569	1341.75
981.792	1348.75
982.015	1283.75
982.238	1266.75
982.461	1296.75
982.684	1280.75
982.907	1256.75
983.129	1251.75
983.352	1315.75
983.575	1281.75
983.797	1285.75
984.02	1223.75
984.242	1255.75
984.465	1268.75
984.687	1283.75
984.91	1311.75
985.132	1278.75
985.354	1330.75
985.577	1239.75
985.799	1272.75
986.021	1175.75
986.243	1223.75
986.465	1230.75
986.687	1272.75
986.909	1337.75
987.131	1267.75
987.353	1232.75
987.575	1239.75
987.797	1238.75
988.019	1181.75
988.241	1239.75
988.462	1181.75
988.684	1256.75
988.906	1288.75
989.127	1300.75
989.349	1175.75
989.57	1239.75
989.792	1253.75
990.013	1268.75
990.234	1249.75
990.456	1312.75
990.677	1292.75
990.898	1224.75
991.119	1224.75
991.341	1257.75
991.562	1175.75
991.783	1238.75
992.004	1190.75
992.225	1168.75
992.446	1222.75
992.667	1127.75
992.887	1235.75
993.108	1135.75
993.329	1247.75
993.55	1217.75
993.77	1146.75
993.991	1162.75
994.212	1207.75
994.432	1165.75
994.653	1218.75
994.873	1178.75
995.093	1068.75
995.314	1133.75
995.534	1176.75
995.754	1255.75
995.975	1251.75
996.195	1147.75
996.415	1201.75
996.635	1204.75
996.855	1196.75
997.075	1173.75
997.295	1183.75
997.515	1144.75
997.735	1239.75
997.955	1190.75
998.174	1182.75
998.394	1193.75
998.614	1224.75
998.834	1142.75
999.053	1247.75
999.273	1190.75
999.492	1253.75
999.712	1199.75
999.931	1152.75
1000.151	1170.75
1000.37	1153.75
1000.589	1249.75
1000.809	1146.75
1001.028	1273.75
1001.247	1206.75
1001.466	1118.75
1001.685	1229.75
1001.904	1177.75
1002.123	1175.75
1002.342	1196.75
1002.561	1134.75
1002.78	1178.75
1002.999	1256.75
1003.218	1145.75
1003.436	1178.75
1003.655	1198.75
1003.874	1156.75
1004.092	1196.75
1004.311	1222.75
1004.53	1163.75
1004.748	1260.75
1004.966	1180.75
1005.185	1213.75
1005.403	1247.75
1005.622	1207.75
1005.84	1260.75
1006.058	1190.75
1006.276	1208.75
1006.494	1583.75
1006.712	1239.75
1006.931	1294.75
1007.149	1189.75
1007.367	1212.75
1007.584	1267.75
1007.802	1300.75
1008.02	1232.75
1008.238	1363.75
1008.456	1386.75
1008.673	1251.75
1008.891	1395.75
1009.109	1356.75
1009.326	1432.75
1009.544	1511.75
1009.761	1453.75
1009.979	1584.75
1010.196	1627.75
1010.413	1799.75
1010.631	1849.75
1010.848	1938.75
1011.065	1929.75
1011.282	1895.75
1011.5	1834.75
1011.717	1969.75
1011.934	1875.75
1012.151	1921.75
1012.368	1872.75
1012.585	1839.75
1012.801	1901.75
1013.018	1900.75
1013.235	1892.75
1013.452	1886.75
1013.669	1910.75
1013.885	1917.75
1014.102	1981.75
1014.318	1937.75
1014.535	1909.75
1014.751	1946.75
1014.968	1919.75
1015.184	1943.75
1015.401	1842.75
1015.617	1891.75
1015.833	1800.75
1016.049	1800.75
1016.266	1808.75
1016.482	1785.75
1016.698	1705.75
1016.914	1759.75
1017.13	1706.75
1017.346	1720.75
1017.562	1781.75
1017.778	1705.75
1017.993	1680.75
1018.209	1731.75
1018.425	1712.75
1018.641	1679.75
1018.856	1668.75
1019.072	1705.75
1019.288	1772.75
1019.503	1720.75
1019.719	1610.75
1019.934	1611.75
1020.149	1673.75
1020.365	1633.75
1020.58	1561.75
1020.795	1571.75
1021.011	1534.75
1021.226	1467.75
1021.441	1490.75
1021.656	1395.75
1021.871	1318.75
1022.086	1308.75
1022.301	1329.75
1022.516	1283.75
1022.731	1345.75
1022.946	1224.75
1023.16	1204.75
1023.375	1189.75
1023.59	1172.75
1023.804	1121.75
1024.019	1209.75
1024.234	1082.75
1024.448	1101.75
1024.663	1046.75
1024.877	1038.75
1025.092	1052.75
1025.306	1048.75
1025.52	947.75
1025.734	1017.75
1025.949	954.75
1026.163	917.75
1026.377	869.75
1026.591	906.75
1026.805	840.75
1027.019	823.75
1027.233	785.75
1027.447	731.75
1027.661	849.75
1027.875	797.75
1028.088	820.75
1028.302	734.75
1028.516	727.75
1028.73	710.75
1028.943	709.75
1029.157	664.75
1029.37	620.75
1029.584	-2.25
1029.797	-3.25
1030.011	-1.25
1030.224	-3.25
