Data from QEP037381__219__11-34-19-424.txt Node

Date: Fri Apr 28 11:34:19 EDT 2023
User: dcclab
Spectrometer: QEP03738
Trigger mode: 4
Integration Time (sec): 1.000000E1
Scans to average: 1
Electric dark correction enabled: true
Nonlinearity correction enabled: false
Boxcar width: 0
XAxis mode: Wavelengths
Number of Pixels in Spectrum: 1044
>>>>>Begin Spectral Data<<<<<
784.041	14.5
784.3	0.5
784.558	-0.5
784.817	-2.5
785.075	65555.5
785.334	12897.5
785.592	6754.5
785.851	4781.5
786.109	3641.5
786.368	2858.5
786.626	2302.5
786.884	1947.5
787.143	1658.5
787.401	1342.5
787.659	1213.5
787.917	1042.5
788.175	964.5
788.433	859.5
788.691	776.5
788.949	728.5
789.207	696.5
789.465	598.5
789.723	583.5
789.98	535.5
790.238	571.5
790.496	539.5
790.753	520.5
791.011	555.5
791.268	485.5
791.526	508.5
791.783	503.5
792.041	473.5
792.298	408.5
792.556	465.5
792.813	447.5
793.07	429.5
793.327	422.5
793.584	497.5
793.841	427.5
794.099	442.5
794.356	499.5
794.613	402.5
794.869	425.5
795.126	390.5
795.383	389.5
795.64	400.5
795.897	358.5
796.153	425.5
796.41	401.5
796.667	392.5
796.923	406.5
797.18	388.5
797.436	420.5
797.693	372.5
797.949	445.5
798.206	453.5
798.462	371.5
798.718	445.5
798.974	409.5
799.231	441.5
799.487	436.5
799.743	431.5
799.999	475.5
800.255	455.5
800.511	447.5
800.767	490.5
801.023	470.5
801.279	499.5
801.534	543.5
801.79	569.5
802.046	595.5
802.302	710.5
802.557	792.5
802.813	1011.5
803.068	1211.5
803.324	1706.5
803.579	2280.5
803.835	3150.5
804.09	4332.5
804.345	5443.5
804.601	6613.5
804.856	7661.5
805.111	8497.5
805.366	9133.5
805.621	9521.5
805.876	9753.5
806.131	9998.5
806.386	10159.5
806.641	10244.5
806.896	10536.5
807.151	10691.5
807.406	10805.5
807.661	11054.5
807.915	11211.5
808.17	11386.5
808.425	11487.5
808.679	11583.5
808.934	11800.5
809.188	11818.5
809.443	12075.5
809.697	12146.5
809.951	12231.5
810.206	12343.5
810.46	12572.5
810.714	12610.5
810.968	12706.5
811.223	12758.5
811.477	12920.5
811.731	12934.5
811.985	12929.5
812.239	13066.5
812.493	13058.5
812.747	13172.5
813	13128.5
813.254	13182.5
813.508	13311.5
813.762	13346.5
814.015	13408.5
814.269	13555.5
814.522	13640.5
814.776	13766.5
815.03	13906.5
815.283	14002.5
815.536	14222.5
815.79	14485.5
816.043	14737.5
816.296	14902.5
816.55	14962.5
816.803	15197.5
817.056	15606.5
817.309	15606.5
817.562	15734.5
817.815	15970.5
818.068	16055.5
818.321	16208.5
818.574	16459.5
818.827	16705.5
819.079	16940.5
819.332	17268.5
819.585	17450.5
819.838	17682.5
820.09	17653.5
820.343	17885.5
820.595	17940.5
820.848	18028.5
821.1	18154.5
821.353	18094.5
821.605	18065.5
821.857	18049.5
822.11	17965.5
822.362	17928.5
822.614	17868.5
822.866	17975.5
823.118	17962.5
823.37	18093.5
823.622	18073.5
823.874	18142.5
824.126	18237.5
824.378	18237.5
824.63	18230.5
824.882	18277.5
825.134	18174.5
825.385	18146.5
825.637	18098.5
825.888	18069.5
826.14	17966.5
826.392	17862.5
826.643	17814.5
826.895	17774.5
827.146	17632.5
827.397	17636.5
827.649	17665.5
827.9	17544.5
828.151	17525.5
828.402	17644.5
828.653	17627.5
828.905	17663.5
829.156	17674.5
829.407	17563.5
829.658	17745.5
829.909	17756.5
830.159	17833.5
830.41	17743.5
830.661	17545.5
830.912	17440.5
831.162	17377.5
831.413	17410.5
831.664	17340.5
831.914	17296.5
832.165	17274.5
832.415	17245.5
832.666	17248.5
832.916	17191.5
833.167	17250.5
833.417	17169.5
833.667	17076.5
833.917	17058.5
834.168	16972.5
834.418	16962.5
834.668	16884.5
834.918	16776.5
835.168	16665.5
835.418	16573.5
835.668	16595.5
835.918	16550.5
836.167	16498.5
836.417	16473.5
836.667	16458.5
836.917	16383.5
837.166	16295.5
837.416	16361.5
837.666	16326.5
837.915	16260.5
838.165	16237.5
838.414	16098.5
838.663	16113.5
838.913	16107.5
839.162	16153.5
839.411	16144.5
839.661	16087.5
839.91	16061.5
840.159	15917.5
840.408	16002.5
840.657	16005.5
840.906	16014.5
841.155	15990.5
841.404	15923.5
841.653	15953.5
841.902	15991.5
842.15	16060.5
842.399	16044.5
842.648	15970.5
842.897	15907.5
843.145	15794.5
843.394	15699.5
843.642	15618.5
843.891	15442.5
844.139	15423.5
844.388	15319.5
844.636	15175.5
844.884	15141.5
845.133	15187.5
845.381	15134.5
845.629	15253.5
845.877	15198.5
846.125	15167.5
846.373	15065.5
846.621	15017.5
846.869	15017.5
847.117	14862.5
847.365	14886.5
847.613	14738.5
847.861	14825.5
848.108	14687.5
848.356	14719.5
848.604	14635.5
848.851	14711.5
849.099	14687.5
849.346	14738.5
849.594	14816.5
849.841	14888.5
850.089	14796.5
850.336	14894.5
850.583	14848.5
850.831	14783.5
851.078	14803.5
851.325	14852.5
851.572	15010.5
851.819	14653.5
852.066	14236.5
852.313	13984.5
852.56	13881.5
852.807	13768.5
853.054	13848.5
853.301	13820.5
853.548	13895.5
853.794	13962.5
854.041	13992.5
854.288	13955.5
854.534	14135.5
854.781	14098.5
855.028	13995.5
855.274	14013.5
855.52	13904.5
855.767	13793.5
856.013	13980.5
856.26	14266.5
856.506	13817.5
856.752	13726.5
856.998	13667.5
857.244	13684.5
857.49	13836.5
857.736	13782.5
857.982	13835.5
858.228	13738.5
858.474	13589.5
858.72	13450.5
858.966	13386.5
859.212	13244.5
859.458	13055.5
859.703	12872.5
859.949	12740.5
860.195	12741.5
860.44	12697.5
860.686	12689.5
860.931	12690.5
861.177	12566.5
861.422	12441.5
861.667	12314.5
861.913	12350.5
862.158	12390.5
862.403	12508.5
862.648	12465.5
862.893	12514.5
863.138	12424.5
863.384	12416.5
863.629	12392.5
863.873	12354.5
864.118	12335.5
864.363	12261.5
864.608	12198.5
864.853	12168.5
865.098	12097.5
865.342	12072.5
865.587	11954.5
865.832	11974.5
866.076	11971.5
866.321	11877.5
866.565	11858.5
866.81	11805.5
867.054	11821.5
867.298	11716.5
867.543	11686.5
867.787	11772.5
868.031	11654.5
868.275	11640.5
868.519	11684.5
868.764	11629.5
869.008	11661.5
869.252	11617.5
869.496	11694.5
869.739	11575.5
869.983	11615.5
870.227	11650.5
870.471	11685.5
870.715	11738.5
870.958	11761.5
871.202	11738.5
871.446	11732.5
871.689	11742.5
871.933	11737.5
872.176	11728.5
872.42	11605.5
872.663	11589.5
872.906	11571.5
873.15	11451.5
873.393	11504.5
873.636	11499.5
873.879	11411.5
874.122	11246.5
874.366	11047.5
874.609	10995.5
874.852	10927.5
875.095	10811.5
875.337	10812.5
875.58	10628.5
875.823	10705.5
876.066	10789.5
876.309	10687.5
876.551	10517.5
876.794	10440.5
877.037	10588.5
877.279	10444.5
877.522	10448.5
877.764	10479.5
878.007	10350.5
878.249	10342.5
878.491	10321.5
878.734	10356.5
878.976	10333.5
879.218	10185.5
879.46	10094.5
879.702	10021.5
879.945	9959.5
880.187	9871.5
880.429	9822.5
880.671	9681.5
880.912	9726.5
881.154	9745.5
881.396	9641.5
881.638	9699.5
881.88	9685.5
882.121	9628.5
882.363	9643.5
882.605	9675.5
882.846	9628.5
883.088	9659.5
883.329	9585.5
883.571	9630.5
883.812	9824.5
884.053	10019.5
884.295	10253.5
884.536	10285.5
884.777	10254.5
885.018	10244.5
885.259	10177.5
885.5	10084.5
885.742	10181.5
885.982	10013.5
886.223	9790.5
886.464	9698.5
886.705	9643.5
886.946	9537.5
887.187	9297.5
887.428	9291.5
887.668	8991.5
887.909	8926.5
888.15	8755.5
888.39	8842.5
888.631	8781.5
888.871	8692.5
889.111	8564.5
889.352	8430.5
889.592	8425.5
889.833	8405.5
890.073	8294.5
890.313	8313.5
890.553	8155.5
890.793	8148.5
891.033	8049.5
891.273	8045.5
891.513	8079.5
891.753	8065.5
891.993	8049.5
892.233	8055.5
892.473	8073.5
892.713	8038.5
892.952	8015.5
893.192	8094.5
893.432	7995.5
893.671	8060.5
893.911	7921.5
894.15	7957.5
894.39	7814.5
894.629	7765.5
894.869	7802.5
895.108	7733.5
895.347	7626.5
895.587	7696.5
895.826	7602.5
896.065	7611.5
896.304	7685.5
896.543	7605.5
896.782	7579.5
897.021	7625.5
897.26	7641.5
897.499	7691.5
897.738	7659.5
897.977	7540.5
898.216	7478.5
898.454	7435.5
898.693	7309.5
898.932	7378.5
899.17	7299.5
899.409	7346.5
899.647	7322.5
899.886	7259.5
900.124	7329.5
900.363	7293.5
900.601	7302.5
900.839	7380.5
901.078	7415.5
901.316	7438.5
901.554	7490.5
901.792	7567.5
902.03	7530.5
902.268	7491.5
902.506	7488.5
902.744	7371.5
902.982	7373.5
903.22	7154.5
903.458	7063.5
903.695	7000.5
903.933	6848.5
904.171	6713.5
904.409	6597.5
904.646	6572.5
904.884	6407.5
905.121	6400.5
905.359	6283.5
905.596	6267.5
905.833	6199.5
906.071	6095.5
906.308	6187.5
906.545	6164.5
906.783	6006.5
907.02	6080.5
907.257	6016.5
907.494	6015.5
907.731	6063.5
907.968	5991.5
908.205	5885.5
908.442	5887.5
908.679	5818.5
908.915	5800.5
909.152	5805.5
909.389	5696.5
909.626	5654.5
909.862	5595.5
910.099	5568.5
910.335	5599.5
910.572	5494.5
910.808	5504.5
911.045	5500.5
911.281	5478.5
911.518	5525.5
911.754	5467.5
911.99	5391.5
912.226	5338.5
912.463	5308.5
912.699	5265.5
912.935	5222.5
913.171	5131.5
913.407	5165.5
913.643	5175.5
913.879	5110.5
914.114	4993.5
914.35	4991.5
914.586	4947.5
914.822	4840.5
915.057	4895.5
915.293	4765.5
915.529	4777.5
915.764	4853.5
916	4804.5
916.235	4763.5
916.471	4826.5
916.706	4627.5
916.941	4697.5
917.177	4743.5
917.412	4785.5
917.647	4711.5
917.882	4677.5
918.117	4773.5
918.352	4680.5
918.588	4696.5
918.823	4602.5
919.057	4536.5
919.292	4457.5
919.527	4507.5
919.762	4417.5
919.997	4448.5
920.232	4375.5
920.466	4375.5
920.701	4259.5
920.935	4304.5
921.17	4232.5
921.405	4180.5
921.639	4241.5
921.873	4208.5
922.108	4208.5
922.342	4202.5
922.576	4094.5
922.811	4087.5
923.045	4177.5
923.279	4165.5
923.513	4083.5
923.747	4083.5
923.981	4027.5
924.215	4007.5
924.449	3950.5
924.683	3943.5
924.917	3873.5
925.151	3905.5
925.385	3941.5
925.618	3962.5
925.852	3870.5
926.086	3864.5
926.319	3897.5
926.553	3846.5
926.786	3910.5
927.02	3876.5
927.253	3923.5
927.486	3875.5
927.72	3801.5
927.953	3862.5
928.186	3778.5
928.42	3850.5
928.653	3786.5
928.886	3695.5
929.119	3739.5
929.352	3704.5
929.585	3707.5
929.818	3665.5
930.051	3696.5
930.284	3644.5
930.516	3545.5
930.749	3553.5
930.982	3584.5
931.215	3582.5
931.447	3469.5
931.68	3506.5
931.912	3506.5
932.145	3461.5
932.377	3489.5
932.61	3660.5
932.842	3443.5
933.074	3491.5
933.307	3446.5
933.539	3532.5
933.771	3534.5
934.003	3443.5
934.236	3522.5
934.468	3537.5
934.7	3463.5
934.932	3486.5
935.164	3419.5
935.395	3420.5
935.627	3395.5
935.859	3424.5
936.091	3368.5
936.323	3384.5
936.554	3438.5
936.786	3338.5
937.017	3294.5
937.249	3364.5
937.481	3256.5
937.712	3330.5
937.943	3334.5
938.175	3333.5
938.406	3280.5
938.637	3361.5
938.869	3242.5
939.1	3321.5
939.331	3239.5
939.562	3277.5
939.793	3272.5
940.024	3227.5
940.255	3247.5
940.486	3175.5
940.717	3174.5
940.948	3194.5
941.179	3117.5
941.409	3144.5
941.64	3121.5
941.871	3171.5
942.102	3151.5
942.332	3098.5
942.563	3139.5
942.793	3156.5
943.024	3090.5
943.254	3116.5
943.484	3162.5
943.715	3172.5
943.945	3151.5
944.175	3055.5
944.405	3069.5
944.636	3067.5
944.866	3117.5
945.096	3115.5
945.326	3020.5
945.556	3091.5
945.786	3072.5
946.016	3018.5
946.245	2966.5
946.475	2957.5
946.705	2980.5
946.935	2951.5
947.164	2996.5
947.394	2936.5
947.624	2949.5
947.853	2948.5
948.083	2911.5
948.312	2895.5
948.542	2813.5
948.771	2789.5
949	2810.5
949.23	2850.5
949.459	2845.5
949.688	2927.5
949.917	2840.5
950.146	2835.5
950.375	2921.5
950.604	2797.5
950.833	2879.5
951.062	2862.5
951.291	2828.5
951.52	2797.5
951.749	2800.5
951.978	2740.5
952.206	2775.5
952.435	2758.5
952.664	2776.5
952.892	2772.5
953.121	2797.5
953.349	2782.5
953.578	2758.5
953.806	2698.5
954.035	2668.5
954.263	2721.5
954.491	2640.5
954.719	2677.5
954.948	2640.5
955.176	2629.5
955.404	2595.5
955.632	2629.5
955.86	2612.5
956.088	2582.5
956.316	2612.5
956.544	2610.5
956.772	2596.5
956.999	2517.5
957.227	2606.5
957.455	2464.5
957.683	2519.5
957.91	2479.5
958.138	2473.5
958.365	2467.5
958.593	2445.5
958.82	2431.5
959.048	2483.5
959.275	2453.5
959.502	2419.5
959.73	2407.5
959.957	2449.5
960.184	2507.5
960.411	2429.5
960.638	2506.5
960.865	2437.5
961.092	2428.5
961.319	2367.5
961.546	2433.5
961.773	2423.5
962	2396.5
962.227	2432.5
962.454	2397.5
962.68	2376.5
962.907	2410.5
963.134	2340.5
963.36	2363.5
963.587	2397.5
963.813	2319.5
964.04	2353.5
964.266	2257.5
964.493	2340.5
964.719	2321.5
964.945	2323.5
965.171	2230.5
965.398	2269.5
965.624	2268.5
965.85	2201.5
966.076	2188.5
966.302	2218.5
966.528	2190.5
966.754	2244.5
966.98	2197.5
967.206	2193.5
967.431	2167.5
967.657	2252.5
967.883	2199.5
968.109	2174.5
968.334	2160.5
968.56	2128.5
968.785	2133.5
969.011	2117.5
969.236	2156.5
969.462	2089.5
969.687	2114.5
969.912	2157.5
970.138	2179.5
970.363	2056.5
970.588	2120.5
970.813	2081.5
971.038	2044.5
971.263	2076.5
971.488	2132.5
971.713	2117.5
971.938	2089.5
972.163	1988.5
972.388	2023.5
972.613	2048.5
972.838	2032.5
973.062	1989.5
973.287	2013.5
973.512	1968.5
973.736	2019.5
973.961	1968.5
974.185	1954.5
974.41	1975.5
974.634	1891.5
974.858	1901.5
975.083	1926.5
975.307	1934.5
975.531	1903.5
975.755	1838.5
975.98	1868.5
976.204	1803.5
976.428	1755.5
976.652	1802.5
976.876	1784.5
977.1	1819.5
977.324	1800.5
977.547	1821.5
977.771	1842.5
977.995	1807.5
978.219	1754.5
978.442	1897.5
978.666	1807.5
978.89	1777.5
979.113	1795.5
979.337	1798.5
979.56	1748.5
979.783	1825.5
980.007	1735.5
980.23	1765.5
980.453	1736.5
980.677	1748.5
980.9	1742.5
981.123	1676.5
981.346	1771.5
981.569	1730.5
981.792	1751.5
982.015	1698.5
982.238	1691.5
982.461	1710.5
982.684	1636.5
982.907	1639.5
983.129	1641.5
983.352	1672.5
983.575	1637.5
983.797	1670.5
984.02	1620.5
984.242	1611.5
984.465	1634.5
984.687	1665.5
984.91	1661.5
985.132	1652.5
985.354	1674.5
985.577	1651.5
985.799	1617.5
986.021	1544.5
986.243	1570.5
986.465	1594.5
986.687	1636.5
986.909	1673.5
987.131	1573.5
987.353	1566.5
987.575	1611.5
987.797	1556.5
988.019	1484.5
988.241	1559.5
988.462	1513.5
988.684	1592.5
988.906	1603.5
989.127	1630.5
989.349	1510.5
989.57	1496.5
989.792	1580.5
990.013	1602.5
990.234	1570.5
990.456	1622.5
990.677	1585.5
990.898	1531.5
991.119	1540.5
991.341	1583.5
991.562	1493.5
991.783	1556.5
992.004	1478.5
992.225	1459.5
992.446	1511.5
992.667	1430.5
992.887	1504.5
993.108	1403.5
993.329	1533.5
993.55	1480.5
993.77	1426.5
993.991	1422.5
994.212	1467.5
994.432	1448.5
994.653	1437.5
994.873	1438.5
995.093	1330.5
995.314	1394.5
995.534	1461.5
995.754	1503.5
995.975	1491.5
996.195	1376.5
996.415	1472.5
996.635	1422.5
996.855	1407.5
997.075	1399.5
997.295	1407.5
997.515	1406.5
997.735	1436.5
997.955	1396.5
998.174	1405.5
998.394	1361.5
998.614	1416.5
998.834	1383.5
999.053	1436.5
999.273	1416.5
999.492	1464.5
999.712	1406.5
999.931	1358.5
1000.151	1414.5
1000.37	1415.5
1000.589	1441.5
1000.809	1350.5
1001.028	1491.5
1001.247	1412.5
1001.466	1290.5
1001.685	1458.5
1001.904	1429.5
1002.123	1389.5
1002.342	1371.5
1002.561	1327.5
1002.78	1376.5
1002.999	1403.5
1003.218	1379.5
1003.436	1349.5
1003.655	1409.5
1003.874	1327.5
1004.092	1358.5
1004.311	1376.5
1004.53	1348.5
1004.748	1404.5
1004.966	1348.5
1005.185	1396.5
1005.403	1379.5
1005.622	1371.5
1005.84	1456.5
1006.058	1323.5
1006.276	1401.5
1006.494	1735.5
1006.712	1359.5
1006.931	1433.5
1007.149	1334.5
1007.367	1339.5
1007.584	1370.5
1007.802	1398.5
1008.02	1360.5
1008.238	1478.5
1008.456	1453.5
1008.673	1344.5
1008.891	1439.5
1009.109	1382.5
1009.326	1446.5
1009.544	1542.5
1009.761	1467.5
1009.979	1557.5
1010.196	1588.5
1010.413	1687.5
1010.631	1719.5
1010.848	1754.5
1011.065	1745.5
1011.282	1683.5
1011.5	1661.5
1011.717	1759.5
1011.934	1699.5
1012.151	1720.5
1012.368	1679.5
1012.585	1641.5
1012.801	1715.5
1013.018	1674.5
1013.235	1666.5
1013.452	1674.5
1013.669	1682.5
1013.885	1675.5
1014.102	1708.5
1014.318	1685.5
1014.535	1640.5
1014.751	1688.5
1014.968	1666.5
1015.184	1706.5
1015.401	1608.5
1015.617	1643.5
1015.833	1585.5
1016.049	1621.5
1016.266	1558.5
1016.482	1586.5
1016.698	1482.5
1016.914	1596.5
1017.13	1498.5
1017.346	1497.5
1017.562	1572.5
1017.778	1492.5
1017.993	1464.5
1018.209	1530.5
1018.425	1521.5
1018.641	1480.5
1018.856	1484.5
1019.072	1509.5
1019.288	1511.5
1019.503	1492.5
1019.719	1419.5
1019.934	1429.5
1020.149	1489.5
1020.365	1432.5
1020.58	1385.5
1020.795	1432.5
1021.011	1349.5
1021.226	1334.5
1021.441	1353.5
1021.656	1260.5
1021.871	1196.5
1022.086	1220.5
1022.301	1182.5
1022.516	1184.5
1022.731	1246.5
1022.946	1159.5
1023.16	1129.5
1023.375	1090.5
1023.59	1076.5
1023.804	1021.5
1024.019	1150.5
1024.234	987.5
1024.448	1050.5
1024.663	984.5
1024.877	984.5
1025.092	995.5
1025.306	1018.5
1025.52	922.5
1025.734	1014.5
1025.949	911.5
1026.163	899.5
1026.377	849.5
1026.591	899.5
1026.805	800.5
1027.019	808.5
1027.233	762.5
1027.447	727.5
1027.661	835.5
1027.875	791.5
1028.088	779.5
1028.302	711.5
1028.516	709.5
1028.73	697.5
1028.943	690.5
1029.157	654.5
1029.37	615.5
1029.584	-3.5
1029.797	-0.5
1030.011	-3.5
1030.224	-4.5
