Data from QEP037381__240__11-37-49-425.txt Node

Date: Fri Apr 28 11:37:49 EDT 2023
User: dcclab
Spectrometer: QEP03738
Trigger mode: 4
Integration Time (sec): 1.000000E1
Scans to average: 1
Electric dark correction enabled: true
Nonlinearity correction enabled: false
Boxcar width: 0
XAxis mode: Wavelengths
Number of Pixels in Spectrum: 1044
>>>>>Begin Spectral Data<<<<<
784.041	16.25
784.3	-2.75
784.558	-2.75
784.817	-4.75
785.075	62852.25
785.334	12745.25
785.592	6719.25
785.851	4771.25
786.109	3667.25
786.368	2838.25
786.626	2301.25
786.884	1902.25
787.143	1591.25
787.401	1319.25
787.659	1190.25
787.917	1029.25
788.175	966.25
788.433	822.25
788.691	754.25
788.949	707.25
789.207	656.25
789.465	595.25
789.723	555.25
789.98	520.25
790.238	565.25
790.496	527.25
790.753	505.25
791.011	561.25
791.268	495.25
791.526	472.25
791.783	496.25
792.041	469.25
792.298	393.25
792.556	488.25
792.813	431.25
793.07	434.25
793.327	408.25
793.584	482.25
793.841	402.25
794.099	433.25
794.356	511.25
794.613	383.25
794.869	427.25
795.126	391.25
795.383	366.25
795.64	392.25
795.897	355.25
796.153	401.25
796.41	391.25
796.667	362.25
796.923	378.25
797.18	364.25
797.436	404.25
797.693	365.25
797.949	422.25
798.206	458.25
798.462	362.25
798.718	406.25
798.974	384.25
799.231	429.25
799.487	408.25
799.743	419.25
799.999	453.25
800.255	438.25
800.511	422.25
800.767	453.25
801.023	445.25
801.279	457.25
801.534	495.25
801.79	519.25
802.046	531.25
802.302	632.25
802.557	690.25
802.813	859.25
803.068	1008.25
803.324	1387.25
803.579	1839.25
803.835	2450.25
804.09	3341.25
804.345	4089.25
804.601	4868.25
804.856	5682.25
805.111	6256.25
805.366	6695.25
805.621	6944.25
805.876	7156.25
806.131	7313.25
806.386	7371.25
806.641	7502.25
806.896	7652.25
807.151	7790.25
807.406	7777.25
807.661	7943.25
807.915	8133.25
808.17	8242.25
808.425	8384.25
808.679	8407.25
808.934	8582.25
809.188	8586.25
809.443	8662.25
809.697	8862.25
809.951	8896.25
810.206	8967.25
810.46	9059.25
810.714	9105.25
810.968	9227.25
811.223	9241.25
811.477	9365.25
811.731	9471.25
811.985	9372.25
812.239	9421.25
812.493	9482.25
812.747	9534.25
813	9473.25
813.254	9588.25
813.508	9649.25
813.762	9634.25
814.015	9632.25
814.269	9708.25
814.522	9743.25
814.776	9906.25
815.03	9877.25
815.283	10027.25
815.536	10249.25
815.79	10432.25
816.043	10509.25
816.296	10648.25
816.55	10741.25
816.803	10810.25
817.056	11088.25
817.309	11134.25
817.562	11242.25
817.815	11376.25
818.068	11392.25
818.321	11491.25
818.574	11660.25
818.827	11812.25
819.079	11976.25
819.332	12348.25
819.585	12464.25
819.838	12542.25
820.09	12552.25
820.343	12626.25
820.595	12598.25
820.848	12682.25
821.1	12819.25
821.353	12751.25
821.605	12696.25
821.857	12744.25
822.11	12541.25
822.362	12520.25
822.614	12546.25
822.866	12662.25
823.118	12533.25
823.37	12742.25
823.622	12688.25
823.874	12755.25
824.126	12856.25
824.378	12744.25
824.63	12838.25
824.882	12874.25
825.134	12788.25
825.385	12698.25
825.637	12579.25
825.888	12522.25
826.14	12540.25
826.392	12472.25
826.643	12290.25
826.895	12364.25
827.146	12253.25
827.397	12192.25
827.649	12315.25
827.9	12166.25
828.151	12167.25
828.402	12233.25
828.653	12272.25
828.905	12311.25
829.156	12320.25
829.407	12338.25
829.658	12413.25
829.909	12619.25
830.159	12622.25
830.41	12529.25
830.661	12382.25
830.912	12181.25
831.162	12203.25
831.413	12245.25
831.664	12160.25
831.914	12111.25
832.165	12053.25
832.415	12035.25
832.666	12102.25
832.916	12097.25
833.167	12026.25
833.417	12082.25
833.667	12033.25
833.917	11899.25
834.168	11924.25
834.418	11919.25
834.668	11813.25
834.918	11760.25
835.168	11688.25
835.418	11589.25
835.668	11621.25
835.918	11606.25
836.167	11450.25
836.417	11446.25
836.667	11509.25
836.917	11489.25
837.166	11469.25
837.416	11496.25
837.666	11474.25
837.915	11456.25
838.165	11432.25
838.414	11372.25
838.663	11387.25
838.913	11431.25
839.162	11425.25
839.411	11438.25
839.661	11352.25
839.91	11412.25
840.159	11403.25
840.408	11360.25
840.657	11439.25
840.906	11337.25
841.155	11377.25
841.404	11258.25
841.653	11234.25
841.902	11380.25
842.15	11412.25
842.399	11464.25
842.648	11492.25
842.897	11293.25
843.145	11232.25
843.394	11190.25
843.642	11048.25
843.891	11060.25
844.139	10943.25
844.388	10812.25
844.636	10721.25
844.884	10744.25
845.133	10794.25
845.381	10798.25
845.629	10819.25
845.877	10772.25
846.125	10748.25
846.373	10762.25
846.621	10705.25
846.869	10702.25
847.117	10556.25
847.365	10494.25
847.613	10590.25
847.861	10504.25
848.108	10556.25
848.356	10571.25
848.604	10486.25
848.851	10521.25
849.099	10443.25
849.346	10508.25
849.594	10546.25
849.841	10611.25
850.089	10550.25
850.336	10675.25
850.583	10729.25
850.831	10631.25
851.078	10656.25
851.325	10698.25
851.572	10926.25
851.819	10712.25
852.066	10222.25
852.313	10005.25
852.56	9873.25
852.807	9786.25
853.054	9850.25
853.301	9923.25
853.548	10045.25
853.794	10175.25
854.041	10063.25
854.288	10093.25
854.534	10276.25
854.781	10177.25
855.028	10057.25
855.274	10204.25
855.52	10144.25
855.767	10260.25
856.013	10300.25
856.26	10701.25
856.506	10103.25
856.752	10106.25
856.998	10049.25
857.244	10121.25
857.49	10160.25
857.736	10172.25
857.982	10146.25
858.228	10135.25
858.474	9991.25
858.72	9782.25
858.966	9682.25
859.212	9566.25
859.458	9480.25
859.703	9387.25
859.949	9250.25
860.195	9299.25
860.44	9378.25
860.686	9305.25
860.931	9362.25
861.177	9142.25
861.422	9017.25
861.667	8898.25
861.913	8896.25
862.158	8911.25
862.403	8881.25
862.648	8950.25
862.893	9050.25
863.138	9016.25
863.384	8816.25
863.629	8912.25
863.873	8925.25
864.118	8911.25
864.363	8766.25
864.608	8804.25
864.853	8762.25
865.098	8589.25
865.342	8614.25
865.587	8632.25
865.832	8606.25
866.076	8589.25
866.321	8528.25
866.565	8620.25
866.81	8440.25
867.054	8481.25
867.298	8510.25
867.543	8398.25
867.787	8465.25
868.031	8440.25
868.275	8476.25
868.519	8489.25
868.764	8476.25
869.008	8505.25
869.252	8564.25
869.496	8529.25
869.739	8565.25
869.983	8618.25
870.227	8738.25
870.471	8780.25
870.715	8758.25
870.958	8863.25
871.202	8878.25
871.446	8855.25
871.689	8934.25
871.933	8790.25
872.176	8742.25
872.42	8738.25
872.663	8695.25
872.906	8835.25
873.15	8906.25
873.393	9003.25
873.636	9045.25
873.879	8853.25
874.122	8695.25
874.366	8539.25
874.609	8380.25
874.852	8184.25
875.095	8124.25
875.337	8110.25
875.58	8019.25
875.823	8055.25
876.066	7970.25
876.309	8013.25
876.551	7934.25
876.794	7824.25
877.037	7873.25
877.279	7776.25
877.522	7717.25
877.764	7767.25
878.007	7635.25
878.249	7615.25
878.491	7604.25
878.734	7616.25
878.976	7593.25
879.218	7457.25
879.46	7436.25
879.702	7393.25
879.945	7313.25
880.187	7186.25
880.429	7114.25
880.671	7100.25
880.912	7132.25
881.154	7106.25
881.396	6987.25
881.638	7105.25
881.88	7016.25
882.121	7004.25
882.363	7067.25
882.605	7097.25
882.846	7101.25
883.088	7204.25
883.329	7240.25
883.571	7348.25
883.812	7687.25
884.053	8090.25
884.295	8523.25
884.536	8764.25
884.777	8646.25
885.018	8449.25
885.259	8337.25
885.5	8246.25
885.742	8298.25
885.982	8163.25
886.223	7938.25
886.464	7862.25
886.705	7616.25
886.946	7465.25
887.187	7152.25
887.428	7023.25
887.668	6788.25
887.909	6617.25
888.15	6460.25
888.39	6455.25
888.631	6393.25
888.871	6357.25
889.111	6218.25
889.352	6156.25
889.592	6047.25
889.833	6059.25
890.073	6040.25
890.313	6048.25
890.553	5871.25
890.793	5916.25
891.033	5811.25
891.273	5836.25
891.513	5763.25
891.753	5862.25
891.993	5826.25
892.233	5875.25
892.473	5908.25
892.713	5827.25
892.952	5840.25
893.192	5840.25
893.432	5822.25
893.671	5839.25
893.911	5824.25
894.15	5752.25
894.39	5708.25
894.629	5722.25
894.869	5674.25
895.108	5635.25
895.347	5597.25
895.587	5651.25
895.826	5640.25
896.065	5610.25
896.304	5658.25
896.543	5696.25
896.782	5602.25
897.021	5649.25
897.26	5666.25
897.499	5733.25
897.738	5717.25
897.977	5677.25
898.216	5640.25
898.454	5566.25
898.693	5519.25
898.932	5593.25
899.17	5488.25
899.409	5531.25
899.647	5546.25
899.886	5515.25
900.124	5657.25
900.363	5595.25
900.601	5688.25
900.839	5729.25
901.078	5772.25
901.316	5866.25
901.554	5939.25
901.792	6028.25
902.03	6026.25
902.268	6067.25
902.506	6077.25
902.744	5899.25
902.982	5864.25
903.22	5631.25
903.458	5513.25
903.695	5365.25
903.933	5290.25
904.171	5051.25
904.409	4968.25
904.646	4960.25
904.884	4807.25
905.121	4782.25
905.359	4709.25
905.596	4654.25
905.833	4547.25
906.071	4497.25
906.308	4582.25
906.545	4497.25
906.783	4419.25
907.02	4472.25
907.257	4415.25
907.494	4388.25
907.731	4431.25
907.968	4388.25
908.205	4327.25
908.442	4281.25
908.679	4306.25
908.915	4231.25
909.152	4216.25
909.389	4092.25
909.626	4099.25
909.862	4060.25
910.099	4080.25
910.335	4071.25
910.572	3945.25
910.808	4023.25
911.045	3916.25
911.281	3916.25
911.518	4026.25
911.754	3905.25
911.99	3918.25
912.226	3891.25
912.463	3810.25
912.699	3752.25
912.935	3779.25
913.171	3739.25
913.407	3691.25
913.643	3714.25
913.879	3648.25
914.114	3667.25
914.35	3600.25
914.586	3603.25
914.822	3510.25
915.057	3613.25
915.293	3465.25
915.529	3431.25
915.764	3500.25
916	3473.25
916.235	3458.25
916.471	3462.25
916.706	3431.25
916.941	3449.25
917.177	3405.25
917.412	3459.25
917.647	3436.25
917.882	3418.25
918.117	3435.25
918.352	3430.25
918.588	3484.25
918.823	3353.25
919.057	3348.25
919.292	3201.25
919.527	3343.25
919.762	3199.25
919.997	3269.25
920.232	3191.25
920.466	3218.25
920.701	3094.25
920.935	3120.25
921.17	3100.25
921.405	3050.25
921.639	3119.25
921.873	3085.25
922.108	3058.25
922.342	3102.25
922.576	2997.25
922.811	3019.25
923.045	3016.25
923.279	3081.25
923.513	2944.25
923.747	3028.25
923.981	2976.25
924.215	2956.25
924.449	2940.25
924.683	2866.25
924.917	2856.25
925.151	2895.25
925.385	2919.25
925.618	2909.25
925.852	2874.25
926.086	2827.25
926.319	2893.25
926.553	2867.25
926.786	2841.25
927.02	2887.25
927.253	2921.25
927.486	2887.25
927.72	2818.25
927.953	2829.25
928.186	2793.25
928.42	2841.25
928.653	2774.25
928.886	2762.25
929.119	2792.25
929.352	2792.25
929.585	2785.25
929.818	2730.25
930.051	2709.25
930.284	2751.25
930.516	2614.25
930.749	2618.25
930.982	2673.25
931.215	2656.25
931.447	2591.25
931.68	2639.25
931.912	2610.25
932.145	2588.25
932.377	2617.25
932.61	2726.25
932.842	2556.25
933.074	2607.25
933.307	2590.25
933.539	2653.25
933.771	2650.25
934.003	2587.25
934.236	2639.25
934.468	2648.25
934.7	2582.25
934.932	2606.25
935.164	2570.25
935.395	2548.25
935.627	2569.25
935.859	2566.25
936.091	2497.25
936.323	2575.25
936.554	2592.25
936.786	2495.25
937.017	2484.25
937.249	2537.25
937.481	2432.25
937.712	2509.25
937.943	2499.25
938.175	2461.25
938.406	2491.25
938.637	2540.25
938.869	2408.25
939.1	2493.25
939.331	2439.25
939.562	2506.25
939.793	2472.25
940.024	2482.25
940.255	2510.25
940.486	2445.25
940.717	2447.25
940.948	2415.25
941.179	2378.25
941.409	2390.25
941.64	2368.25
941.871	2435.25
942.102	2364.25
942.332	2412.25
942.563	2418.25
942.793	2346.25
943.024	2354.25
943.254	2352.25
943.484	2395.25
943.715	2434.25
943.945	2400.25
944.175	2299.25
944.405	2291.25
944.636	2327.25
944.866	2389.25
945.096	2332.25
945.326	2276.25
945.556	2338.25
945.786	2383.25
946.016	2293.25
946.245	2277.25
946.475	2273.25
946.705	2234.25
946.935	2256.25
947.164	2263.25
947.394	2195.25
947.624	2199.25
947.853	2260.25
948.083	2218.25
948.312	2209.25
948.542	2170.25
948.771	2135.25
949	2143.25
949.23	2144.25
949.459	2166.25
949.688	2238.25
949.917	2154.25
950.146	2193.25
950.375	2235.25
950.604	2130.25
950.833	2217.25
951.062	2201.25
951.291	2164.25
951.52	2121.25
951.749	2149.25
951.978	2085.25
952.206	2101.25
952.435	2083.25
952.664	2110.25
952.892	2175.25
953.121	2077.25
953.349	2113.25
953.578	2114.25
953.806	2087.25
954.035	2055.25
954.263	2077.25
954.491	2021.25
954.719	2067.25
954.948	2021.25
955.176	2020.25
955.404	1909.25
955.632	2031.25
955.86	1992.25
956.088	1978.25
956.316	2031.25
956.544	2035.25
956.772	1955.25
956.999	1943.25
957.227	2023.25
957.455	1939.25
957.683	1934.25
957.91	1879.25
958.138	1893.25
958.365	1911.25
958.593	1924.25
958.82	1831.25
959.048	1914.25
959.275	1867.25
959.502	1870.25
959.73	1852.25
959.957	1907.25
960.184	1905.25
960.411	1836.25
960.638	1907.25
960.865	1849.25
961.092	1874.25
961.319	1775.25
961.546	1899.25
961.773	1892.25
962	1843.25
962.227	1855.25
962.454	1870.25
962.68	1852.25
962.907	1874.25
963.134	1858.25
963.36	1783.25
963.587	1835.25
963.813	1769.25
964.04	1807.25
964.266	1761.25
964.493	1813.25
964.719	1805.25
964.945	1813.25
965.171	1700.25
965.398	1783.25
965.624	1786.25
965.85	1745.25
966.076	1711.25
966.302	1775.25
966.528	1699.25
966.754	1759.25
966.98	1728.25
967.206	1726.25
967.431	1671.25
967.657	1767.25
967.883	1718.25
968.109	1708.25
968.334	1687.25
968.56	1668.25
968.785	1660.25
969.011	1639.25
969.236	1697.25
969.462	1637.25
969.687	1662.25
969.912	1709.25
970.138	1699.25
970.363	1627.25
970.588	1673.25
970.813	1626.25
971.038	1628.25
971.263	1648.25
971.488	1650.25
971.713	1706.25
971.938	1669.25
972.163	1570.25
972.388	1592.25
972.613	1560.25
972.838	1584.25
973.062	1546.25
973.287	1578.25
973.512	1505.25
973.736	1573.25
973.961	1566.25
974.185	1527.25
974.41	1557.25
974.634	1510.25
974.858	1505.25
975.083	1552.25
975.307	1533.25
975.531	1503.25
975.755	1459.25
975.98	1456.25
976.204	1390.25
976.428	1419.25
976.652	1431.25
976.876	1421.25
977.1	1455.25
977.324	1434.25
977.547	1463.25
977.771	1462.25
977.995	1427.25
978.219	1366.25
978.442	1499.25
978.666	1452.25
978.89	1426.25
979.113	1431.25
979.337	1404.25
979.56	1359.25
979.783	1478.25
980.007	1370.25
980.23	1409.25
980.453	1391.25
980.677	1412.25
980.9	1410.25
981.123	1321.25
981.346	1420.25
981.569	1384.25
981.792	1408.25
982.015	1366.25
982.238	1348.25
982.461	1393.25
982.684	1345.25
982.907	1313.25
983.129	1315.25
983.352	1370.25
983.575	1351.25
983.797	1331.25
984.02	1305.25
984.242	1326.25
984.465	1328.25
984.687	1350.25
984.91	1384.25
985.132	1349.25
985.354	1378.25
985.577	1340.25
985.799	1313.25
986.021	1257.25
986.243	1265.25
986.465	1269.25
986.687	1359.25
986.909	1363.25
987.131	1334.25
987.353	1286.25
987.575	1335.25
987.797	1284.25
988.019	1240.25
988.241	1278.25
988.462	1267.25
988.684	1301.25
988.906	1338.25
989.127	1343.25
989.349	1250.25
989.57	1296.25
989.792	1303.25
990.013	1327.25
990.234	1347.25
990.456	1367.25
990.677	1323.25
990.898	1272.25
991.119	1266.25
991.341	1326.25
991.562	1268.25
991.783	1293.25
992.004	1240.25
992.225	1214.25
992.446	1282.25
992.667	1186.25
992.887	1279.25
993.108	1162.25
993.329	1294.25
993.55	1263.25
993.77	1199.25
993.991	1208.25
994.212	1246.25
994.432	1235.25
994.653	1253.25
994.873	1250.25
995.093	1144.25
995.314	1171.25
995.534	1249.25
995.754	1285.25
995.975	1304.25
996.195	1185.25
996.415	1272.25
996.635	1221.25
996.855	1244.25
997.075	1219.25
997.295	1228.25
997.515	1214.25
997.735	1246.25
997.955	1210.25
998.174	1250.25
998.394	1198.25
998.614	1234.25
998.834	1205.25
999.053	1285.25
999.273	1247.25
999.492	1296.25
999.712	1252.25
999.931	1187.25
1000.151	1215.25
1000.37	1189.25
1000.589	1275.25
1000.809	1182.25
1001.028	1312.25
1001.247	1233.25
1001.466	1128.25
1001.685	1295.25
1001.904	1222.25
1002.123	1211.25
1002.342	1197.25
1002.561	1176.25
1002.78	1202.25
1002.999	1262.25
1003.218	1211.25
1003.436	1162.25
1003.655	1232.25
1003.874	1171.25
1004.092	1220.25
1004.311	1271.25
1004.53	1210.25
1004.748	1295.25
1004.966	1217.25
1005.185	1274.25
1005.403	1261.25
1005.622	1223.25
1005.84	1323.25
1006.058	1207.25
1006.276	1232.25
1006.494	1614.25
1006.712	1245.25
1006.931	1326.25
1007.149	1232.25
1007.367	1232.25
1007.584	1293.25
1007.802	1332.25
1008.02	1295.25
1008.238	1413.25
1008.456	1398.25
1008.673	1282.25
1008.891	1428.25
1009.109	1373.25
1009.326	1440.25
1009.544	1563.25
1009.761	1507.25
1009.979	1597.25
1010.196	1669.25
1010.413	1820.25
1010.631	1890.25
1010.848	1965.25
1011.065	1977.25
1011.282	1911.25
1011.5	1882.25
1011.717	1956.25
1011.934	1898.25
1012.151	1919.25
1012.368	1895.25
1012.585	1841.25
1012.801	1919.25
1013.018	1897.25
1013.235	1876.25
1013.452	1896.25
1013.669	1939.25
1013.885	1888.25
1014.102	1942.25
1014.318	1920.25
1014.535	1895.25
1014.751	1936.25
1014.968	1913.25
1015.184	1928.25
1015.401	1844.25
1015.617	1857.25
1015.833	1801.25
1016.049	1806.25
1016.266	1788.25
1016.482	1790.25
1016.698	1712.25
1016.914	1743.25
1017.13	1704.25
1017.346	1718.25
1017.562	1752.25
1017.778	1683.25
1017.993	1652.25
1018.209	1729.25
1018.425	1704.25
1018.641	1646.25
1018.856	1647.25
1019.072	1656.25
1019.288	1703.25
1019.503	1662.25
1019.719	1592.25
1019.934	1602.25
1020.149	1676.25
1020.365	1570.25
1020.58	1518.25
1020.795	1563.25
1021.011	1470.25
1021.226	1445.25
1021.441	1440.25
1021.656	1360.25
1021.871	1310.25
1022.086	1281.25
1022.301	1295.25
1022.516	1263.25
1022.731	1323.25
1022.946	1204.25
1023.16	1190.25
1023.375	1155.25
1023.59	1152.25
1023.804	1109.25
1024.019	1190.25
1024.234	1066.25
1024.448	1073.25
1024.663	996.25
1024.877	1020.25
1025.092	1037.25
1025.306	1045.25
1025.52	907.25
1025.734	993.25
1025.949	930.25
1026.163	917.25
1026.377	842.25
1026.591	905.25
1026.805	832.25
1027.019	822.25
1027.233	796.25
1027.447	741.25
1027.661	848.25
1027.875	779.25
1028.088	789.25
1028.302	712.25
1028.516	708.25
1028.73	708.25
1028.943	698.25
1029.157	657.25
1029.37	629.25
1029.584	-2.75
1029.797	3.25
1030.011	-4.75
1030.224	-1.75
