Data from QEP037381__232__14-33-28-753.txt Node

Date: Fri Apr 28 14:33:28 EDT 2023
User: dcclab
Spectrometer: QEP03738
Trigger mode: 4
Integration Time (sec): 1.000000E1
Scans to average: 1
Electric dark correction enabled: true
Nonlinearity correction enabled: false
Boxcar width: 0
XAxis mode: Wavelengths
Number of Pixels in Spectrum: 1044
>>>>>Begin Spectral Data<<<<<
784.041	10
784.3	3
784.558	-2
784.817	-5
785.075	79944
785.334	15744
785.592	8123
785.851	5725
786.109	4277
786.368	3383
786.626	2795
786.884	2312
787.143	1958
787.401	1631
787.659	1468
787.917	1235
788.175	1113
788.433	983
788.691	873
788.949	803
789.207	756
789.465	660
789.723	646
789.98	585
790.238	620
790.496	581
790.753	550
791.011	610
791.268	524
791.526	534
791.783	533
792.041	525
792.298	436
792.556	493
792.813	468
793.07	461
793.327	424
793.584	514
793.841	444
794.099	458
794.356	512
794.613	402
794.869	460
795.126	415
795.383	397
795.64	416
795.897	376
796.153	437
796.41	409
796.667	404
796.923	402
797.18	415
797.436	436
797.693	394
797.949	452
798.206	477
798.462	378
798.718	447
798.974	414
799.231	466
799.487	452
799.743	471
799.999	492
800.255	483
800.511	472
800.767	518
801.023	502
801.279	524
801.534	548
801.79	620
802.046	636
802.302	755
802.557	870
802.813	1098
803.068	1373
803.324	1908
803.579	2594
803.835	3624
804.09	4889
804.345	6272
804.601	7630
804.856	8967
805.111	9926
805.366	10473
805.621	10834
805.876	11186
806.131	11343
806.386	11543
806.641	11634
806.896	11807
807.151	11973
807.406	12043
807.661	12398
807.915	12497
808.17	12713
808.425	12760
808.679	12843
808.934	13080
809.188	13104
809.443	13279
809.697	13369
809.951	13412
810.206	13510
810.46	13683
810.714	13660
810.968	13783
811.223	13824
811.477	14010
811.731	14091
811.985	14152
812.239	14167
812.493	14276
812.747	14316
813	14333
813.254	14384
813.508	14538
813.762	14613
814.015	14591
814.269	14658
814.522	14749
814.776	14899
815.03	15018
815.283	15266
815.536	15491
815.79	15628
816.043	15828
816.296	16019
816.55	16068
816.803	16254
817.056	16478
817.309	16496
817.562	16744
817.815	16912
818.068	17093
818.321	17203
818.574	17483
818.827	17711
819.079	17692
819.332	18090
819.585	18282
819.838	18616
820.09	18676
820.343	18816
820.595	18919
820.848	18971
821.1	18987
821.353	19126
821.605	18984
821.857	19014
822.11	18894
822.362	18883
822.614	18836
822.866	18911
823.118	18807
823.37	19045
823.622	19026
823.874	19093
824.126	19250
824.378	19172
824.63	19201
824.882	19371
825.134	19144
825.385	19295
825.637	19198
825.888	19068
826.14	19005
826.392	18951
826.643	18706
826.895	18840
827.146	18632
827.397	18641
827.649	18625
827.9	18604
828.151	18594
828.402	18634
828.653	18782
828.905	18674
829.156	18814
829.407	18753
829.658	18730
829.909	18649
830.159	18673
830.41	18542
830.661	18540
830.912	18255
831.162	18273
831.413	18297
831.664	18218
831.914	18204
832.165	18197
832.415	18269
832.666	18228
832.916	18330
833.167	18159
833.417	18166
833.667	18150
833.917	18020
834.168	17964
834.418	17946
834.668	17894
834.918	17818
835.168	17687
835.418	17689
835.668	17660
835.918	17605
836.167	17545
836.417	17419
836.667	17448
836.917	17457
837.166	17291
837.416	17313
837.666	17304
837.915	17213
838.165	17194
838.414	17096
838.663	17020
838.913	17051
839.162	16941
839.411	17043
839.661	16958
839.91	16917
840.159	16963
840.408	16901
840.657	16824
840.906	16891
841.155	16820
841.404	16722
841.653	16832
841.902	16714
842.15	16773
842.399	16829
842.648	16759
842.897	16699
843.145	16588
843.394	16414
843.642	16417
843.891	16349
844.139	16260
844.388	16167
844.636	16054
844.884	16066
845.133	16037
845.381	16052
845.629	16083
845.877	16010
846.125	15890
846.373	15921
846.621	15877
846.869	15768
847.117	15704
847.365	15698
847.613	15623
847.861	15579
848.108	15643
848.356	15514
848.604	15373
848.851	15437
849.099	15424
849.346	15502
849.594	15581
849.841	15615
850.089	15655
850.336	15633
850.583	15558
850.831	15532
851.078	15459
851.325	15407
851.572	15336
851.819	15134
852.066	14959
852.313	14766
852.56	14676
852.807	14622
853.054	14530
853.301	14561
853.548	14499
853.794	14616
854.041	14663
854.288	14714
854.534	14844
854.781	14847
855.028	14709
855.274	14725
855.52	14578
855.767	14533
856.013	14587
856.26	14677
856.506	14326
856.752	14295
856.998	14259
857.244	14346
857.49	14439
857.736	14381
857.982	14445
858.228	14429
858.474	14253
858.72	14151
858.966	14041
859.212	13972
859.458	13779
859.703	13648
859.949	13529
860.195	13479
860.44	13431
860.686	13282
860.931	13303
861.177	13310
861.422	13208
861.667	13264
861.913	13135
862.158	13186
862.403	13252
862.648	13306
862.893	13311
863.138	13275
863.384	13196
863.629	13195
863.873	13114
864.118	13033
864.363	12982
864.608	12983
864.853	12991
865.098	12808
865.342	12738
865.587	12775
865.832	12670
866.076	12669
866.321	12581
866.565	12505
866.81	12510
867.054	12439
867.298	12505
867.543	12366
867.787	12443
868.031	12450
868.275	12318
868.519	12294
868.764	12403
869.008	12299
869.252	12292
869.496	12220
869.739	12136
869.983	12159
870.227	12131
870.471	12050
870.715	12192
870.958	12237
871.202	12108
871.446	12108
871.689	12174
871.933	12144
872.176	12144
872.42	12082
872.663	12040
872.906	12091
873.15	11967
873.393	11887
873.636	11848
873.879	11750
874.122	11629
874.366	11528
874.609	11446
874.852	11389
875.095	11334
875.337	11344
875.58	11157
875.823	11248
876.066	11205
876.309	11180
876.551	11041
876.794	10944
877.037	11059
877.279	10939
877.522	10979
877.764	10988
878.007	11021
878.249	10987
878.491	10955
878.734	11009
878.976	10947
879.218	10900
879.46	10871
879.702	10795
879.945	10643
880.187	10487
880.429	10496
880.671	10434
880.912	10413
881.154	10385
881.396	10287
881.638	10293
881.88	10265
882.121	10247
882.363	10216
882.605	10300
882.846	10177
883.088	10227
883.329	10119
883.571	10071
883.812	10174
884.053	10244
884.295	10336
884.536	10444
884.777	10325
885.018	10217
885.259	10291
885.5	10158
885.742	10328
885.982	10133
886.223	10024
886.464	10008
886.705	9833
886.946	9923
887.187	9795
887.428	9753
887.668	9592
887.909	9490
888.15	9456
888.39	9403
888.631	9380
888.871	9336
889.111	9227
889.352	9217
889.592	9023
889.833	9017
890.073	8929
890.313	8946
890.553	8767
890.793	8796
891.033	8725
891.273	8710
891.513	8669
891.753	8717
891.993	8681
892.233	8720
892.473	8683
892.713	8712
892.952	8639
893.192	8692
893.432	8564
893.671	8632
893.911	8585
894.15	8516
894.39	8387
894.629	8382
894.869	8412
895.108	8353
895.347	8322
895.587	8229
895.826	8160
896.065	8152
896.304	8118
896.543	8150
896.782	8066
897.021	8075
897.26	7995
897.499	8133
897.738	8059
897.977	7918
898.216	7894
898.454	7797
898.693	7807
898.932	7818
899.17	7713
899.409	7646
899.647	7631
899.886	7616
900.124	7640
900.363	7611
900.601	7638
900.839	7609
901.078	7579
901.316	7607
901.554	7668
901.792	7673
902.03	7495
902.268	7621
902.506	7603
902.744	7539
902.982	7516
903.22	7410
903.458	7386
903.695	7288
903.933	7223
904.171	7065
904.409	7024
904.646	6944
904.884	6859
905.121	6880
905.359	6816
905.596	6751
905.833	6608
906.071	6654
906.308	6743
906.545	6630
906.783	6544
907.02	6600
907.257	6576
907.494	6586
907.731	6517
907.968	6540
908.205	6476
908.442	6443
908.679	6381
908.915	6316
909.152	6301
909.389	6240
909.626	6187
909.862	6127
910.099	6121
910.335	6172
910.572	6041
910.808	6088
911.045	6049
911.281	6014
911.518	6046
911.754	5962
911.99	5944
912.226	5889
912.463	5877
912.699	5790
912.935	5797
913.171	5719
913.407	5625
913.643	5663
913.879	5656
914.114	5525
914.35	5487
914.586	5449
914.822	5325
915.057	5449
915.293	5289
915.529	5271
915.764	5319
916	5324
916.235	5275
916.471	5335
916.706	5211
916.941	5195
917.177	5220
917.412	5227
917.647	5277
917.882	5188
918.117	5251
918.352	5172
918.588	5223
918.823	5070
919.057	5094
919.292	4970
919.527	5007
919.762	4889
919.997	4870
920.232	4774
920.466	4812
920.701	4692
920.935	4720
921.17	4678
921.405	4634
921.639	4713
921.873	4578
922.108	4616
922.342	4638
922.576	4515
922.811	4545
923.045	4557
923.279	4573
923.513	4418
923.747	4527
923.981	4473
924.215	4400
924.449	4385
924.683	4304
924.917	4294
925.151	4273
925.385	4338
925.618	4313
925.852	4258
926.086	4189
926.319	4281
926.553	4234
926.786	4262
927.02	4235
927.253	4254
927.486	4215
927.72	4180
927.953	4241
928.186	4149
928.42	4191
928.653	4154
928.886	4078
929.119	4112
929.352	4069
929.585	4080
929.818	4021
930.051	4049
930.284	4008
930.516	3881
930.749	3866
930.982	3892
931.215	3912
931.447	3789
931.68	3823
931.912	3784
932.145	3862
932.377	3803
932.61	3980
932.842	3720
933.074	3825
933.307	3758
933.539	3852
933.771	3831
934.003	3760
934.236	3832
934.468	3854
934.7	3775
934.932	3783
935.164	3745
935.395	3736
935.627	3763
935.859	3718
936.091	3674
936.323	3716
936.554	3686
936.786	3671
937.017	3596
937.249	3628
937.481	3562
937.712	3605
937.943	3626
938.175	3570
938.406	3571
938.637	3666
938.869	3502
939.1	3529
939.331	3543
939.562	3568
939.793	3521
940.024	3599
940.255	3542
940.486	3519
940.717	3470
940.948	3457
941.179	3375
941.409	3464
941.64	3424
941.871	3415
942.102	3431
942.332	3460
942.563	3466
942.793	3428
943.024	3348
943.254	3444
943.484	3436
943.715	3418
943.945	3406
944.175	3302
944.405	3313
944.636	3312
944.866	3388
945.096	3378
945.326	3274
945.556	3314
945.786	3343
946.016	3291
946.245	3222
946.475	3254
946.705	3257
946.935	3212
947.164	3252
947.394	3157
947.624	3167
947.853	3183
948.083	3169
948.312	3107
948.542	3059
948.771	3057
949	3085
949.23	3090
949.459	3067
949.688	3129
949.917	3052
950.146	3102
950.375	3133
950.604	3054
950.833	3130
951.062	3113
951.291	3068
951.52	3042
951.749	3043
951.978	2990
952.206	3023
952.435	2966
952.664	3038
952.892	3030
953.121	2961
953.349	3013
953.578	2955
953.806	2946
954.035	2904
954.263	2915
954.491	2873
954.719	2933
954.948	2816
955.176	2844
955.404	2740
955.632	2806
955.86	2854
956.088	2851
956.316	2859
956.544	2859
956.772	2767
956.999	2760
957.227	2805
957.455	2727
957.683	2732
957.91	2679
958.138	2690
958.365	2694
958.593	2686
958.82	2623
959.048	2679
959.275	2682
959.502	2635
959.73	2603
959.957	2629
960.184	2668
960.411	2586
960.638	2669
960.865	2593
961.092	2655
961.319	2535
961.546	2627
961.773	2654
962	2606
962.227	2660
962.454	2564
962.68	2570
962.907	2590
963.134	2539
963.36	2553
963.587	2530
963.813	2462
964.04	2547
964.266	2474
964.493	2530
964.719	2482
964.945	2506
965.171	2392
965.398	2472
965.624	2445
965.85	2371
966.076	2377
966.302	2440
966.528	2386
966.754	2411
966.98	2386
967.206	2378
967.431	2330
967.657	2409
967.883	2373
968.109	2375
968.334	2300
968.56	2308
968.785	2309
969.011	2268
969.236	2332
969.462	2294
969.687	2300
969.912	2325
970.138	2331
970.363	2280
970.588	2287
970.813	2216
971.038	2239
971.263	2256
971.488	2222
971.713	2288
971.938	2256
972.163	2152
972.388	2174
972.613	2199
972.838	2172
973.062	2173
973.287	2170
973.512	2096
973.736	2135
973.961	2107
974.185	2064
974.41	2146
974.634	2031
974.858	2064
975.083	2073
975.307	2053
975.531	2041
975.755	1948
975.98	1989
976.204	1953
976.428	1948
976.652	1953
976.876	1907
977.1	2006
977.324	1941
977.547	1969
977.771	1949
977.995	1951
978.219	1893
978.442	1986
978.666	1913
978.89	1940
979.113	1918
979.337	1932
979.56	1892
979.783	1951
980.007	1847
980.23	1865
980.453	1878
980.677	1896
980.9	1865
981.123	1767
981.346	1863
981.569	1844
981.792	1855
982.015	1851
982.238	1808
982.461	1800
982.684	1760
982.907	1746
983.129	1736
983.352	1788
983.575	1782
983.797	1801
984.02	1759
984.242	1712
984.465	1715
984.687	1743
984.91	1733
985.132	1732
985.354	1754
985.577	1745
985.799	1677
986.021	1626
986.243	1664
986.465	1690
986.687	1729
986.909	1784
987.131	1697
987.353	1653
987.575	1690
987.797	1650
988.019	1592
988.241	1666
988.462	1596
988.684	1667
988.906	1690
989.127	1704
989.349	1570
989.57	1631
989.792	1673
990.013	1685
990.234	1659
990.456	1698
990.677	1662
990.898	1613
991.119	1607
991.341	1645
991.562	1559
991.783	1620
992.004	1530
992.225	1530
992.446	1592
992.667	1479
992.887	1573
993.108	1478
993.329	1622
993.55	1535
993.77	1475
993.991	1496
994.212	1528
994.432	1510
994.653	1535
994.873	1533
995.093	1408
995.314	1458
995.534	1510
995.754	1521
995.975	1573
996.195	1441
996.415	1476
996.635	1458
996.855	1490
997.075	1455
997.295	1459
997.515	1452
997.735	1467
997.955	1436
998.174	1443
998.394	1417
998.614	1464
998.834	1423
999.053	1479
999.273	1467
999.492	1495
999.712	1449
999.931	1393
1000.151	1452
1000.37	1416
1000.589	1481
1000.809	1418
1001.028	1516
1001.247	1450
1001.466	1353
1001.685	1487
1001.904	1424
1002.123	1401
1002.342	1422
1002.561	1348
1002.78	1430
1002.999	1446
1003.218	1396
1003.436	1388
1003.655	1423
1003.874	1369
1004.092	1390
1004.311	1455
1004.53	1374
1004.748	1435
1004.966	1371
1005.185	1469
1005.403	1428
1005.622	1407
1005.84	1509
1006.058	1361
1006.276	1396
1006.494	1748
1006.712	1413
1006.931	1444
1007.149	1363
1007.367	1366
1007.584	1367
1007.802	1410
1008.02	1362
1008.238	1473
1008.456	1439
1008.673	1314
1008.891	1392
1009.109	1353
1009.326	1405
1009.544	1482
1009.761	1401
1009.979	1444
1010.196	1451
1010.413	1522
1010.631	1540
1010.848	1553
1011.065	1553
1011.282	1498
1011.5	1426
1011.717	1551
1011.934	1484
1012.151	1512
1012.368	1498
1012.585	1434
1012.801	1483
1013.018	1468
1013.235	1420
1013.452	1435
1013.669	1449
1013.885	1414
1014.102	1458
1014.318	1421
1014.535	1389
1014.751	1421
1014.968	1408
1015.184	1454
1015.401	1355
1015.617	1392
1015.833	1339
1016.049	1340
1016.266	1325
1016.482	1353
1016.698	1251
1016.914	1329
1017.13	1272
1017.346	1243
1017.562	1349
1017.778	1268
1017.993	1245
1018.209	1306
1018.425	1246
1018.641	1247
1018.856	1182
1019.072	1221
1019.288	1272
1019.503	1222
1019.719	1154
1019.934	1181
1020.149	1216
1020.365	1188
1020.58	1136
1020.795	1200
1021.011	1111
1021.226	1113
1021.441	1169
1021.656	1076
1021.871	1021
1022.086	1036
1022.301	1021
1022.516	1013
1022.731	1092
1022.946	981
1023.16	968
1023.375	925
1023.59	925
1023.804	890
1024.019	994
1024.234	896
1024.448	919
1024.663	859
1024.877	856
1025.092	907
1025.306	912
1025.52	819
1025.734	913
1025.949	821
1026.163	790
1026.377	745
1026.591	790
1026.805	731
1027.019	741
1027.233	676
1027.447	636
1027.661	741
1027.875	691
1028.088	716
1028.302	635
1028.516	641
1028.73	635
1028.943	621
1029.157	578
1029.37	538
1029.584	-4
1029.797	1
1030.011	-1
1030.224	-2
