Data from QEP037381__229__14-32-58-754.txt Node

Date: Fri Apr 28 14:32:58 EDT 2023
User: dcclab
Spectrometer: QEP03738
Trigger mode: 4
Integration Time (sec): 1.000000E1
Scans to average: 1
Electric dark correction enabled: true
Nonlinearity correction enabled: false
Boxcar width: 0
XAxis mode: Wavelengths
Number of Pixels in Spectrum: 1044
>>>>>Begin Spectral Data<<<<<
784.041	11.12
784.3	-3.88
784.558	-2.88
784.817	-4.88
785.075	76629.12
785.334	15045.12
785.592	7710.12
785.851	5509.12
786.109	4096.12
786.368	3212.12
786.626	2631.12
786.884	2164.12
787.143	1828.12
787.401	1506.12
787.659	1405.12
787.917	1187.12
788.175	1075.12
788.433	948.12
788.691	829.12
788.949	786.12
789.207	760.12
789.465	640.12
789.723	637.12
789.98	585.12
790.238	617.12
790.496	595.12
790.753	559.12
791.011	614.12
791.268	534.12
791.526	506.12
791.783	532.12
792.041	513.12
792.298	444.12
792.556	498.12
792.813	487.12
793.07	465.12
793.327	439.12
793.584	527.12
793.841	448.12
794.099	462.12
794.356	524.12
794.613	426.12
794.869	466.12
795.126	410.12
795.383	396.12
795.64	424.12
795.897	384.12
796.153	439.12
796.41	437.12
796.667	414.12
796.923	419.12
797.18	435.12
797.436	457.12
797.693	420.12
797.949	470.12
798.206	486.12
798.462	417.12
798.718	458.12
798.974	447.12
799.231	487.12
799.487	459.12
799.743	488.12
799.999	501.12
800.255	491.12
800.511	482.12
800.767	533.12
801.023	525.12
801.279	565.12
801.534	607.12
801.79	675.12
802.046	716.12
802.302	893.12
802.557	1018.12
802.813	1297.12
803.068	1651.12
803.324	2333.12
803.579	3282.12
803.835	4557.12
804.09	6202.12
804.345	7919.12
804.601	9643.12
804.856	11184.12
805.111	12375.12
805.366	13226.12
805.621	13728.12
805.876	14031.12
806.131	14403.12
806.386	14504.12
806.641	14766.12
806.896	15026.12
807.151	15206.12
807.406	15362.12
807.661	15596.12
807.915	15914.12
808.17	16135.12
808.425	16267.12
808.679	16367.12
808.934	16628.12
809.188	16829.12
809.443	16991.12
809.697	17174.12
809.951	17257.12
810.206	17301.12
810.46	17590.12
810.714	17633.12
810.968	17626.12
811.223	17768.12
811.477	17890.12
811.731	18070.12
811.985	18080.12
812.239	18117.12
812.493	18353.12
812.747	18428.12
813	18460.12
813.254	18442.12
813.508	18565.12
813.762	18675.12
814.015	18771.12
814.269	18813.12
814.522	18913.12
814.776	19091.12
815.03	19350.12
815.283	19519.12
815.536	19856.12
815.79	20118.12
816.043	20416.12
816.296	20518.12
816.55	20728.12
816.803	21003.12
817.056	21302.12
817.309	21535.12
817.562	21597.12
817.815	21831.12
818.068	22081.12
818.321	22252.12
818.574	22475.12
818.827	22810.12
819.079	23093.12
819.332	23532.12
819.585	23820.12
819.838	23914.12
820.09	24192.12
820.343	24476.12
820.595	24425.12
820.848	24508.12
821.1	24645.12
821.353	24651.12
821.605	24612.12
821.857	24648.12
822.11	24484.12
822.362	24421.12
822.614	24360.12
822.866	24546.12
823.118	24416.12
823.37	24512.12
823.622	24585.12
823.874	24776.12
824.126	24792.12
824.378	24772.12
824.63	24811.12
824.882	24863.12
825.134	24846.12
825.385	24750.12
825.637	24644.12
825.888	24675.12
826.14	24585.12
826.392	24382.12
826.643	24323.12
826.895	24255.12
827.146	24194.12
827.397	24219.12
827.649	24157.12
827.9	24051.12
828.151	24213.12
828.402	24117.12
828.653	24327.12
828.905	24265.12
829.156	24302.12
829.407	24152.12
829.658	24251.12
829.909	24336.12
830.159	24189.12
830.41	24064.12
830.661	23934.12
830.912	23673.12
831.162	23670.12
831.413	23598.12
831.664	23586.12
831.914	23653.12
832.165	23509.12
832.415	23524.12
832.666	23548.12
832.916	23586.12
833.167	23475.12
833.417	23443.12
833.667	23362.12
833.917	23262.12
834.168	23276.12
834.418	23106.12
834.668	23040.12
834.918	23050.12
835.168	22896.12
835.418	22727.12
835.668	22852.12
835.918	22679.12
836.167	22666.12
836.417	22530.12
836.667	22563.12
836.917	22583.12
837.166	22409.12
837.416	22502.12
837.666	22442.12
837.915	22288.12
838.165	22230.12
838.414	22154.12
838.663	21998.12
838.913	22061.12
839.162	21978.12
839.411	21899.12
839.661	21893.12
839.91	21810.12
840.159	21834.12
840.408	21853.12
840.657	21801.12
840.906	21820.12
841.155	21843.12
841.404	21690.12
841.653	21640.12
841.902	21687.12
842.15	21767.12
842.399	21808.12
842.648	21661.12
842.897	21628.12
843.145	21467.12
843.394	21327.12
843.642	21201.12
843.891	21150.12
844.139	21042.12
844.388	20818.12
844.636	20738.12
844.884	20752.12
845.133	20755.12
845.381	20653.12
845.629	20700.12
845.877	20604.12
846.125	20799.12
846.373	20582.12
846.621	20498.12
846.869	20380.12
847.117	20393.12
847.365	20268.12
847.613	20024.12
847.861	20027.12
848.108	20079.12
848.356	20057.12
848.604	19951.12
848.851	20053.12
849.099	20094.12
849.346	20012.12
849.594	20138.12
849.841	20127.12
850.089	20206.12
850.336	20150.12
850.583	20117.12
850.831	19922.12
851.078	19935.12
851.325	19831.12
851.572	19872.12
851.819	19555.12
852.066	19200.12
852.313	18963.12
852.56	18860.12
852.807	18792.12
853.054	18681.12
853.301	18768.12
853.548	18722.12
853.794	18892.12
854.041	18951.12
854.288	18971.12
854.534	19167.12
854.781	19102.12
855.028	19063.12
855.274	19114.12
855.52	18927.12
855.767	18734.12
856.013	18790.12
856.26	19067.12
856.506	18556.12
856.752	18456.12
856.998	18434.12
857.244	18630.12
857.49	18610.12
857.736	18597.12
857.982	18652.12
858.228	18526.12
858.474	18387.12
858.72	18293.12
858.966	18199.12
859.212	17944.12
859.458	17876.12
859.703	17645.12
859.949	17391.12
860.195	17302.12
860.44	17257.12
860.686	17138.12
860.931	17183.12
861.177	17051.12
861.422	17054.12
861.667	16922.12
861.913	16952.12
862.158	16979.12
862.403	17077.12
862.648	17076.12
862.893	17147.12
863.138	16995.12
863.384	16945.12
863.629	17001.12
863.873	16968.12
864.118	16816.12
864.363	16741.12
864.608	16620.12
864.853	16645.12
865.098	16455.12
865.342	16485.12
865.587	16292.12
865.832	16342.12
866.076	16216.12
866.321	16091.12
866.565	16122.12
866.81	16037.12
867.054	16033.12
867.298	15953.12
867.543	15930.12
867.787	16056.12
868.031	15956.12
868.275	15922.12
868.519	15892.12
868.764	15848.12
869.008	15794.12
869.252	15773.12
869.496	15724.12
869.739	15724.12
869.983	15651.12
870.227	15701.12
870.471	15602.12
870.715	15676.12
870.958	15607.12
871.202	15621.12
871.446	15750.12
871.689	15639.12
871.933	15676.12
872.176	15623.12
872.42	15560.12
872.663	15572.12
872.906	15513.12
873.15	15413.12
873.393	15344.12
873.636	15322.12
873.879	15187.12
874.122	14976.12
874.366	14743.12
874.609	14773.12
874.852	14598.12
875.095	14587.12
875.337	14468.12
875.58	14417.12
875.823	14352.12
876.066	14375.12
876.309	14335.12
876.551	14285.12
876.794	14094.12
877.037	14206.12
877.279	14014.12
877.522	14157.12
877.764	14159.12
878.007	14123.12
878.249	14094.12
878.491	14064.12
878.734	14061.12
878.976	14071.12
879.218	13904.12
879.46	13888.12
879.702	13749.12
879.945	13652.12
880.187	13472.12
880.429	13430.12
880.671	13299.12
880.912	13294.12
881.154	13254.12
881.396	13166.12
881.638	13163.12
881.88	13222.12
882.121	13110.12
882.363	13130.12
882.605	13172.12
882.846	13057.12
883.088	13064.12
883.329	12943.12
883.571	12921.12
883.812	13065.12
884.053	13223.12
884.295	13367.12
884.536	13430.12
884.777	13301.12
885.018	13218.12
885.259	13264.12
885.5	13067.12
885.742	13269.12
885.982	13083.12
886.223	12952.12
886.464	12810.12
886.705	12732.12
886.946	12626.12
887.187	12478.12
887.428	12439.12
887.668	12224.12
887.909	12191.12
888.15	12041.12
888.39	12039.12
888.631	12012.12
888.871	11829.12
889.111	11699.12
889.352	11683.12
889.592	11559.12
889.833	11531.12
890.073	11414.12
890.313	11408.12
890.553	11227.12
890.793	11241.12
891.033	11190.12
891.273	11199.12
891.513	11093.12
891.753	11126.12
891.993	11023.12
892.233	11102.12
892.473	11148.12
892.713	11043.12
892.952	11118.12
893.192	11008.12
893.432	11079.12
893.671	10995.12
893.911	10949.12
894.15	10887.12
894.39	10776.12
894.629	10749.12
894.869	10662.12
895.108	10584.12
895.347	10482.12
895.587	10445.12
895.826	10455.12
896.065	10254.12
896.304	10391.12
896.543	10347.12
896.782	10307.12
897.021	10325.12
897.26	10316.12
897.499	10288.12
897.738	10262.12
897.977	10177.12
898.216	10105.12
898.454	10043.12
898.693	9894.12
898.932	9859.12
899.17	9822.12
899.409	9813.12
899.647	9735.12
899.886	9759.12
900.124	9738.12
900.363	9750.12
900.601	9799.12
900.839	9672.12
901.078	9730.12
901.316	9765.12
901.554	9782.12
901.792	9732.12
902.03	9743.12
902.268	9701.12
902.506	9759.12
902.744	9609.12
902.982	9646.12
903.22	9439.12
903.458	9417.12
903.695	9295.12
903.933	9202.12
904.171	8997.12
904.409	8929.12
904.646	8918.12
904.884	8757.12
905.121	8669.12
905.359	8584.12
905.596	8542.12
905.833	8522.12
906.071	8440.12
906.308	8437.12
906.545	8411.12
906.783	8381.12
907.02	8360.12
907.257	8296.12
907.494	8302.12
907.731	8331.12
907.968	8304.12
908.205	8192.12
908.442	8146.12
908.679	8175.12
908.915	8078.12
909.152	7996.12
909.389	7899.12
909.626	7823.12
909.862	7793.12
910.099	7819.12
910.335	7751.12
910.572	7636.12
910.808	7711.12
911.045	7612.12
911.281	7635.12
911.518	7575.12
911.754	7534.12
911.99	7561.12
912.226	7463.12
912.463	7355.12
912.699	7312.12
912.935	7315.12
913.171	7279.12
913.407	7148.12
913.643	7131.12
913.879	7045.12
914.114	7098.12
914.35	6927.12
914.586	6880.12
914.822	6830.12
915.057	6835.12
915.293	6703.12
915.529	6672.12
915.764	6692.12
916	6675.12
916.235	6692.12
916.471	6690.12
916.706	6533.12
916.941	6588.12
917.177	6602.12
917.412	6630.12
917.647	6617.12
917.882	6572.12
918.117	6590.12
918.352	6520.12
918.588	6562.12
918.823	6427.12
919.057	6412.12
919.292	6197.12
919.527	6309.12
919.762	6143.12
919.997	6185.12
920.232	6061.12
920.466	6047.12
920.701	5873.12
920.935	5914.12
921.17	5834.12
921.405	5852.12
921.639	5929.12
921.873	5827.12
922.108	5868.12
922.342	5817.12
922.576	5755.12
922.811	5696.12
923.045	5703.12
923.279	5717.12
923.513	5615.12
923.747	5665.12
923.981	5670.12
924.215	5623.12
924.449	5551.12
924.683	5453.12
924.917	5417.12
925.151	5418.12
925.385	5509.12
925.618	5373.12
925.852	5372.12
926.086	5292.12
926.319	5384.12
926.553	5325.12
926.786	5364.12
927.02	5290.12
927.253	5332.12
927.486	5308.12
927.72	5258.12
927.953	5284.12
928.186	5248.12
928.42	5277.12
928.653	5210.12
928.886	5144.12
929.119	5141.12
929.352	5163.12
929.585	5110.12
929.818	5012.12
930.051	5046.12
930.284	4997.12
930.516	4902.12
930.749	4906.12
930.982	4917.12
931.215	4878.12
931.447	4792.12
931.68	4779.12
931.912	4770.12
932.145	4765.12
932.377	4831.12
932.61	4877.12
932.842	4723.12
933.074	4815.12
933.307	4697.12
933.539	4849.12
933.771	4806.12
934.003	4767.12
934.236	4851.12
934.468	4777.12
934.7	4737.12
934.932	4733.12
935.164	4605.12
935.395	4635.12
935.627	4724.12
935.859	4648.12
936.091	4591.12
936.323	4608.12
936.554	4572.12
936.786	4551.12
937.017	4534.12
937.249	4560.12
937.481	4488.12
937.712	4529.12
937.943	4528.12
938.175	4450.12
938.406	4484.12
938.637	4532.12
938.869	4455.12
939.1	4487.12
939.331	4410.12
939.562	4471.12
939.793	4444.12
940.024	4426.12
940.255	4450.12
940.486	4385.12
940.717	4381.12
940.948	4273.12
941.179	4293.12
941.409	4295.12
941.64	4285.12
941.871	4277.12
942.102	4271.12
942.332	4269.12
942.563	4251.12
942.793	4301.12
943.024	4232.12
943.254	4225.12
943.484	4246.12
943.715	4264.12
943.945	4246.12
944.175	4173.12
944.405	4178.12
944.636	4168.12
944.866	4185.12
945.096	4216.12
945.326	4107.12
945.556	4185.12
945.786	4207.12
946.016	4103.12
946.245	4013.12
946.475	4035.12
946.705	4000.12
946.935	4049.12
947.164	4033.12
947.394	3981.12
947.624	3902.12
947.853	3988.12
948.083	3929.12
948.312	3899.12
948.542	3851.12
948.771	3857.12
949	3785.12
949.23	3862.12
949.459	3843.12
949.688	3882.12
949.917	3803.12
950.146	3841.12
950.375	3892.12
950.604	3803.12
950.833	3842.12
951.062	3875.12
951.291	3792.12
951.52	3739.12
951.749	3772.12
951.978	3746.12
952.206	3724.12
952.435	3718.12
952.664	3734.12
952.892	3744.12
953.121	3691.12
953.349	3677.12
953.578	3697.12
953.806	3654.12
954.035	3573.12
954.263	3575.12
954.491	3534.12
954.719	3608.12
954.948	3523.12
955.176	3499.12
955.404	3441.12
955.632	3516.12
955.86	3536.12
956.088	3457.12
956.316	3505.12
956.544	3541.12
956.772	3414.12
956.999	3381.12
957.227	3467.12
957.455	3381.12
957.683	3341.12
957.91	3337.12
958.138	3300.12
958.365	3264.12
958.593	3338.12
958.82	3258.12
959.048	3320.12
959.275	3283.12
959.502	3248.12
959.73	3224.12
959.957	3294.12
960.184	3309.12
960.411	3199.12
960.638	3284.12
960.865	3246.12
961.092	3261.12
961.319	3166.12
961.546	3292.12
961.773	3238.12
962	3189.12
962.227	3251.12
962.454	3205.12
962.68	3161.12
962.907	3207.12
963.134	3112.12
963.36	3147.12
963.587	3136.12
963.813	3076.12
964.04	3085.12
964.266	3029.12
964.493	3090.12
964.719	3043.12
964.945	3038.12
965.171	2914.12
965.398	2968.12
965.624	3009.12
965.85	2901.12
966.076	2896.12
966.302	2925.12
966.528	2919.12
966.754	2920.12
966.98	2940.12
967.206	2941.12
967.431	2839.12
967.657	2937.12
967.883	2914.12
968.109	2879.12
968.334	2839.12
968.56	2802.12
968.785	2811.12
969.011	2773.12
969.236	2830.12
969.462	2775.12
969.687	2784.12
969.912	2813.12
970.138	2830.12
970.363	2769.12
970.588	2789.12
970.813	2691.12
971.038	2749.12
971.263	2713.12
971.488	2727.12
971.713	2738.12
971.938	2723.12
972.163	2644.12
972.388	2678.12
972.613	2647.12
972.838	2677.12
973.062	2625.12
973.287	2622.12
973.512	2602.12
973.736	2572.12
973.961	2567.12
974.185	2531.12
974.41	2573.12
974.634	2453.12
974.858	2483.12
975.083	2538.12
975.307	2561.12
975.531	2444.12
975.755	2418.12
975.98	2464.12
976.204	2380.12
976.428	2382.12
976.652	2356.12
976.876	2346.12
977.1	2393.12
977.324	2328.12
977.547	2413.12
977.771	2383.12
977.995	2358.12
978.219	2302.12
978.442	2420.12
978.666	2342.12
978.89	2344.12
979.113	2331.12
979.337	2330.12
979.56	2281.12
979.783	2353.12
980.007	2271.12
980.23	2269.12
980.453	2245.12
980.677	2273.12
980.9	2252.12
981.123	2165.12
981.346	2270.12
981.569	2221.12
981.792	2260.12
982.015	2178.12
982.238	2201.12
982.461	2177.12
982.684	2158.12
982.907	2088.12
983.129	2111.12
983.352	2156.12
983.575	2120.12
983.797	2128.12
984.02	2103.12
984.242	2080.12
984.465	2071.12
984.687	2090.12
984.91	2133.12
985.132	2118.12
985.354	2110.12
985.577	2054.12
985.799	2045.12
986.021	1970.12
986.243	2012.12
986.465	2005.12
986.687	2047.12
986.909	2092.12
987.131	2009.12
987.353	1986.12
987.575	2043.12
987.797	1985.12
988.019	1926.12
988.241	1951.12
988.462	1935.12
988.684	2011.12
988.906	1991.12
989.127	2044.12
989.349	1905.12
989.57	1938.12
989.792	1972.12
990.013	1988.12
990.234	1995.12
990.456	2026.12
990.677	1992.12
990.898	1905.12
991.119	1909.12
991.341	1957.12
991.562	1883.12
991.783	1956.12
992.004	1861.12
992.225	1842.12
992.446	1881.12
992.667	1768.12
992.887	1896.12
993.108	1751.12
993.329	1894.12
993.55	1826.12
993.77	1752.12
993.991	1775.12
994.212	1790.12
994.432	1763.12
994.653	1788.12
994.873	1777.12
995.093	1675.12
995.314	1707.12
995.534	1815.12
995.754	1780.12
995.975	1803.12
996.195	1704.12
996.415	1752.12
996.635	1763.12
996.855	1725.12
997.075	1729.12
997.295	1708.12
997.515	1675.12
997.735	1763.12
997.955	1719.12
998.174	1730.12
998.394	1671.12
998.614	1713.12
998.834	1663.12
999.053	1752.12
999.273	1700.12
999.492	1748.12
999.712	1652.12
999.931	1641.12
1000.151	1686.12
1000.37	1686.12
1000.589	1737.12
1000.809	1630.12
1001.028	1734.12
1001.247	1696.12
1001.466	1574.12
1001.685	1729.12
1001.904	1635.12
1002.123	1639.12
1002.342	1645.12
1002.561	1608.12
1002.78	1625.12
1002.999	1689.12
1003.218	1618.12
1003.436	1570.12
1003.655	1652.12
1003.874	1548.12
1004.092	1577.12
1004.311	1622.12
1004.53	1609.12
1004.748	1673.12
1004.966	1587.12
1005.185	1623.12
1005.403	1606.12
1005.622	1605.12
1005.84	1660.12
1006.058	1571.12
1006.276	1602.12
1006.494	1956.12
1006.712	1578.12
1006.931	1619.12
1007.149	1526.12
1007.367	1551.12
1007.584	1575.12
1007.802	1622.12
1008.02	1565.12
1008.238	1677.12
1008.456	1667.12
1008.673	1532.12
1008.891	1611.12
1009.109	1565.12
1009.326	1622.12
1009.544	1703.12
1009.761	1594.12
1009.979	1724.12
1010.196	1701.12
1010.413	1784.12
1010.631	1804.12
1010.848	1845.12
1011.065	1842.12
1011.282	1802.12
1011.5	1722.12
1011.717	1837.12
1011.934	1765.12
1012.151	1783.12
1012.368	1772.12
1012.585	1712.12
1012.801	1771.12
1013.018	1730.12
1013.235	1685.12
1013.452	1714.12
1013.669	1765.12
1013.885	1709.12
1014.102	1731.12
1014.318	1721.12
1014.535	1686.12
1014.751	1713.12
1014.968	1692.12
1015.184	1698.12
1015.401	1613.12
1015.617	1647.12
1015.833	1583.12
1016.049	1613.12
1016.266	1602.12
1016.482	1606.12
1016.698	1509.12
1016.914	1575.12
1017.13	1521.12
1017.346	1480.12
1017.562	1582.12
1017.778	1492.12
1017.993	1478.12
1018.209	1508.12
1018.425	1494.12
1018.641	1439.12
1018.856	1425.12
1019.072	1465.12
1019.288	1507.12
1019.503	1464.12
1019.719	1386.12
1019.934	1404.12
1020.149	1452.12
1020.365	1394.12
1020.58	1366.12
1020.795	1408.12
1021.011	1339.12
1021.226	1307.12
1021.441	1351.12
1021.656	1264.12
1021.871	1175.12
1022.086	1197.12
1022.301	1190.12
1022.516	1169.12
1022.731	1247.12
1022.946	1156.12
1023.16	1133.12
1023.375	1092.12
1023.59	1084.12
1023.804	1038.12
1024.019	1160.12
1024.234	1002.12
1024.448	1044.12
1024.663	993.12
1024.877	1002.12
1025.092	1038.12
1025.306	1030.12
1025.52	937.12
1025.734	1010.12
1025.949	925.12
1026.163	900.12
1026.377	839.12
1026.591	907.12
1026.805	831.12
1027.019	835.12
1027.233	791.12
1027.447	745.12
1027.661	838.12
1027.875	775.12
1028.088	794.12
1028.302	709.12
1028.516	712.12
1028.73	697.12
1028.943	685.12
1029.157	670.12
1029.37	605.12
1029.584	1.12
1029.797	0.12
1030.011	-0.88
1030.224	0.12
