Data from QEP037381__241__14-34-58-754.txt Node

Date: Fri Apr 28 14:34:58 EDT 2023
User: dcclab
Spectrometer: QEP03738
Trigger mode: 4
Integration Time (sec): 1.000000E1
Scans to average: 1
Electric dark correction enabled: true
Nonlinearity correction enabled: false
Boxcar width: 0
XAxis mode: Wavelengths
Number of Pixels in Spectrum: 1044
>>>>>Begin Spectral Data<<<<<
784.041	10.5
784.3	0.5
784.558	-2.5
784.817	-2.5
785.075	72362.5
785.334	14799.5
785.592	7745.5
785.851	5511.5
786.109	4165.5
786.368	3202.5
786.626	2596.5
786.884	2181.5
787.143	1817.5
787.401	1494.5
787.659	1383.5
787.917	1179.5
788.175	1069.5
788.433	935.5
788.691	850.5
788.949	790.5
789.207	742.5
789.465	643.5
789.723	615.5
789.98	563.5
790.238	609.5
790.496	571.5
790.753	550.5
791.011	605.5
791.268	535.5
791.526	507.5
791.783	542.5
792.041	524.5
792.298	441.5
792.556	505.5
792.813	477.5
793.07	446.5
793.327	430.5
793.584	504.5
793.841	447.5
794.099	447.5
794.356	516.5
794.613	414.5
794.869	467.5
795.126	409.5
795.383	404.5
795.64	426.5
795.897	385.5
796.153	430.5
796.41	410.5
796.667	404.5
796.923	417.5
797.18	406.5
797.436	439.5
797.693	401.5
797.949	457.5
798.206	478.5
798.462	396.5
798.718	453.5
798.974	427.5
799.231	469.5
799.487	461.5
799.743	455.5
799.999	496.5
800.255	478.5
800.511	473.5
800.767	506.5
801.023	509.5
801.279	524.5
801.534	569.5
801.79	606.5
802.046	653.5
802.302	780.5
802.557	899.5
802.813	1102.5
803.068	1399.5
803.324	1986.5
803.579	2710.5
803.835	3816.5
804.09	5213.5
804.345	6631.5
804.601	8194.5
804.856	9515.5
805.111	10550.5
805.366	11223.5
805.621	11742.5
805.876	12023.5
806.131	12222.5
806.386	12400.5
806.641	12498.5
806.896	12710.5
807.151	12965.5
807.406	13116.5
807.661	13251.5
807.915	13593.5
808.17	13737.5
808.425	13733.5
808.679	13951.5
808.934	14189.5
809.188	14181.5
809.443	14364.5
809.697	14579.5
809.951	14638.5
810.206	14726.5
810.46	14855.5
810.714	15012.5
810.968	15060.5
811.223	15143.5
811.477	15246.5
811.731	15434.5
811.985	15451.5
812.239	15532.5
812.493	15545.5
812.747	15601.5
813	15676.5
813.254	15752.5
813.508	15759.5
813.762	15832.5
814.015	15833.5
814.269	15925.5
814.522	16155.5
814.776	16274.5
815.03	16388.5
815.283	16607.5
815.536	16918.5
815.79	17176.5
816.043	17305.5
816.296	17444.5
816.55	17579.5
816.803	17777.5
817.056	18091.5
817.309	18259.5
817.562	18261.5
817.815	18588.5
818.068	18602.5
818.321	18900.5
818.574	19004.5
818.827	19391.5
819.079	19488.5
819.332	19915.5
819.585	20132.5
819.838	20354.5
820.09	20562.5
820.343	20603.5
820.595	20750.5
820.848	20818.5
821.1	20955.5
821.353	20870.5
821.605	20802.5
821.857	20811.5
822.11	20787.5
822.362	20833.5
822.614	20655.5
822.866	20688.5
823.118	20653.5
823.37	20835.5
823.622	20923.5
823.874	20858.5
824.126	21033.5
824.378	21097.5
824.63	21132.5
824.882	21157.5
825.134	21139.5
825.385	20932.5
825.637	21044.5
825.888	21039.5
826.14	20812.5
826.392	20694.5
826.643	20600.5
826.895	20622.5
827.146	20590.5
827.397	20400.5
827.649	20557.5
827.9	20484.5
828.151	20457.5
828.402	20399.5
828.653	20581.5
828.905	20628.5
829.156	20647.5
829.407	20585.5
829.658	20591.5
829.909	20624.5
830.159	20450.5
830.41	20330.5
830.661	20317.5
830.912	20129.5
831.162	20041.5
831.413	20099.5
831.664	20110.5
831.914	19973.5
832.165	20025.5
832.415	19965.5
832.666	19955.5
832.916	20038.5
833.167	19886.5
833.417	19957.5
833.667	19838.5
833.917	19700.5
834.168	19821.5
834.418	19680.5
834.668	19544.5
834.918	19546.5
835.168	19442.5
835.418	19413.5
835.668	19326.5
835.918	19332.5
836.167	19297.5
836.417	19181.5
836.667	19176.5
836.917	19200.5
837.166	19034.5
837.416	19110.5
837.666	18986.5
837.915	18921.5
838.165	18957.5
838.414	18843.5
838.663	18776.5
838.913	18681.5
839.162	18658.5
839.411	18664.5
839.661	18539.5
839.91	18523.5
840.159	18533.5
840.408	18490.5
840.657	18559.5
840.906	18527.5
841.155	18579.5
841.404	18577.5
841.653	18358.5
841.902	18435.5
842.15	18402.5
842.399	18524.5
842.648	18377.5
842.897	18389.5
843.145	18259.5
843.394	18135.5
843.642	18045.5
843.891	17945.5
844.139	17879.5
844.388	17719.5
844.636	17684.5
844.884	17662.5
845.133	17558.5
845.381	17606.5
845.629	17567.5
845.877	17544.5
846.125	17478.5
846.373	17442.5
846.621	17428.5
846.869	17352.5
847.117	17295.5
847.365	17147.5
847.613	17108.5
847.861	17073.5
848.108	17069.5
848.356	16985.5
848.604	16943.5
848.851	17034.5
849.099	16976.5
849.346	17105.5
849.594	17126.5
849.841	17223.5
850.089	17160.5
850.336	17076.5
850.583	17214.5
850.831	17029.5
851.078	16967.5
851.325	16788.5
851.572	16852.5
851.819	16603.5
852.066	16322.5
852.313	16206.5
852.56	16028.5
852.807	16016.5
853.054	15987.5
853.301	15993.5
853.548	15983.5
853.794	16141.5
854.041	16149.5
854.288	16148.5
854.534	16381.5
854.781	16155.5
855.028	16223.5
855.274	16141.5
855.52	16067.5
855.767	15923.5
856.013	15940.5
856.26	16184.5
856.506	15738.5
856.752	15772.5
856.998	15733.5
857.244	15681.5
857.49	15870.5
857.736	15821.5
857.982	15833.5
858.228	15780.5
858.474	15737.5
858.72	15588.5
858.966	15513.5
859.212	15273.5
859.458	15154.5
859.703	15081.5
859.949	14899.5
860.195	14750.5
860.44	14701.5
860.686	14640.5
860.931	14642.5
861.177	14518.5
861.422	14563.5
861.667	14456.5
861.913	14430.5
862.158	14461.5
862.403	14599.5
862.648	14581.5
862.893	14626.5
863.138	14603.5
863.384	14526.5
863.629	14510.5
863.873	14447.5
864.118	14415.5
864.363	14225.5
864.608	14229.5
864.853	14153.5
865.098	14044.5
865.342	14046.5
865.587	13978.5
865.832	13861.5
866.076	13865.5
866.321	13815.5
866.565	13708.5
866.81	13707.5
867.054	13731.5
867.298	13671.5
867.543	13588.5
867.787	13727.5
868.031	13575.5
868.275	13571.5
868.519	13546.5
868.764	13508.5
869.008	13510.5
869.252	13468.5
869.496	13430.5
869.739	13356.5
869.983	13314.5
870.227	13333.5
870.471	13298.5
870.715	13385.5
870.958	13393.5
871.202	13284.5
871.446	13395.5
871.689	13344.5
871.933	13261.5
872.176	13355.5
872.42	13299.5
872.663	13305.5
872.906	13317.5
873.15	13169.5
873.393	13060.5
873.636	13063.5
873.879	12900.5
874.122	12805.5
874.366	12633.5
874.609	12641.5
874.852	12436.5
875.095	12450.5
875.337	12367.5
875.58	12276.5
875.823	12277.5
876.066	12253.5
876.309	12383.5
876.551	12201.5
876.794	12022.5
877.037	12120.5
877.279	12003.5
877.522	12060.5
877.764	12128.5
878.007	11983.5
878.249	12081.5
878.491	12005.5
878.734	12061.5
878.976	11948.5
879.218	11858.5
879.46	11883.5
879.702	11757.5
879.945	11718.5
880.187	11510.5
880.429	11500.5
880.671	11412.5
880.912	11377.5
881.154	11401.5
881.396	11246.5
881.638	11341.5
881.88	11332.5
882.121	11335.5
882.363	11284.5
882.605	11280.5
882.846	11154.5
883.088	11181.5
883.329	11103.5
883.571	11060.5
883.812	11123.5
884.053	11184.5
884.295	11326.5
884.536	11467.5
884.777	11310.5
885.018	11280.5
885.259	11241.5
885.5	11227.5
885.742	11381.5
885.982	11235.5
886.223	10997.5
886.464	11006.5
886.705	10895.5
886.946	10917.5
887.187	10647.5
887.428	10690.5
887.668	10522.5
887.909	10381.5
888.15	10371.5
888.39	10323.5
888.631	10275.5
888.871	10129.5
889.111	10067.5
889.352	10021.5
889.592	9938.5
889.833	9860.5
890.073	9793.5
890.313	9776.5
890.553	9670.5
890.793	9692.5
891.033	9575.5
891.273	9544.5
891.513	9472.5
891.753	9533.5
891.993	9487.5
892.233	9566.5
892.473	9531.5
892.713	9537.5
892.952	9472.5
893.192	9511.5
893.432	9434.5
893.671	9457.5
893.911	9390.5
894.15	9362.5
894.39	9223.5
894.629	9182.5
894.869	9154.5
895.108	9078.5
895.347	9010.5
895.587	8980.5
895.826	8999.5
896.065	8919.5
896.304	8973.5
896.543	8970.5
896.782	8798.5
897.021	8911.5
897.26	8855.5
897.499	8871.5
897.738	8834.5
897.977	8713.5
898.216	8656.5
898.454	8487.5
898.693	8458.5
898.932	8498.5
899.17	8416.5
899.409	8395.5
899.647	8392.5
899.886	8326.5
900.124	8360.5
900.363	8331.5
900.601	8336.5
900.839	8422.5
901.078	8343.5
901.316	8326.5
901.554	8376.5
901.792	8346.5
902.03	8265.5
902.268	8313.5
902.506	8348.5
902.744	8293.5
902.982	8243.5
903.22	8119.5
903.458	8094.5
903.695	7957.5
903.933	7948.5
904.171	7775.5
904.409	7671.5
904.646	7590.5
904.884	7534.5
905.121	7515.5
905.359	7418.5
905.596	7329.5
905.833	7274.5
906.071	7263.5
906.308	7294.5
906.545	7198.5
906.783	7186.5
907.02	7185.5
907.257	7120.5
907.494	7153.5
907.731	7158.5
907.968	7154.5
908.205	7051.5
908.442	6968.5
908.679	6981.5
908.915	6955.5
909.152	6950.5
909.389	6761.5
909.626	6819.5
909.862	6770.5
910.099	6677.5
910.335	6738.5
910.572	6623.5
910.808	6670.5
911.045	6623.5
911.281	6517.5
911.518	6643.5
911.754	6464.5
911.99	6488.5
912.226	6427.5
912.463	6347.5
912.699	6273.5
912.935	6244.5
913.171	6280.5
913.407	6216.5
913.643	6187.5
913.879	6108.5
914.114	6045.5
914.35	5966.5
914.586	5910.5
914.822	5875.5
915.057	5958.5
915.293	5811.5
915.529	5758.5
915.764	5856.5
916	5758.5
916.235	5769.5
916.471	5804.5
916.706	5698.5
916.941	5694.5
917.177	5668.5
917.412	5719.5
917.647	5713.5
917.882	5638.5
918.117	5715.5
918.352	5616.5
918.588	5656.5
918.823	5565.5
919.057	5477.5
919.292	5413.5
919.527	5457.5
919.762	5328.5
919.997	5311.5
920.232	5261.5
920.466	5244.5
920.701	5121.5
920.935	5108.5
921.17	5079.5
921.405	5025.5
921.639	5101.5
921.873	5059.5
922.108	5063.5
922.342	5019.5
922.576	4953.5
922.811	4934.5
923.045	4934.5
923.279	4972.5
923.513	4850.5
923.747	4908.5
923.981	4873.5
924.215	4792.5
924.449	4810.5
924.683	4762.5
924.917	4713.5
925.151	4684.5
925.385	4716.5
925.618	4690.5
925.852	4686.5
926.086	4553.5
926.319	4643.5
926.553	4658.5
926.786	4578.5
927.02	4566.5
927.253	4590.5
927.486	4629.5
927.72	4552.5
927.953	4583.5
928.186	4523.5
928.42	4580.5
928.653	4488.5
928.886	4457.5
929.119	4463.5
929.352	4449.5
929.585	4447.5
929.818	4391.5
930.051	4354.5
930.284	4355.5
930.516	4228.5
930.749	4327.5
930.982	4293.5
931.215	4214.5
931.447	4208.5
931.68	4141.5
931.912	4172.5
932.145	4176.5
932.377	4175.5
932.61	4237.5
932.842	4082.5
933.074	4166.5
933.307	4109.5
933.539	4166.5
933.771	4167.5
934.003	4130.5
934.236	4175.5
934.468	4221.5
934.7	4064.5
934.932	4124.5
935.164	4082.5
935.395	4070.5
935.627	4053.5
935.859	4026.5
936.091	3981.5
936.323	4027.5
936.554	4057.5
936.786	3993.5
937.017	3939.5
937.249	3989.5
937.481	3858.5
937.712	3965.5
937.943	3937.5
938.175	3891.5
938.406	3876.5
938.637	3961.5
938.869	3878.5
939.1	3929.5
939.331	3834.5
939.562	3859.5
939.793	3860.5
940.024	3867.5
940.255	3847.5
940.486	3801.5
940.717	3775.5
940.948	3757.5
941.179	3715.5
941.409	3712.5
941.64	3713.5
941.871	3777.5
942.102	3661.5
942.332	3694.5
942.563	3774.5
942.793	3722.5
943.024	3640.5
943.254	3685.5
943.484	3752.5
943.715	3775.5
943.945	3719.5
944.175	3626.5
944.405	3632.5
944.636	3651.5
944.866	3652.5
945.096	3684.5
945.326	3605.5
945.556	3657.5
945.786	3656.5
946.016	3586.5
946.245	3516.5
946.475	3530.5
946.705	3493.5
946.935	3494.5
947.164	3452.5
947.394	3421.5
947.624	3454.5
947.853	3478.5
948.083	3429.5
948.312	3395.5
948.542	3348.5
948.771	3363.5
949	3308.5
949.23	3338.5
949.459	3349.5
949.688	3406.5
949.917	3346.5
950.146	3352.5
950.375	3405.5
950.604	3272.5
950.833	3373.5
951.062	3367.5
951.291	3351.5
951.52	3238.5
951.749	3273.5
951.978	3250.5
952.206	3287.5
952.435	3299.5
952.664	3258.5
952.892	3253.5
953.121	3266.5
953.349	3231.5
953.578	3244.5
953.806	3170.5
954.035	3134.5
954.263	3168.5
954.491	3143.5
954.719	3185.5
954.948	3089.5
955.176	3090.5
955.404	3019.5
955.632	3082.5
955.86	3111.5
956.088	3077.5
956.316	3076.5
956.544	3081.5
956.772	3050.5
956.999	3004.5
957.227	3076.5
957.455	2956.5
957.683	2985.5
957.91	2932.5
958.138	2916.5
958.365	2929.5
958.593	2943.5
958.82	2828.5
959.048	2892.5
959.275	2899.5
959.502	2866.5
959.73	2853.5
959.957	2883.5
960.184	2877.5
960.411	2819.5
960.638	2925.5
960.865	2850.5
961.092	2891.5
961.319	2802.5
961.546	2847.5
961.773	2848.5
962	2797.5
962.227	2856.5
962.454	2848.5
962.68	2794.5
962.907	2820.5
963.134	2729.5
963.36	2785.5
963.587	2747.5
963.813	2691.5
964.04	2710.5
964.266	2643.5
964.493	2722.5
964.719	2727.5
964.945	2713.5
965.171	2615.5
965.398	2622.5
965.624	2645.5
965.85	2582.5
966.076	2559.5
966.302	2616.5
966.528	2588.5
966.754	2573.5
966.98	2612.5
967.206	2565.5
967.431	2485.5
967.657	2572.5
967.883	2564.5
968.109	2526.5
968.334	2529.5
968.56	2472.5
968.785	2486.5
969.011	2466.5
969.236	2531.5
969.462	2478.5
969.687	2459.5
969.912	2523.5
970.138	2500.5
970.363	2494.5
970.588	2456.5
970.813	2449.5
971.038	2370.5
971.263	2422.5
971.488	2396.5
971.713	2426.5
971.938	2410.5
972.163	2329.5
972.388	2356.5
972.613	2312.5
972.838	2325.5
973.062	2329.5
973.287	2328.5
973.512	2264.5
973.736	2293.5
973.961	2307.5
974.185	2289.5
974.41	2304.5
974.634	2199.5
974.858	2217.5
975.083	2268.5
975.307	2252.5
975.531	2205.5
975.755	2120.5
975.98	2128.5
976.204	2124.5
976.428	2118.5
976.652	2079.5
976.876	2112.5
977.1	2123.5
977.324	2082.5
977.547	2174.5
977.771	2136.5
977.995	2110.5
978.219	2027.5
978.442	2121.5
978.666	2117.5
978.89	2078.5
979.113	2078.5
979.337	2079.5
979.56	2015.5
979.783	2104.5
980.007	2000.5
980.23	2010.5
980.453	1963.5
980.677	2019.5
980.9	2013.5
981.123	1945.5
981.346	2023.5
981.569	1985.5
981.792	1992.5
982.015	1935.5
982.238	1964.5
982.461	1955.5
982.684	1910.5
982.907	1887.5
983.129	1899.5
983.352	1927.5
983.575	1901.5
983.797	1896.5
984.02	1895.5
984.242	1883.5
984.465	1881.5
984.687	1900.5
984.91	1931.5
985.132	1847.5
985.354	1877.5
985.577	1868.5
985.799	1818.5
986.021	1788.5
986.243	1789.5
986.465	1813.5
986.687	1847.5
986.909	1903.5
987.131	1825.5
987.353	1756.5
987.575	1822.5
987.797	1789.5
988.019	1746.5
988.241	1801.5
988.462	1733.5
988.684	1772.5
988.906	1804.5
989.127	1834.5
989.349	1729.5
989.57	1737.5
989.792	1811.5
990.013	1779.5
990.234	1769.5
990.456	1813.5
990.677	1788.5
990.898	1729.5
991.119	1746.5
991.341	1746.5
991.562	1694.5
991.783	1736.5
992.004	1643.5
992.225	1639.5
992.446	1687.5
992.667	1605.5
992.887	1689.5
993.108	1614.5
993.329	1706.5
993.55	1651.5
993.77	1557.5
993.991	1606.5
994.212	1641.5
994.432	1627.5
994.653	1639.5
994.873	1636.5
995.093	1500.5
995.314	1566.5
995.534	1611.5
995.754	1603.5
995.975	1646.5
996.195	1542.5
996.415	1584.5
996.635	1579.5
996.855	1574.5
997.075	1551.5
997.295	1566.5
997.515	1531.5
997.735	1567.5
997.955	1546.5
998.174	1523.5
998.394	1523.5
998.614	1573.5
998.834	1505.5
999.053	1566.5
999.273	1544.5
999.492	1596.5
999.712	1536.5
999.931	1479.5
1000.151	1515.5
1000.37	1524.5
1000.589	1583.5
1000.809	1484.5
1001.028	1616.5
1001.247	1533.5
1001.466	1433.5
1001.685	1584.5
1001.904	1519.5
1002.123	1518.5
1002.342	1490.5
1002.561	1480.5
1002.78	1491.5
1002.999	1532.5
1003.218	1467.5
1003.436	1469.5
1003.655	1523.5
1003.874	1469.5
1004.092	1458.5
1004.311	1501.5
1004.53	1455.5
1004.748	1560.5
1004.966	1441.5
1005.185	1512.5
1005.403	1524.5
1005.622	1466.5
1005.84	1521.5
1006.058	1442.5
1006.276	1464.5
1006.494	1852.5
1006.712	1459.5
1006.931	1511.5
1007.149	1421.5
1007.367	1434.5
1007.584	1473.5
1007.802	1478.5
1008.02	1426.5
1008.238	1523.5
1008.456	1534.5
1008.673	1396.5
1008.891	1489.5
1009.109	1435.5
1009.326	1502.5
1009.544	1579.5
1009.761	1446.5
1009.979	1564.5
1010.196	1528.5
1010.413	1616.5
1010.631	1641.5
1010.848	1645.5
1011.065	1673.5
1011.282	1631.5
1011.5	1562.5
1011.717	1662.5
1011.934	1615.5
1012.151	1637.5
1012.368	1617.5
1012.585	1539.5
1012.801	1590.5
1013.018	1552.5
1013.235	1508.5
1013.452	1525.5
1013.669	1558.5
1013.885	1524.5
1014.102	1587.5
1014.318	1544.5
1014.535	1491.5
1014.751	1519.5
1014.968	1512.5
1015.184	1533.5
1015.401	1481.5
1015.617	1473.5
1015.833	1445.5
1016.049	1438.5
1016.266	1411.5
1016.482	1389.5
1016.698	1368.5
1016.914	1418.5
1017.13	1358.5
1017.346	1373.5
1017.562	1418.5
1017.778	1354.5
1017.993	1308.5
1018.209	1365.5
1018.425	1357.5
1018.641	1314.5
1018.856	1285.5
1019.072	1313.5
1019.288	1365.5
1019.503	1307.5
1019.719	1216.5
1019.934	1265.5
1020.149	1327.5
1020.365	1289.5
1020.58	1227.5
1020.795	1277.5
1021.011	1193.5
1021.226	1175.5
1021.441	1229.5
1021.656	1142.5
1021.871	1090.5
1022.086	1091.5
1022.301	1086.5
1022.516	1061.5
1022.731	1147.5
1022.946	1033.5
1023.16	1016.5
1023.375	996.5
1023.59	981.5
1023.804	963.5
1024.019	1068.5
1024.234	932.5
1024.448	977.5
1024.663	927.5
1024.877	929.5
1025.092	917.5
1025.306	972.5
1025.52	866.5
1025.734	942.5
1025.949	854.5
1026.163	842.5
1026.377	783.5
1026.591	839.5
1026.805	754.5
1027.019	780.5
1027.233	731.5
1027.447	691.5
1027.661	803.5
1027.875	725.5
1028.088	730.5
1028.302	658.5
1028.516	664.5
1028.73	661.5
1028.943	657.5
1029.157	618.5
1029.37	579.5
1029.584	-3.5
1029.797	-2.5
1030.011	0.5
1030.224	-0.5
