Data from QEP037381__194__14-58-35-844.txt Node

Date: Fri Dec 16 14:58:35 EST 2022
User: dcclab
Spectrometer: QEP03738
Trigger mode: 4
Integration Time (sec): 1.000000E1
Scans to average: 1
Electric dark correction enabled: true
Nonlinearity correction enabled: false
Boxcar width: 0
XAxis mode: Wavelengths
Number of Pixels in Spectrum: 1044
>>>>>Begin Spectral Data<<<<<
784.041	13.38
784.3	0.38
784.558	-3.62
784.817	-4.62
785.075	111550.38
785.334	19761.38
785.592	9355.38
785.851	6494.38
786.109	4908.38
786.368	3847.38
786.626	3080.38
786.884	2539.38
787.143	2139.38
787.401	1780.38
787.659	1586.38
787.917	1344.38
788.175	1240.38
788.433	1092.38
788.691	978.38
788.949	891.38
789.207	872.38
789.465	769.38
789.723	735.38
789.98	653.38
790.238	704.38
790.496	660.38
790.753	639.38
791.011	683.38
791.268	609.38
791.526	591.38
791.783	609.38
792.041	574.38
792.298	506.38
792.556	576.38
792.813	546.38
793.07	525.38
793.327	516.38
793.584	591.38
793.841	511.38
794.099	548.38
794.356	588.38
794.613	505.38
794.869	530.38
795.126	499.38
795.383	466.38
795.64	499.38
795.897	465.38
796.153	521.38
796.41	522.38
796.667	497.38
796.923	502.38
797.18	509.38
797.436	549.38
797.693	496.38
797.949	575.38
798.206	593.38
798.462	512.38
798.718	567.38
798.974	546.38
799.231	618.38
799.487	579.38
799.743	626.38
799.999	646.38
800.255	659.38
800.511	660.38
800.767	724.38
801.023	734.38
801.279	780.38
801.534	857.38
801.79	934.38
802.046	1051.38
802.302	1268.38
802.557	1536.38
802.813	1985.38
803.068	2614.38
803.324	3659.38
803.579	5233.38
803.835	7258.38
804.09	9962.38
804.345	13198.38
804.601	16742.38
804.856	20291.38
805.111	23409.38
805.366	26009.38
805.621	27791.38
805.876	29126.38
806.131	29896.38
806.386	30543.38
806.641	31095.38
806.896	31748.38
807.151	32286.38
807.406	32626.38
807.661	33368.38
807.915	33941.38
808.17	34629.38
808.425	34889.38
808.679	35042.38
808.934	35794.38
809.188	35920.38
809.443	36195.38
809.697	36746.38
809.951	36992.38
810.206	37244.38
810.46	37701.38
810.714	37974.38
810.968	38273.38
811.223	38479.38
811.477	39101.38
811.731	39340.38
811.985	39476.38
812.239	39705.38
812.493	40006.38
812.747	40215.38
813	40271.38
813.254	40547.38
813.508	40763.38
813.762	40776.38
814.015	40885.38
814.269	41301.38
814.522	41795.38
814.776	42222.38
815.03	42754.38
815.283	43501.38
815.536	44094.38
815.79	44755.38
816.043	45260.38
816.296	46006.38
816.55	46525.38
816.803	47095.38
817.056	47731.38
817.309	47965.38
817.562	48612.38
817.815	49101.38
818.068	49383.38
818.321	49921.38
818.574	50619.38
818.827	51166.38
819.079	51769.38
819.332	52749.38
819.585	53294.38
819.838	53910.38
820.09	54312.38
820.343	54727.38
820.595	55044.38
820.848	55572.38
821.1	55639.38
821.353	55685.38
821.605	55712.38
821.857	55715.38
822.11	55520.38
822.362	55210.38
822.614	55414.38
822.866	55278.38
823.118	55211.38
823.37	55552.38
823.622	55614.38
823.874	55743.38
824.126	56048.38
824.378	56063.38
824.63	56271.38
824.882	56373.38
825.134	56323.38
825.385	56442.38
825.637	56444.38
825.888	56356.38
826.14	56041.38
826.392	56058.38
826.643	55542.38
826.895	55487.38
827.146	55199.38
827.397	55128.38
827.649	55207.38
827.9	55085.38
828.151	55393.38
828.402	55526.38
828.653	55672.38
828.905	55703.38
829.156	55856.38
829.407	55836.38
829.658	55900.38
829.909	55877.38
830.159	55834.38
830.41	55582.38
830.661	55331.38
830.912	55022.38
831.162	54846.38
831.413	54677.38
831.664	54735.38
831.914	54611.38
832.165	54645.38
832.415	54590.38
832.666	54438.38
832.916	54598.38
833.167	54531.38
833.417	54533.38
833.667	54378.38
833.917	54331.38
834.168	54009.38
834.418	54008.38
834.668	53760.38
834.918	53331.38
835.168	53265.38
835.418	53227.38
835.668	53045.38
835.918	52920.38
836.167	52728.38
836.417	52749.38
836.667	52675.38
836.917	52568.38
837.166	52510.38
837.416	52600.38
837.666	52659.38
837.915	52348.38
838.165	52309.38
838.414	52265.38
838.663	52069.38
838.913	52106.38
839.162	51912.38
839.411	51895.38
839.661	51611.38
839.91	51597.38
840.159	51259.38
840.408	51314.38
840.657	51300.38
840.906	51330.38
841.155	51424.38
841.404	51451.38
841.653	51507.38
841.902	51559.38
842.15	51611.38
842.399	51498.38
842.648	51528.38
842.897	51277.38
843.145	51039.38
843.394	50731.38
843.642	50449.38
843.891	50186.38
844.139	50057.38
844.388	49876.38
844.636	49402.38
844.884	49550.38
845.133	49430.38
845.381	49380.38
845.629	49528.38
845.877	49262.38
846.125	49355.38
846.373	49184.38
846.621	48863.38
846.869	48766.38
847.117	48553.38
847.365	48356.38
847.613	47973.38
847.861	47970.38
848.108	47874.38
848.356	47742.38
848.604	47669.38
848.851	47838.38
849.099	47614.38
849.346	47886.38
849.594	47994.38
849.841	48228.38
850.089	48338.38
850.336	48314.38
850.583	48397.38
850.831	47787.38
851.078	47662.38
851.325	47545.38
851.572	47491.38
851.819	47157.38
852.066	46547.38
852.313	45981.38
852.56	45794.38
852.807	45560.38
853.054	45375.38
853.301	45206.38
853.548	45442.38
853.794	45308.38
854.041	45681.38
854.288	45856.38
854.534	46137.38
854.781	46137.38
855.028	45826.38
855.274	45841.38
855.52	45500.38
855.767	45483.38
856.013	45483.38
856.26	45726.38
856.506	45010.38
856.752	44804.38
856.998	44967.38
857.244	45193.38
857.49	45256.38
857.736	45265.38
857.982	45299.38
858.228	45116.38
858.474	44850.38
858.72	44518.38
858.966	44225.38
859.212	43773.38
859.458	43483.38
859.703	42962.38
859.949	42612.38
860.195	42349.38
860.44	42186.38
860.686	41958.38
860.931	41981.38
861.177	41690.38
861.422	41426.38
861.667	41470.38
861.913	41447.38
862.158	41563.38
862.403	41722.38
862.648	41665.38
862.893	41638.38
863.138	41710.38
863.384	41531.38
863.629	41465.38
863.873	41526.38
864.118	41550.38
864.363	41263.38
864.608	41017.38
864.853	40897.38
865.098	40726.38
865.342	40503.38
865.587	40335.38
865.832	40374.38
866.076	40271.38
866.321	40163.38
866.565	40083.38
866.81	39682.38
867.054	39547.38
867.298	39505.38
867.543	39544.38
867.787	39359.38
868.031	39284.38
868.275	39166.38
868.519	39146.38
868.764	39014.38
869.008	38857.38
869.252	38721.38
869.496	38578.38
869.739	38577.38
869.983	38628.38
870.227	38609.38
870.471	38349.38
870.715	38537.38
870.958	38542.38
871.202	38787.38
871.446	38708.38
871.689	38752.38
871.933	38693.38
872.176	38706.38
872.42	38553.38
872.663	38522.38
872.906	38409.38
873.15	38247.38
873.393	38087.38
873.636	37890.38
873.879	37608.38
874.122	37376.38
874.366	36920.38
874.609	36623.38
874.852	36348.38
875.095	36196.38
875.337	36104.38
875.58	35866.38
875.823	35707.38
876.066	35650.38
876.309	35627.38
876.551	35366.38
876.794	35063.38
877.037	35259.38
877.279	34972.38
877.522	35160.38
877.764	35102.38
878.007	35074.38
878.249	34952.38
878.491	34900.38
878.734	34946.38
878.976	34709.38
879.218	34555.38
879.46	34375.38
879.702	34074.38
879.945	34016.38
880.187	33692.38
880.429	33360.38
880.671	33190.38
880.912	33017.38
881.154	33049.38
881.396	32985.38
881.638	33030.38
881.88	32972.38
882.121	32803.38
882.363	32763.38
882.605	32702.38
882.846	32559.38
883.088	32578.38
883.329	32480.38
883.571	32421.38
883.812	32523.38
884.053	32918.38
884.295	33394.38
884.536	33505.38
884.777	33282.38
885.018	33084.38
885.259	33015.38
885.5	32927.38
885.742	33097.38
885.982	32882.38
886.223	32626.38
886.464	32407.38
886.705	32176.38
886.946	32032.38
887.187	31633.38
887.428	31326.38
887.668	30925.38
887.909	30679.38
888.15	30265.38
888.39	30131.38
888.631	29925.38
888.871	29641.38
889.111	29667.38
889.352	29493.38
889.592	29114.38
889.833	29014.38
890.073	28791.38
890.313	28696.38
890.553	28224.38
890.793	28254.38
891.033	28173.38
891.273	28014.38
891.513	27932.38
891.753	27797.38
891.993	27793.38
892.233	27799.38
892.473	27979.38
892.713	27837.38
892.952	27871.38
893.192	27878.38
893.432	27834.38
893.671	27795.38
893.911	27698.38
894.15	27463.38
894.39	27283.38
894.629	27155.38
894.869	27200.38
895.108	26854.38
895.347	26705.38
895.587	26660.38
895.826	26560.38
896.065	26485.38
896.304	26508.38
896.543	26488.38
896.782	26225.38
897.021	26251.38
897.26	26248.38
897.499	26118.38
897.738	25939.38
897.977	25848.38
898.216	25708.38
898.454	25426.38
898.693	25303.38
898.932	25135.38
899.17	24988.38
899.409	24994.38
899.647	24925.38
899.886	24921.38
900.124	25013.38
900.363	24919.38
900.601	24895.38
900.839	24922.38
901.078	24960.38
901.316	25029.38
901.554	25033.38
901.792	25076.38
902.03	24977.38
902.268	25011.38
902.506	24935.38
902.744	24746.38
902.982	24608.38
903.22	24453.38
903.458	24143.38
903.695	23784.38
903.933	23487.38
904.171	23171.38
904.409	22944.38
904.646	22689.38
904.884	22345.38
905.121	22119.38
905.359	21914.38
905.596	21831.38
905.833	21546.38
906.071	21536.38
906.308	21381.38
906.545	21427.38
906.783	21249.38
907.02	21264.38
907.257	21156.38
907.494	21150.38
907.731	21110.38
907.968	20908.38
908.205	20776.38
908.442	20640.38
908.679	20507.38
908.915	20384.38
909.152	20212.38
909.389	19981.38
909.626	19946.38
909.862	19782.38
910.099	19780.38
910.335	19683.38
910.572	19522.38
910.808	19474.38
911.045	19408.38
911.281	19299.38
911.518	19325.38
911.754	19095.38
911.99	19154.38
912.226	18800.38
912.463	18792.38
912.699	18677.38
912.935	18523.38
913.171	18296.38
913.407	18162.38
913.643	18118.38
913.879	17855.38
914.114	17711.38
914.35	17594.38
914.586	17416.38
914.822	17320.38
915.057	17234.38
915.293	16911.38
915.529	16900.38
915.764	17057.38
916	16933.38
916.235	16830.38
916.471	16818.38
916.706	16690.38
916.941	16627.38
917.177	16705.38
917.412	16792.38
917.647	16587.38
917.882	16588.38
918.117	16568.38
918.352	16567.38
918.588	16508.38
918.823	16285.38
919.057	16129.38
919.292	16011.38
919.527	15894.38
919.762	15683.38
919.997	15490.38
920.232	15341.38
920.466	15316.38
920.701	15038.38
920.935	15003.38
921.17	14923.38
921.405	14747.38
921.639	14766.38
921.873	14648.38
922.108	14684.38
922.342	14584.38
922.576	14397.38
922.811	14495.38
923.045	14434.38
923.279	14501.38
923.513	14185.38
923.747	14179.38
923.981	14070.38
924.215	14055.38
924.449	13926.38
924.683	13735.38
924.917	13785.38
925.151	13704.38
925.385	13767.38
925.618	13619.38
925.852	13551.38
926.086	13491.38
926.319	13523.38
926.553	13442.38
926.786	13472.38
927.02	13407.38
927.253	13393.38
927.486	13417.38
927.72	13279.38
927.953	13345.38
928.186	13309.38
928.42	13162.38
928.653	13096.38
928.886	12969.38
929.119	13069.38
929.352	12955.38
929.585	12914.38
929.818	12734.38
930.051	12767.38
930.284	12565.38
930.516	12410.38
930.749	12359.38
930.982	12409.38
931.215	12253.38
931.447	12113.38
931.68	12128.38
931.912	12111.38
932.145	12017.38
932.377	12078.38
932.61	12211.38
932.842	12038.38
933.074	12078.38
933.307	11974.38
933.539	12041.38
933.771	12131.38
934.003	11967.38
934.236	12048.38
934.468	12099.38
934.7	11841.38
934.932	11942.38
935.164	11866.38
935.395	11705.38
935.627	11710.38
935.859	11711.38
936.091	11587.38
936.323	11654.38
936.554	11654.38
936.786	11537.38
937.017	11451.38
937.249	11464.38
937.481	11328.38
937.712	11398.38
937.943	11339.38
938.175	11283.38
938.406	11285.38
938.637	11269.38
938.869	11217.38
939.1	11192.38
939.331	11110.38
939.562	11105.38
939.793	11016.38
940.024	11081.38
940.255	10992.38
940.486	10829.38
940.717	10908.38
940.948	10765.38
941.179	10791.38
941.409	10762.38
941.64	10762.38
941.871	10633.38
942.102	10651.38
942.332	10716.38
942.563	10695.38
942.793	10695.38
943.024	10603.38
943.254	10679.38
943.484	10680.38
943.715	10684.38
943.945	10605.38
944.175	10549.38
944.405	10489.38
944.636	10554.38
944.866	10568.38
945.096	10465.38
945.326	10443.38
945.556	10388.38
945.786	10385.38
946.016	10267.38
946.245	10152.38
946.475	10138.38
946.705	10130.38
946.935	10030.38
947.164	9963.38
947.394	9836.38
947.624	9911.38
947.853	9843.38
948.083	9748.38
948.312	9694.38
948.542	9678.38
948.771	9546.38
949	9532.38
949.23	9538.38
949.459	9612.38
949.688	9610.38
949.917	9475.38
950.146	9522.38
950.375	9595.38
950.604	9442.38
950.833	9473.38
951.062	9511.38
951.291	9443.38
951.52	9378.38
951.749	9403.38
951.978	9341.38
952.206	9189.38
952.435	9217.38
952.664	9141.38
952.892	9188.38
953.121	9128.38
953.349	9076.38
953.578	9040.38
953.806	8986.38
954.035	8893.38
954.263	8951.38
954.491	8802.38
954.719	8835.38
954.948	8755.38
955.176	8706.38
955.404	8608.38
955.632	8677.38
955.86	8617.38
956.088	8644.38
956.316	8569.38
956.544	8482.38
956.772	8431.38
956.999	8392.38
957.227	8347.38
957.455	8243.38
957.683	8311.38
957.91	8161.38
958.138	8118.38
958.365	8059.38
958.593	8028.38
958.82	8007.38
959.048	8022.38
959.275	7993.38
959.502	7891.38
959.73	7860.38
959.957	7916.38
960.184	7907.38
960.411	7807.38
960.638	7934.38
960.865	7823.38
961.092	7790.38
961.319	7694.38
961.546	7763.38
961.773	7759.38
962	7718.38
962.227	7740.38
962.454	7695.38
962.68	7676.38
962.907	7637.38
963.134	7526.38
963.36	7546.38
963.587	7581.38
963.813	7388.38
964.04	7355.38
964.266	7240.38
964.493	7359.38
964.719	7225.38
964.945	7237.38
965.171	7119.38
965.398	7140.38
965.624	7168.38
965.85	7099.38
966.076	6999.38
966.302	7062.38
966.528	6990.38
966.754	6960.38
966.98	6923.38
967.206	6873.38
967.431	6816.38
967.657	6881.38
967.883	6881.38
968.109	6827.38
968.334	6715.38
968.56	6746.38
968.785	6713.38
969.011	6659.38
969.236	6729.38
969.462	6619.38
969.687	6624.38
969.912	6607.38
970.138	6660.38
970.363	6518.38
970.588	6555.38
970.813	6423.38
971.038	6397.38
971.263	6419.38
971.488	6388.38
971.713	6434.38
971.938	6401.38
972.163	6276.38
972.388	6253.38
972.613	6245.38
972.838	6199.38
973.062	6174.38
973.287	6129.38
973.512	6075.38
973.736	6066.38
973.961	6029.38
974.185	6010.38
974.41	6010.38
974.634	5859.38
974.858	5891.38
975.083	5840.38
975.307	5906.38
975.531	5787.38
975.755	5735.38
975.98	5729.38
976.204	5605.38
976.428	5627.38
976.652	5562.38
976.876	5539.38
977.1	5562.38
977.324	5583.38
977.547	5531.38
977.771	5550.38
977.995	5468.38
978.219	5426.38
978.442	5507.38
978.666	5438.38
978.89	5408.38
979.113	5371.38
979.337	5301.38
979.56	5329.38
979.783	5363.38
980.007	5302.38
980.23	5268.38
980.453	5163.38
980.677	5240.38
980.9	5161.38
981.123	5030.38
981.346	5200.38
981.569	5100.38
981.792	5097.38
982.015	5043.38
982.238	4958.38
982.461	4992.38
982.684	4909.38
982.907	4869.38
983.129	4830.38
983.352	4890.38
983.575	4855.38
983.797	4833.38
984.02	4734.38
984.242	4757.38
984.465	4703.38
984.687	4751.38
984.91	4702.38
985.132	4679.38
985.354	4716.38
985.577	4624.38
985.799	4643.38
986.021	4540.38
986.243	4528.38
986.465	4544.38
986.687	4514.38
986.909	4568.38
987.131	4478.38
987.353	4425.38
987.575	4467.38
987.797	4421.38
988.019	4319.38
988.241	4368.38
988.462	4322.38
988.684	4382.38
988.906	4391.38
989.127	4338.38
989.349	4289.38
989.57	4293.38
989.792	4320.38
990.013	4297.38
990.234	4299.38
990.456	4281.38
990.677	4229.38
990.898	4169.38
991.119	4182.38
991.341	4207.38
991.562	4076.38
991.783	4125.38
992.004	4045.38
992.225	4039.38
992.446	4079.38
992.667	3925.38
992.887	3958.38
993.108	3903.38
993.329	3989.38
993.55	3921.38
993.77	3804.38
993.991	3799.38
994.212	3829.38
994.432	3784.38
994.653	3787.38
994.873	3789.38
995.093	3667.38
995.314	3711.38
995.534	3712.38
995.754	3697.38
995.975	3756.38
996.195	3621.38
996.415	3673.38
996.635	3614.38
996.855	3677.38
997.075	3559.38
997.295	3573.38
997.515	3581.38
997.735	3579.38
997.955	3551.38
998.174	3537.38
998.394	3490.38
998.614	3497.38
998.834	3520.38
999.053	3539.38
999.273	3475.38
999.492	3541.38
999.712	3433.38
999.931	3420.38
1000.151	3423.38
1000.37	3371.38
1000.589	3431.38
1000.809	3315.38
1001.028	3372.38
1001.247	3369.38
1001.466	3213.38
1001.685	3364.38
1001.904	3274.38
1002.123	3217.38
1002.342	3197.38
1002.561	3160.38
1002.78	3194.38
1002.999	3225.38
1003.218	3149.38
1003.436	3084.38
1003.655	3143.38
1003.874	3068.38
1004.092	3075.38
1004.311	3077.38
1004.53	3076.38
1004.748	3099.38
1004.966	3034.38
1005.185	3033.38
1005.403	3030.38
1005.622	3009.38
1005.84	3055.38
1006.058	3005.38
1006.276	2999.38
1006.494	3467.38
1006.712	3000.38
1006.931	3037.38
1007.149	2934.38
1007.367	2941.38
1007.584	2997.38
1007.802	2995.38
1008.02	2918.38
1008.238	3022.38
1008.456	3067.38
1008.673	2907.38
1008.891	2997.38
1009.109	2986.38
1009.326	3061.38
1009.544	3179.38
1009.761	3070.38
1009.979	3200.38
1010.196	3264.38
1010.413	3374.38
1010.631	3474.38
1010.848	3521.38
1011.065	3562.38
1011.282	3499.38
1011.5	3378.38
1011.717	3522.38
1011.934	3394.38
1012.151	3473.38
1012.368	3406.38
1012.585	3350.38
1012.801	3391.38
1013.018	3367.38
1013.235	3341.38
1013.452	3316.38
1013.669	3339.38
1013.885	3364.38
1014.102	3430.38
1014.318	3374.38
1014.535	3297.38
1014.751	3314.38
1014.968	3293.38
1015.184	3301.38
1015.401	3189.38
1015.617	3187.38
1015.833	3142.38
1016.049	3131.38
1016.266	3091.38
1016.482	3067.38
1016.698	2946.38
1016.914	3003.38
1017.13	2917.38
1017.346	2866.38
1017.562	2972.38
1017.778	2870.38
1017.993	2844.38
1018.209	2898.38
1018.425	2847.38
1018.641	2786.38
1018.856	2814.38
1019.072	2820.38
1019.288	2866.38
1019.503	2803.38
1019.719	2689.38
1019.934	2709.38
1020.149	2721.38
1020.365	2701.38
1020.58	2589.38
1020.795	2666.38
1021.011	2542.38
1021.226	2496.38
1021.441	2515.38
1021.656	2414.38
1021.871	2317.38
1022.086	2304.38
1022.301	2262.38
1022.516	2254.38
1022.731	2272.38
1022.946	2193.38
1023.16	2152.38
1023.375	2074.38
1023.59	2062.38
1023.804	2011.38
1024.019	2105.38
1024.234	1926.38
1024.448	1965.38
1024.663	1894.38
1024.877	1838.38
1025.092	1867.38
1025.306	1856.38
1025.52	1759.38
1025.734	1789.38
1025.949	1711.38
1026.163	1675.38
1026.377	1608.38
1026.591	1629.38
1026.805	1528.38
1027.019	1502.38
1027.233	1462.38
1027.447	1413.38
1027.661	1488.38
1027.875	1438.38
1028.088	1408.38
1028.302	1322.38
1028.516	1272.38
1028.73	1273.38
1028.943	1247.38
1029.157	1159.38
1029.37	1079.38
1029.584	-0.62
1029.797	-2.62
1030.011	-1.62
1030.224	-0.62
