Data from QEP037381__191__14-58-05-844.txt Node

Date: Fri Dec 16 14:58:05 EST 2022
User: dcclab
Spectrometer: QEP03738
Trigger mode: 4
Integration Time (sec): 1.000000E1
Scans to average: 1
Electric dark correction enabled: true
Nonlinearity correction enabled: false
Boxcar width: 0
XAxis mode: Wavelengths
Number of Pixels in Spectrum: 1044
>>>>>Begin Spectral Data<<<<<
784.041	14.5
784.3	0.5
784.558	0.5
784.817	-1.5
785.075	110295.5
785.334	19742.5
785.592	9439.5
785.851	6572.5
786.109	4952.5
786.368	3867.5
786.626	3087.5
786.884	2581.5
787.143	2158.5
787.401	1796.5
787.659	1625.5
787.917	1388.5
788.175	1247.5
788.433	1123.5
788.691	989.5
788.949	911.5
789.207	866.5
789.465	750.5
789.723	720.5
789.98	676.5
790.238	726.5
790.496	672.5
790.753	638.5
791.011	681.5
791.268	615.5
791.526	609.5
791.783	604.5
792.041	594.5
792.298	497.5
792.556	592.5
792.813	556.5
793.07	540.5
793.327	525.5
793.584	594.5
793.841	515.5
794.099	549.5
794.356	596.5
794.613	505.5
794.869	541.5
795.126	503.5
795.383	477.5
795.64	511.5
795.897	462.5
796.153	529.5
796.41	510.5
796.667	498.5
796.923	506.5
797.18	513.5
797.436	547.5
797.693	513.5
797.949	554.5
798.206	587.5
798.462	517.5
798.718	580.5
798.974	562.5
799.231	595.5
799.487	614.5
799.743	627.5
799.999	642.5
800.255	664.5
800.511	659.5
800.767	723.5
801.023	735.5
801.279	781.5
801.534	870.5
801.79	968.5
802.046	1075.5
802.302	1302.5
802.557	1547.5
802.813	2066.5
803.068	2687.5
803.324	3795.5
803.579	5324.5
803.835	7484.5
804.09	10353.5
804.345	13674.5
804.601	17348.5
804.856	21024.5
805.111	24123.5
805.366	26676.5
805.621	28750.5
805.876	29925.5
806.131	30883.5
806.386	31502.5
806.641	32125.5
806.896	32488.5
807.151	33167.5
807.406	33677.5
807.661	34310.5
807.915	34905.5
808.17	35512.5
808.425	35803.5
808.679	36091.5
808.934	36750.5
809.188	36851.5
809.443	37282.5
809.697	37673.5
809.951	38049.5
810.206	38434.5
810.46	38854.5
810.714	39032.5
810.968	39458.5
811.223	39763.5
811.477	39981.5
811.731	40549.5
811.985	40618.5
812.239	41056.5
812.493	41061.5
812.747	41277.5
813	41410.5
813.254	41674.5
813.508	41915.5
813.762	42083.5
814.015	42190.5
814.269	42623.5
814.522	43086.5
814.776	43429.5
815.03	44104.5
815.283	44748.5
815.536	45413.5
815.79	45903.5
816.043	46669.5
816.296	47330.5
816.55	47842.5
816.803	48510.5
817.056	49060.5
817.309	49675.5
817.562	49979.5
817.815	50394.5
818.068	50901.5
818.321	51380.5
818.574	51924.5
818.827	52571.5
819.079	53186.5
819.332	54184.5
819.585	54698.5
819.838	55564.5
820.09	55905.5
820.343	56297.5
820.595	56513.5
820.848	56909.5
821.1	57200.5
821.353	57182.5
821.605	57231.5
821.857	57078.5
822.11	57047.5
822.362	57000.5
822.614	56709.5
822.866	56743.5
823.118	56799.5
823.37	56901.5
823.622	57140.5
823.874	57398.5
824.126	57375.5
824.378	57530.5
824.63	57756.5
824.882	57837.5
825.134	57730.5
825.385	57840.5
825.637	57734.5
825.888	57707.5
826.14	57603.5
826.392	57336.5
826.643	56940.5
826.895	56868.5
827.146	56765.5
827.397	56559.5
827.649	56676.5
827.9	56549.5
828.151	56727.5
828.402	57144.5
828.653	57074.5
828.905	57314.5
829.156	57338.5
829.407	57315.5
829.658	57111.5
829.909	57452.5
830.159	57248.5
830.41	56888.5
830.661	56551.5
830.912	56498.5
831.162	56215.5
831.413	55945.5
831.664	55923.5
831.914	56098.5
832.165	55836.5
832.415	56044.5
832.666	56049.5
832.916	55985.5
833.167	55795.5
833.417	55940.5
833.667	55509.5
833.917	55712.5
834.168	55418.5
834.418	55200.5
834.668	55082.5
834.918	54657.5
835.168	54609.5
835.418	54380.5
835.668	54175.5
835.918	54074.5
836.167	54031.5
836.417	53920.5
836.667	53911.5
836.917	53706.5
837.166	53765.5
837.416	53734.5
837.666	53761.5
837.915	53707.5
838.165	53654.5
838.414	53467.5
838.663	53063.5
838.913	53191.5
839.162	53157.5
839.411	53031.5
839.661	52763.5
839.91	52624.5
840.159	52486.5
840.408	52367.5
840.657	52458.5
840.906	52340.5
841.155	52357.5
841.404	52351.5
841.653	52553.5
841.902	52437.5
842.15	52469.5
842.399	52637.5
842.648	52473.5
842.897	52354.5
843.145	52087.5
843.394	51720.5
843.642	51566.5
843.891	51227.5
844.139	50947.5
844.388	50843.5
844.636	50476.5
844.884	50509.5
845.133	50364.5
845.381	50279.5
845.629	50409.5
845.877	50197.5
846.125	50310.5
846.373	50042.5
846.621	49925.5
846.869	49670.5
847.117	49444.5
847.365	49311.5
847.613	49021.5
847.861	48813.5
848.108	48829.5
848.356	48733.5
848.604	48689.5
848.851	48760.5
849.099	48684.5
849.346	48762.5
849.594	48912.5
849.841	49130.5
850.089	49136.5
850.336	49118.5
850.583	49309.5
850.831	48782.5
851.078	48614.5
851.325	48342.5
851.572	48377.5
851.819	47887.5
852.066	47290.5
852.313	46782.5
852.56	46620.5
852.807	46199.5
853.054	46300.5
853.301	46101.5
853.548	46020.5
853.794	46135.5
854.041	46408.5
854.288	46666.5
854.534	46991.5
854.781	46748.5
855.028	46736.5
855.274	46705.5
855.52	46374.5
855.767	46206.5
856.013	46110.5
856.26	46423.5
856.506	45697.5
856.752	45610.5
856.998	45729.5
857.244	45844.5
857.49	45950.5
857.736	46060.5
857.982	45986.5
858.228	45770.5
858.474	45704.5
858.72	45304.5
858.966	45022.5
859.212	44588.5
859.458	44055.5
859.703	43660.5
859.949	43197.5
860.195	42864.5
860.44	42747.5
860.686	42542.5
860.931	42625.5
861.177	42376.5
861.422	42190.5
861.667	42257.5
861.913	42133.5
862.158	42423.5
862.403	42299.5
862.648	42322.5
862.893	42410.5
863.138	42279.5
863.384	42322.5
863.629	42165.5
863.873	42271.5
864.118	41995.5
864.363	41849.5
864.608	41741.5
864.853	41514.5
865.098	41303.5
865.342	41086.5
865.587	40922.5
865.832	40903.5
866.076	40787.5
866.321	40658.5
866.565	40494.5
866.81	40327.5
867.054	40344.5
867.298	40139.5
867.543	40040.5
867.787	39939.5
868.031	39851.5
868.275	39801.5
868.519	39602.5
868.764	39533.5
869.008	39394.5
869.252	39481.5
869.496	39132.5
869.739	39126.5
869.983	39100.5
870.227	39065.5
870.471	38848.5
870.715	39049.5
870.958	39194.5
871.202	39208.5
871.446	39242.5
871.689	39324.5
871.933	39134.5
872.176	39184.5
872.42	39180.5
872.663	39201.5
872.906	38986.5
873.15	38771.5
873.393	38597.5
873.636	38482.5
873.879	38129.5
874.122	37761.5
874.366	37366.5
874.609	37049.5
874.852	36955.5
875.095	36718.5
875.337	36466.5
875.58	36416.5
875.823	36238.5
876.066	36075.5
876.309	35967.5
876.551	35774.5
876.794	35671.5
877.037	35535.5
877.279	35396.5
877.522	35548.5
877.764	35581.5
878.007	35442.5
878.249	35524.5
878.491	35320.5
878.734	35359.5
878.976	35092.5
879.218	35077.5
879.46	34863.5
879.702	34711.5
879.945	34391.5
880.187	34013.5
880.429	33928.5
880.671	33660.5
880.912	33551.5
881.154	33503.5
881.396	33335.5
881.638	33382.5
881.88	33301.5
882.121	33285.5
882.363	33125.5
882.605	33238.5
882.846	32821.5
883.088	33028.5
883.329	32865.5
883.571	32971.5
883.812	32948.5
884.053	33283.5
884.295	33670.5
884.536	33761.5
884.777	33670.5
885.018	33347.5
885.259	33281.5
885.5	33250.5
885.742	33467.5
885.982	33068.5
886.223	32910.5
886.464	32814.5
886.705	32553.5
886.946	32469.5
887.187	31961.5
887.428	31699.5
887.668	31335.5
887.909	30885.5
888.15	30706.5
888.39	30572.5
888.631	30445.5
888.871	30137.5
889.111	29960.5
889.352	29810.5
889.592	29469.5
889.833	29293.5
890.073	29181.5
890.313	28952.5
890.553	28747.5
890.793	28687.5
891.033	28582.5
891.273	28352.5
891.513	28234.5
891.753	28277.5
891.993	28217.5
892.233	28247.5
892.473	28288.5
892.713	28208.5
892.952	28318.5
893.192	28196.5
893.432	28223.5
893.671	28127.5
893.911	27964.5
894.15	27927.5
894.39	27622.5
894.629	27508.5
894.869	27284.5
895.108	27153.5
895.347	26954.5
895.587	27000.5
895.826	26868.5
896.065	26663.5
896.304	26854.5
896.543	26786.5
896.782	26569.5
897.021	26546.5
897.26	26536.5
897.499	26405.5
897.738	26290.5
897.977	26112.5
898.216	25901.5
898.454	25643.5
898.693	25529.5
898.932	25448.5
899.17	25364.5
899.409	25184.5
899.647	25259.5
899.886	25248.5
900.124	25268.5
900.363	25030.5
900.601	25167.5
900.839	25092.5
901.078	25131.5
901.316	25186.5
901.554	25086.5
901.792	25306.5
902.03	25256.5
902.268	25205.5
902.506	25183.5
902.744	24988.5
902.982	24886.5
903.22	24571.5
903.458	24272.5
903.695	23981.5
903.933	23732.5
904.171	23449.5
904.409	23174.5
904.646	22876.5
904.884	22533.5
905.121	22534.5
905.359	22072.5
905.596	21900.5
905.833	21799.5
906.071	21756.5
906.308	21621.5
906.545	21611.5
906.783	21476.5
907.02	21447.5
907.257	21349.5
907.494	21308.5
907.731	21268.5
907.968	21211.5
908.205	21018.5
908.442	20949.5
908.679	20712.5
908.915	20573.5
909.152	20574.5
909.389	20235.5
909.626	20120.5
909.862	19940.5
910.099	20036.5
910.335	19883.5
910.572	19614.5
910.808	19742.5
911.045	19615.5
911.281	19585.5
911.518	19491.5
911.754	19340.5
911.99	19227.5
912.226	19084.5
912.463	18913.5
912.699	18778.5
912.935	18786.5
913.171	18470.5
913.407	18330.5
913.643	18320.5
913.879	18022.5
914.114	17892.5
914.35	17735.5
914.586	17618.5
914.822	17429.5
915.057	17471.5
915.293	17125.5
915.529	17129.5
915.764	17180.5
916	17087.5
916.235	17070.5
916.471	16995.5
916.706	16838.5
916.941	16861.5
917.177	16784.5
917.412	16821.5
917.647	16826.5
917.882	16754.5
918.117	16706.5
918.352	16688.5
918.588	16648.5
918.823	16389.5
919.057	16352.5
919.292	16127.5
919.527	16131.5
919.762	15813.5
919.997	15765.5
920.232	15440.5
920.466	15377.5
920.701	15212.5
920.935	15117.5
921.17	15047.5
921.405	15002.5
921.639	14978.5
921.873	14833.5
922.108	14827.5
922.342	14701.5
922.576	14566.5
922.811	14579.5
923.045	14581.5
923.279	14548.5
923.513	14329.5
923.747	14344.5
923.981	14223.5
924.215	14082.5
924.449	14109.5
924.683	13912.5
924.917	13872.5
925.151	13837.5
925.385	13783.5
925.618	13735.5
925.852	13717.5
926.086	13613.5
926.319	13604.5
926.553	13612.5
926.786	13597.5
927.02	13527.5
927.253	13567.5
927.486	13564.5
927.72	13430.5
927.953	13447.5
928.186	13353.5
928.42	13377.5
928.653	13300.5
928.886	13196.5
929.119	13174.5
929.352	13076.5
929.585	12934.5
929.818	12862.5
930.051	12788.5
930.284	12723.5
930.516	12488.5
930.749	12435.5
930.982	12479.5
931.215	12355.5
931.447	12222.5
931.68	12245.5
931.912	12191.5
932.145	12208.5
932.377	12152.5
932.61	12325.5
932.842	12056.5
933.074	12142.5
933.307	12126.5
933.539	12134.5
933.771	12124.5
934.003	12079.5
934.236	12099.5
934.468	12046.5
934.7	11995.5
934.932	12000.5
935.164	11827.5
935.395	11912.5
935.627	11839.5
935.859	11829.5
936.091	11727.5
936.323	11700.5
936.554	11701.5
936.786	11663.5
937.017	11563.5
937.249	11637.5
937.481	11353.5
937.712	11467.5
937.943	11380.5
938.175	11414.5
938.406	11334.5
938.637	11370.5
938.869	11320.5
939.1	11309.5
939.331	11173.5
939.562	11262.5
939.793	11223.5
940.024	11158.5
940.255	11064.5
940.486	10971.5
940.717	10879.5
940.948	10922.5
941.179	10792.5
941.409	10870.5
941.64	10810.5
941.871	10834.5
942.102	10767.5
942.332	10774.5
942.563	10829.5
942.793	10716.5
943.024	10713.5
943.254	10742.5
943.484	10783.5
943.715	10732.5
943.945	10675.5
944.175	10644.5
944.405	10629.5
944.636	10641.5
944.866	10712.5
945.096	10573.5
945.326	10551.5
945.556	10513.5
945.786	10488.5
946.016	10331.5
946.245	10240.5
946.475	10186.5
946.705	10144.5
946.935	10020.5
947.164	10048.5
947.394	9939.5
947.624	9928.5
947.853	9881.5
948.083	9814.5
948.312	9758.5
948.542	9723.5
948.771	9600.5
949	9673.5
949.23	9624.5
949.459	9667.5
949.688	9687.5
949.917	9562.5
950.146	9574.5
950.375	9615.5
950.604	9461.5
950.833	9611.5
951.062	9529.5
951.291	9451.5
951.52	9472.5
951.749	9365.5
951.978	9313.5
952.206	9264.5
952.435	9265.5
952.664	9270.5
952.892	9247.5
953.121	9138.5
953.349	9129.5
953.578	9101.5
953.806	9045.5
954.035	8943.5
954.263	8977.5
954.491	8900.5
954.719	8907.5
954.948	8789.5
955.176	8735.5
955.404	8712.5
955.632	8735.5
955.86	8655.5
956.088	8633.5
956.316	8617.5
956.544	8623.5
956.772	8467.5
956.999	8446.5
957.227	8471.5
957.455	8346.5
957.683	8279.5
957.91	8218.5
958.138	8126.5
958.365	8122.5
958.593	8146.5
958.82	8031.5
959.048	8069.5
959.275	8054.5
959.502	7978.5
959.73	7963.5
959.957	7954.5
960.184	7967.5
960.411	7844.5
960.638	7979.5
960.865	7838.5
961.092	7954.5
961.319	7787.5
961.546	7822.5
961.773	7851.5
962	7804.5
962.227	7841.5
962.454	7742.5
962.68	7687.5
962.907	7646.5
963.134	7617.5
963.36	7613.5
963.587	7644.5
963.813	7427.5
964.04	7460.5
964.266	7286.5
964.493	7419.5
964.719	7321.5
964.945	7304.5
965.171	7163.5
965.398	7166.5
965.624	7163.5
965.85	7081.5
966.076	7029.5
966.302	7079.5
966.528	7020.5
966.754	7016.5
966.98	6925.5
967.206	6933.5
967.431	6795.5
967.657	6893.5
967.883	6884.5
968.109	6828.5
968.334	6714.5
968.56	6729.5
968.785	6699.5
969.011	6649.5
969.236	6782.5
969.462	6674.5
969.687	6633.5
969.912	6718.5
970.138	6618.5
970.363	6532.5
970.588	6548.5
970.813	6597.5
971.038	6469.5
971.263	6489.5
971.488	6497.5
971.713	6457.5
971.938	6440.5
972.163	6301.5
972.388	6297.5
972.613	6274.5
972.838	6229.5
973.062	6225.5
973.287	6224.5
973.512	6116.5
973.736	6114.5
973.961	6030.5
974.185	6019.5
974.41	6072.5
974.634	5861.5
974.858	5878.5
975.083	5957.5
975.307	5911.5
975.531	5798.5
975.755	5762.5
975.98	5747.5
976.204	5688.5
976.428	5625.5
976.652	5614.5
976.876	5570.5
977.1	5595.5
977.324	5483.5
977.547	5608.5
977.771	5585.5
977.995	5544.5
978.219	5465.5
978.442	5508.5
978.666	5427.5
978.89	5442.5
979.113	5419.5
979.337	5390.5
979.56	5324.5
979.783	5384.5
980.007	5279.5
980.23	5319.5
980.453	5223.5
980.677	5246.5
980.9	5214.5
981.123	5071.5
981.346	5160.5
981.569	5100.5
981.792	5094.5
982.015	5085.5
982.238	5005.5
982.461	5011.5
982.684	4958.5
982.907	4902.5
983.129	4884.5
983.352	4924.5
983.575	4847.5
983.797	4863.5
984.02	4733.5
984.242	4806.5
984.465	4778.5
984.687	4767.5
984.91	4727.5
985.132	4674.5
985.354	4712.5
985.577	4598.5
985.799	4603.5
986.021	4563.5
986.243	4561.5
986.465	4575.5
986.687	4521.5
986.909	4604.5
987.131	4531.5
987.353	4512.5
987.575	4493.5
987.797	4403.5
988.019	4348.5
988.241	4358.5
988.462	4346.5
988.684	4380.5
988.906	4402.5
989.127	4437.5
989.349	4291.5
989.57	4235.5
989.792	4301.5
990.013	4323.5
990.234	4319.5
990.456	4299.5
990.677	4269.5
990.898	4205.5
991.119	4193.5
991.341	4197.5
991.562	4086.5
991.783	4133.5
992.004	4011.5
992.225	3983.5
992.446	4080.5
992.667	3904.5
992.887	4057.5
993.108	3855.5
993.329	3991.5
993.55	3914.5
993.77	3852.5
993.991	3860.5
994.212	3858.5
994.432	3769.5
994.653	3799.5
994.873	3773.5
995.093	3643.5
995.314	3703.5
995.534	3741.5
995.754	3746.5
995.975	3718.5
996.195	3603.5
996.415	3703.5
996.635	3601.5
996.855	3645.5
997.075	3592.5
997.295	3612.5
997.515	3600.5
997.735	3638.5
997.955	3586.5
998.174	3554.5
998.394	3495.5
998.614	3573.5
998.834	3494.5
999.053	3528.5
999.273	3474.5
999.492	3543.5
999.712	3460.5
999.931	3401.5
1000.151	3430.5
1000.37	3401.5
1000.589	3432.5
1000.809	3307.5
1001.028	3442.5
1001.247	3334.5
1001.466	3217.5
1001.685	3355.5
1001.904	3292.5
1002.123	3228.5
1002.342	3220.5
1002.561	3180.5
1002.78	3180.5
1002.999	3207.5
1003.218	3141.5
1003.436	3099.5
1003.655	3095.5
1003.874	3067.5
1004.092	3097.5
1004.311	3131.5
1004.53	3052.5
1004.748	3124.5
1004.966	3061.5
1005.185	3060.5
1005.403	3102.5
1005.622	3014.5
1005.84	3089.5
1006.058	2991.5
1006.276	3011.5
1006.494	3505.5
1006.712	2999.5
1006.931	3029.5
1007.149	2942.5
1007.367	2957.5
1007.584	2993.5
1007.802	3032.5
1008.02	2981.5
1008.238	3008.5
1008.456	3042.5
1008.673	2955.5
1008.891	3074.5
1009.109	2999.5
1009.326	3040.5
1009.544	3187.5
1009.761	3083.5
1009.979	3199.5
1010.196	3225.5
1010.413	3357.5
1010.631	3470.5
1010.848	3529.5
1011.065	3493.5
1011.282	3465.5
1011.5	3417.5
1011.717	3510.5
1011.934	3436.5
1012.151	3440.5
1012.368	3392.5
1012.585	3305.5
1012.801	3394.5
1013.018	3318.5
1013.235	3257.5
1013.452	3328.5
1013.669	3335.5
1013.885	3292.5
1014.102	3377.5
1014.318	3305.5
1014.535	3277.5
1014.751	3300.5
1014.968	3283.5
1015.184	3269.5
1015.401	3200.5
1015.617	3219.5
1015.833	3103.5
1016.049	3092.5
1016.266	3067.5
1016.482	3026.5
1016.698	2955.5
1016.914	2982.5
1017.13	2907.5
1017.346	2909.5
1017.562	2933.5
1017.778	2874.5
1017.993	2814.5
1018.209	2849.5
1018.425	2825.5
1018.641	2793.5
1018.856	2753.5
1019.072	2819.5
1019.288	2849.5
1019.503	2771.5
1019.719	2666.5
1019.934	2697.5
1020.149	2784.5
1020.365	2667.5
1020.58	2608.5
1020.795	2615.5
1021.011	2520.5
1021.226	2511.5
1021.441	2494.5
1021.656	2430.5
1021.871	2325.5
1022.086	2278.5
1022.301	2286.5
1022.516	2203.5
1022.731	2259.5
1022.946	2179.5
1023.16	2147.5
1023.375	2084.5
1023.59	2058.5
1023.804	2006.5
1024.019	2111.5
1024.234	1931.5
1024.448	1936.5
1024.663	1891.5
1024.877	1835.5
1025.092	1857.5
1025.306	1858.5
1025.52	1750.5
1025.734	1788.5
1025.949	1672.5
1026.163	1654.5
1026.377	1581.5
1026.591	1622.5
1026.805	1497.5
1027.019	1518.5
1027.233	1453.5
1027.447	1386.5
1027.661	1499.5
1027.875	1430.5
1028.088	1388.5
1028.302	1305.5
1028.516	1289.5
1028.73	1285.5
1028.943	1230.5
1029.157	1154.5
1029.37	1110.5
1029.584	-3.5
1029.797	-2.5
1030.011	-5.5
1030.224	-2.5
