Data from QEP037381__170__14-54-35-841.txt Node

Date: Fri Dec 16 14:54:35 EST 2022
User: dcclab
Spectrometer: QEP03738
Trigger mode: 4
Integration Time (sec): 1.000000E1
Scans to average: 1
Electric dark correction enabled: true
Nonlinearity correction enabled: false
Boxcar width: 0
XAxis mode: Wavelengths
Number of Pixels in Spectrum: 1044
>>>>>Begin Spectral Data<<<<<
784.041	8.75
784.3	-2.25
784.558	-1.25
784.817	-2.25
785.075	113400.75
785.334	19551.75
785.592	9103.75
785.851	6222.75
786.109	4749.75
786.368	3676.75
786.626	2959.75
786.884	2458.75
787.143	2067.75
787.401	1730.75
787.659	1533.75
787.917	1328.75
788.175	1211.75
788.433	1076.75
788.691	965.75
788.949	914.75
789.207	840.75
789.465	769.75
789.723	733.75
789.98	664.75
790.238	704.75
790.496	676.75
790.753	630.75
791.011	686.75
791.268	623.75
791.526	597.75
791.783	622.75
792.041	585.75
792.298	516.75
792.556	559.75
792.813	573.75
793.07	535.75
793.327	522.75
793.584	600.75
793.841	517.75
794.099	530.75
794.356	605.75
794.613	509.75
794.869	554.75
795.126	499.75
795.383	494.75
795.64	523.75
795.897	472.75
796.153	528.75
796.41	510.75
796.667	509.75
796.923	509.75
797.18	527.75
797.436	544.75
797.693	517.75
797.949	562.75
798.206	595.75
798.462	520.75
798.718	589.75
798.974	565.75
799.231	626.75
799.487	605.75
799.743	631.75
799.999	677.75
800.255	671.75
800.511	673.75
800.767	736.75
801.023	747.75
801.279	820.75
801.534	913.75
801.79	1023.75
802.046	1119.75
802.302	1358.75
802.557	1648.75
802.813	2185.75
803.068	2825.75
803.324	4039.75
803.579	5688.75
803.835	8012.75
804.09	11066.75
804.345	14658.75
804.601	18580.75
804.856	22631.75
805.111	26066.75
805.366	28811.75
805.621	30833.75
805.876	32233.75
806.131	33157.75
806.386	33967.75
806.641	34507.75
806.896	35077.75
807.151	35859.75
807.406	36329.75
807.661	37003.75
807.915	37821.75
808.17	38227.75
808.425	38531.75
808.679	38959.75
808.934	39552.75
809.188	39796.75
809.443	40225.75
809.697	40722.75
809.951	41023.75
810.206	41315.75
810.46	41764.75
810.714	42168.75
810.968	42537.75
811.223	42974.75
811.477	43339.75
811.731	43609.75
811.985	43739.75
812.239	44139.75
812.493	44355.75
812.747	44556.75
813	44737.75
813.254	44991.75
813.508	45072.75
813.762	45337.75
814.015	45576.75
814.269	45836.75
814.522	46266.75
814.776	46851.75
815.03	47528.75
815.283	48027.75
815.536	48985.75
815.79	49704.75
816.043	50450.75
816.296	51050.75
816.55	51652.75
816.803	52347.75
817.056	52891.75
817.309	53498.75
817.562	53746.75
817.815	54557.75
818.068	54789.75
818.321	55474.75
818.574	56002.75
818.827	56615.75
819.079	57529.75
819.332	58238.75
819.585	59012.75
819.838	59726.75
820.09	60389.75
820.343	60607.75
820.595	61156.75
820.848	61427.75
821.1	61642.75
821.353	61869.75
821.605	61725.75
821.857	61833.75
822.11	61475.75
822.362	61428.75
822.614	61211.75
822.866	61294.75
823.118	61144.75
823.37	61551.75
823.622	61392.75
823.874	61869.75
824.126	61961.75
824.378	62077.75
824.63	62398.75
824.882	62523.75
825.134	62338.75
825.385	62547.75
825.637	62368.75
825.888	62256.75
826.14	62165.75
826.392	61909.75
826.643	61788.75
826.895	61431.75
827.146	61327.75
827.397	61242.75
827.649	61135.75
827.9	61124.75
828.151	61278.75
828.402	61443.75
828.653	61659.75
828.905	61810.75
829.156	61856.75
829.407	62044.75
829.658	61849.75
829.909	61961.75
830.159	61773.75
830.41	61623.75
830.661	61015.75
830.912	60638.75
831.162	60538.75
831.413	60223.75
831.664	60494.75
831.914	60205.75
832.165	60353.75
832.415	60469.75
832.666	60280.75
832.916	60539.75
833.167	60444.75
833.417	60273.75
833.667	60116.75
833.917	59980.75
834.168	59795.75
834.418	59701.75
834.668	59262.75
834.918	59120.75
835.168	58804.75
835.418	58799.75
835.668	58708.75
835.918	58392.75
836.167	58491.75
836.417	58118.75
836.667	58183.75
836.917	58107.75
837.166	58047.75
837.416	58015.75
837.666	58131.75
837.915	57973.75
838.165	57883.75
838.414	57614.75
838.663	57510.75
838.913	57461.75
839.162	57295.75
839.411	57043.75
839.661	56895.75
839.91	56743.75
840.159	56774.75
840.408	56510.75
840.657	56404.75
840.906	56606.75
841.155	56642.75
841.404	56414.75
841.653	56585.75
841.902	56731.75
842.15	56754.75
842.399	56826.75
842.648	56663.75
842.897	56422.75
843.145	56107.75
843.394	55750.75
843.642	55608.75
843.891	55319.75
844.139	54988.75
844.388	54642.75
844.636	54614.75
844.884	54431.75
845.133	54463.75
845.381	54283.75
845.629	54533.75
845.877	54308.75
846.125	54235.75
846.373	54017.75
846.621	53955.75
846.869	53696.75
847.117	53467.75
847.365	53057.75
847.613	52772.75
847.861	52870.75
848.108	52722.75
848.356	52595.75
848.604	52499.75
848.851	52461.75
849.099	52498.75
849.346	52622.75
849.594	52890.75
849.841	53034.75
850.089	53185.75
850.336	53067.75
850.583	53120.75
850.831	52890.75
851.078	52470.75
851.325	52346.75
851.572	52289.75
851.819	51788.75
852.066	51040.75
852.313	50613.75
852.56	50286.75
852.807	49953.75
853.054	49773.75
853.301	49541.75
853.548	49788.75
853.794	49884.75
854.041	50076.75
854.288	50290.75
854.534	50764.75
854.781	50608.75
855.028	50412.75
855.274	50233.75
855.52	50138.75
855.767	49705.75
856.013	49659.75
856.26	49880.75
856.506	49172.75
856.752	49295.75
856.998	49252.75
857.244	49409.75
857.49	49614.75
857.736	49640.75
857.982	49617.75
858.228	49405.75
858.474	49218.75
858.72	48940.75
858.966	48645.75
859.212	48098.75
859.458	47648.75
859.703	47295.75
859.949	46832.75
860.195	46404.75
860.44	46215.75
860.686	45931.75
860.931	45896.75
861.177	45602.75
861.422	45632.75
861.667	45511.75
861.913	45675.75
862.158	45548.75
862.403	45634.75
862.648	45819.75
862.893	45724.75
863.138	45657.75
863.384	45535.75
863.629	45594.75
863.873	45461.75
864.118	45257.75
864.363	45153.75
864.608	44920.75
864.853	44779.75
865.098	44619.75
865.342	44420.75
865.587	44296.75
865.832	44273.75
866.076	44143.75
866.321	44018.75
866.565	43718.75
866.81	43545.75
867.054	43484.75
867.298	43338.75
867.543	43298.75
867.787	43253.75
868.031	43118.75
868.275	42940.75
868.519	42860.75
868.764	42838.75
869.008	42510.75
869.252	42472.75
869.496	42298.75
869.739	42206.75
869.983	42210.75
870.227	42247.75
870.471	41970.75
870.715	42139.75
870.958	42366.75
871.202	42249.75
871.446	42399.75
871.689	42421.75
871.933	42366.75
872.176	42338.75
872.42	42179.75
872.663	42079.75
872.906	41961.75
873.15	41729.75
873.393	41524.75
873.636	41333.75
873.879	41122.75
874.122	40587.75
874.366	40158.75
874.609	39931.75
874.852	39647.75
875.095	39577.75
875.337	39281.75
875.58	39025.75
875.823	39075.75
876.066	39074.75
876.309	38835.75
876.551	38680.75
876.794	38395.75
877.037	38393.75
877.279	38263.75
877.522	38301.75
877.764	38434.75
878.007	38168.75
878.249	38243.75
878.491	38147.75
878.734	38313.75
878.976	38133.75
879.218	37797.75
879.46	37599.75
879.702	37320.75
879.945	37055.75
880.187	36861.75
880.429	36752.75
880.671	36499.75
880.912	36256.75
881.154	36246.75
881.396	36104.75
881.638	36081.75
881.88	36026.75
882.121	35991.75
882.363	35850.75
882.605	35734.75
882.846	35681.75
883.088	35547.75
883.329	35504.75
883.571	35456.75
883.812	35538.75
884.053	35853.75
884.295	36189.75
884.536	36196.75
884.777	35956.75
885.018	35808.75
885.259	35796.75
885.5	35594.75
885.742	35851.75
885.982	35623.75
886.223	35370.75
886.464	35169.75
886.705	35063.75
886.946	34747.75
887.187	34351.75
887.428	34264.75
887.668	33786.75
887.909	33482.75
888.15	33087.75
888.39	32971.75
888.631	32783.75
888.871	32584.75
889.111	32352.75
889.352	32255.75
889.592	31944.75
889.833	31796.75
890.073	31626.75
890.313	31300.75
890.553	31134.75
890.793	30936.75
891.033	30959.75
891.273	30733.75
891.513	30481.75
891.753	30630.75
891.993	30466.75
892.233	30508.75
892.473	30608.75
892.713	30467.75
892.952	30484.75
893.192	30470.75
893.432	30440.75
893.671	30426.75
893.911	30225.75
894.15	30157.75
894.39	29928.75
894.629	29688.75
894.869	29490.75
895.108	29378.75
895.347	29170.75
895.587	29203.75
895.826	29107.75
896.065	28954.75
896.304	28944.75
896.543	28946.75
896.782	28734.75
897.021	28739.75
897.26	28604.75
897.499	28533.75
897.738	28387.75
897.977	28326.75
898.216	28141.75
898.454	27865.75
898.693	27597.75
898.932	27560.75
899.17	27353.75
899.409	27265.75
899.647	27145.75
899.886	27082.75
900.124	27243.75
900.363	27052.75
900.601	27127.75
900.839	27076.75
901.078	27160.75
901.316	27136.75
901.554	27104.75
901.792	27239.75
902.03	27204.75
902.268	27175.75
902.506	27098.75
902.744	26903.75
902.982	26758.75
903.22	26485.75
903.458	26320.75
903.695	25900.75
903.933	25658.75
904.171	25320.75
904.409	25016.75
904.646	24692.75
904.884	24451.75
905.121	24246.75
905.359	23946.75
905.596	23791.75
905.833	23524.75
906.071	23395.75
906.308	23493.75
906.545	23213.75
906.783	23219.75
907.02	23139.75
907.257	23073.75
907.494	23097.75
907.731	23070.75
907.968	22845.75
908.205	22691.75
908.442	22569.75
908.679	22431.75
908.915	22232.75
909.152	22114.75
909.389	21941.75
909.626	21835.75
909.862	21627.75
910.099	21576.75
910.335	21390.75
910.572	21289.75
910.808	21376.75
911.045	21266.75
911.281	21106.75
911.518	21140.75
911.754	20981.75
911.99	20803.75
912.226	20630.75
912.463	20511.75
912.699	20356.75
912.935	20289.75
913.171	20061.75
913.407	19838.75
913.643	19828.75
913.879	19563.75
914.114	19373.75
914.35	19118.75
914.586	19027.75
914.822	18895.75
915.057	18893.75
915.293	18529.75
915.529	18485.75
915.764	18534.75
916	18471.75
916.235	18435.75
916.471	18339.75
916.706	18223.75
916.941	18190.75
917.177	18173.75
917.412	18171.75
917.647	18155.75
917.882	18080.75
918.117	18113.75
918.352	18029.75
918.588	17937.75
918.823	17764.75
919.057	17526.75
919.292	17340.75
919.527	17375.75
919.762	17081.75
919.997	16995.75
920.232	16727.75
920.466	16574.75
920.701	16434.75
920.935	16317.75
921.17	16258.75
921.405	16183.75
921.639	16190.75
921.873	16034.75
922.108	16043.75
922.342	15936.75
922.576	15799.75
922.811	15827.75
923.045	15835.75
923.279	15731.75
923.513	15551.75
923.747	15538.75
923.981	15400.75
924.215	15272.75
924.449	15218.75
924.683	15029.75
924.917	14985.75
925.151	14923.75
925.385	14977.75
925.618	14876.75
925.852	14825.75
926.086	14717.75
926.319	14768.75
926.553	14692.75
926.786	14681.75
927.02	14655.75
927.253	14661.75
927.486	14669.75
927.72	14504.75
927.953	14545.75
928.186	14397.75
928.42	14465.75
928.653	14301.75
928.886	14319.75
929.119	14213.75
929.352	14141.75
929.585	13988.75
929.818	13923.75
930.051	13827.75
930.284	13674.75
930.516	13539.75
930.749	13461.75
930.982	13468.75
931.215	13316.75
931.447	13212.75
931.68	13195.75
931.912	13249.75
932.145	13129.75
932.377	13201.75
932.61	13165.75
932.842	13134.75
933.074	13167.75
933.307	13095.75
933.539	13169.75
933.771	13156.75
934.003	13112.75
934.236	13021.75
934.468	13044.75
934.7	12944.75
934.932	12944.75
935.164	12942.75
935.395	12794.75
935.627	12740.75
935.859	12800.75
936.091	12669.75
936.323	12736.75
936.554	12663.75
936.786	12496.75
937.017	12444.75
937.249	12411.75
937.481	12308.75
937.712	12317.75
937.943	12343.75
938.175	12268.75
938.406	12216.75
938.637	12216.75
938.869	12219.75
939.1	12240.75
939.331	12144.75
939.562	12104.75
939.793	12009.75
940.024	11984.75
940.255	11966.75
940.486	11847.75
940.717	11890.75
940.948	11664.75
941.179	11644.75
941.409	11701.75
941.64	11597.75
941.871	11649.75
942.102	11550.75
942.332	11535.75
942.563	11693.75
942.793	11601.75
943.024	11515.75
943.254	11548.75
943.484	11462.75
943.715	11549.75
943.945	11504.75
944.175	11439.75
944.405	11421.75
944.636	11444.75
944.866	11379.75
945.096	11444.75
945.326	11288.75
945.556	11269.75
945.786	11309.75
946.016	11107.75
946.245	11032.75
946.475	10971.75
946.705	10870.75
946.935	10842.75
947.164	10804.75
947.394	10711.75
947.624	10729.75
947.853	10618.75
948.083	10610.75
948.312	10585.75
948.542	10435.75
948.771	10357.75
949	10331.75
949.23	10344.75
949.459	10410.75
949.688	10432.75
949.917	10296.75
950.146	10352.75
950.375	10298.75
950.604	10212.75
950.833	10261.75
951.062	10249.75
951.291	10224.75
951.52	10149.75
951.749	10081.75
951.978	10052.75
952.206	9984.75
952.435	9989.75
952.664	9955.75
952.892	9950.75
953.121	9889.75
953.349	9908.75
953.578	9850.75
953.806	9766.75
954.035	9725.75
954.263	9656.75
954.491	9528.75
954.719	9536.75
954.948	9508.75
955.176	9442.75
955.404	9318.75
955.632	9309.75
955.86	9315.75
956.088	9248.75
956.316	9291.75
956.544	9238.75
956.772	9129.75
956.999	9090.75
957.227	9059.75
957.455	8982.75
957.683	8871.75
957.91	8852.75
958.138	8763.75
958.365	8819.75
958.593	8738.75
958.82	8611.75
959.048	8657.75
959.275	8571.75
959.502	8583.75
959.73	8547.75
959.957	8524.75
960.184	8554.75
960.411	8476.75
960.638	8471.75
960.865	8438.75
961.092	8431.75
961.319	8358.75
961.546	8415.75
961.773	8444.75
962	8382.75
962.227	8411.75
962.454	8284.75
962.68	8297.75
962.907	8232.75
963.134	8213.75
963.36	8149.75
963.587	8067.75
963.813	7941.75
964.04	7944.75
964.266	7863.75
964.493	7922.75
964.719	7883.75
964.945	7820.75
965.171	7637.75
965.398	7666.75
965.624	7737.75
965.85	7556.75
966.076	7562.75
966.302	7597.75
966.528	7494.75
966.754	7458.75
966.98	7513.75
967.206	7425.75
967.431	7307.75
967.657	7397.75
967.883	7362.75
968.109	7301.75
968.334	7240.75
968.56	7234.75
968.785	7230.75
969.011	7159.75
969.236	7160.75
969.462	7168.75
969.687	7092.75
969.912	7145.75
970.138	7094.75
970.363	7043.75
970.588	6959.75
970.813	6920.75
971.038	6987.75
971.263	6979.75
971.488	6863.75
971.713	6925.75
971.938	6832.75
972.163	6779.75
972.388	6775.75
972.613	6644.75
972.838	6661.75
973.062	6647.75
973.287	6642.75
973.512	6559.75
973.736	6531.75
973.961	6549.75
974.185	6425.75
974.41	6507.75
974.634	6331.75
974.858	6306.75
975.083	6321.75
975.307	6305.75
975.531	6219.75
975.755	6126.75
975.98	6167.75
976.204	6034.75
976.428	6039.75
976.652	5973.75
976.876	5992.75
977.1	6033.75
977.324	5850.75
977.547	5962.75
977.771	5957.75
977.995	5904.75
978.219	5803.75
978.442	5900.75
978.666	5832.75
978.89	5785.75
979.113	5771.75
979.337	5702.75
979.56	5702.75
979.783	5772.75
980.007	5652.75
980.23	5632.75
980.453	5606.75
980.677	5611.75
980.9	5604.75
981.123	5514.75
981.346	5498.75
981.569	5482.75
981.792	5459.75
982.015	5386.75
982.238	5355.75
982.461	5399.75
982.684	5259.75
982.907	5264.75
983.129	5175.75
983.352	5192.75
983.575	5190.75
983.797	5149.75
984.02	5101.75
984.242	5072.75
984.465	5077.75
984.687	4988.75
984.91	5069.75
985.132	4992.75
985.354	5017.75
985.577	4950.75
985.799	4895.75
986.021	4854.75
986.243	4809.75
986.465	4895.75
986.687	4848.75
986.909	4893.75
987.131	4779.75
987.353	4720.75
987.575	4769.75
987.797	4758.75
988.019	4633.75
988.241	4670.75
988.462	4563.75
988.684	4636.75
988.906	4668.75
989.127	4727.75
989.349	4568.75
989.57	4597.75
989.792	4579.75
990.013	4560.75
990.234	4583.75
990.456	4601.75
990.677	4533.75
990.898	4435.75
991.119	4451.75
991.341	4467.75
991.562	4328.75
991.783	4384.75
992.004	4274.75
992.225	4272.75
992.446	4266.75
992.667	4214.75
992.887	4260.75
993.108	4131.75
993.329	4271.75
993.55	4138.75
993.77	4045.75
993.991	4053.75
994.212	4103.75
994.432	3988.75
994.653	4016.75
994.873	4015.75
995.093	3830.75
995.314	3938.75
995.534	4004.75
995.754	3925.75
995.975	3970.75
996.195	3840.75
996.415	3872.75
996.635	3823.75
996.855	3844.75
997.075	3815.75
997.295	3767.75
997.515	3728.75
997.735	3810.75
997.955	3751.75
998.174	3738.75
998.394	3720.75
998.614	3753.75
998.834	3685.75
999.053	3744.75
999.273	3678.75
999.492	3764.75
999.712	3653.75
999.931	3563.75
1000.151	3652.75
1000.37	3610.75
1000.589	3639.75
1000.809	3524.75
1001.028	3592.75
1001.247	3509.75
1001.466	3430.75
1001.685	3551.75
1001.904	3461.75
1002.123	3393.75
1002.342	3437.75
1002.561	3325.75
1002.78	3350.75
1002.999	3383.75
1003.218	3347.75
1003.436	3280.75
1003.655	3297.75
1003.874	3259.75
1004.092	3264.75
1004.311	3288.75
1004.53	3251.75
1004.748	3292.75
1004.966	3173.75
1005.185	3213.75
1005.403	3234.75
1005.622	3198.75
1005.84	3242.75
1006.058	3156.75
1006.276	3144.75
1006.494	3599.75
1006.712	3146.75
1006.931	3211.75
1007.149	3049.75
1007.367	3042.75
1007.584	3121.75
1007.802	3165.75
1008.02	3083.75
1008.238	3179.75
1008.456	3178.75
1008.673	3036.75
1008.891	3159.75
1009.109	3089.75
1009.326	3171.75
1009.544	3245.75
1009.761	3169.75
1009.979	3275.75
1010.196	3306.75
1010.413	3404.75
1010.631	3516.75
1010.848	3533.75
1011.065	3541.75
1011.282	3507.75
1011.5	3391.75
1011.717	3481.75
1011.934	3426.75
1012.151	3475.75
1012.368	3464.75
1012.585	3374.75
1012.801	3411.75
1013.018	3367.75
1013.235	3341.75
1013.452	3392.75
1013.669	3351.75
1013.885	3345.75
1014.102	3411.75
1014.318	3395.75
1014.535	3317.75
1014.751	3328.75
1014.968	3267.75
1015.184	3315.75
1015.401	3190.75
1015.617	3230.75
1015.833	3179.75
1016.049	3127.75
1016.266	3044.75
1016.482	3075.75
1016.698	2972.75
1016.914	3007.75
1017.13	2939.75
1017.346	2962.75
1017.562	2982.75
1017.778	2929.75
1017.993	2865.75
1018.209	2905.75
1018.425	2892.75
1018.641	2852.75
1018.856	2816.75
1019.072	2832.75
1019.288	2914.75
1019.503	2832.75
1019.719	2755.75
1019.934	2715.75
1020.149	2821.75
1020.365	2757.75
1020.58	2720.75
1020.795	2680.75
1021.011	2612.75
1021.226	2536.75
1021.441	2570.75
1021.656	2473.75
1021.871	2392.75
1022.086	2326.75
1022.301	2320.75
1022.516	2311.75
1022.731	2318.75
1022.946	2212.75
1023.16	2200.75
1023.375	2147.75
1023.59	2111.75
1023.804	2056.75
1024.019	2159.75
1024.234	2008.75
1024.448	2035.75
1024.663	1936.75
1024.877	1918.75
1025.092	1938.75
1025.306	1884.75
1025.52	1785.75
1025.734	1851.75
1025.949	1776.75
1026.163	1706.75
1026.377	1640.75
1026.591	1676.75
1026.805	1594.75
1027.019	1595.75
1027.233	1515.75
1027.447	1455.75
1027.661	1534.75
1027.875	1474.75
1028.088	1436.75
1028.302	1388.75
1028.516	1352.75
1028.73	1330.75
1028.943	1265.75
1029.157	1172.75
1029.37	1121.75
1029.584	-2.25
1029.797	-1.25
1030.011	0.75
1030.224	-0.25
