Data from QEP037381__182__14-56-35-842.txt Node

Date: Fri Dec 16 14:56:35 EST 2022
User: dcclab
Spectrometer: QEP03738
Trigger mode: 4
Integration Time (sec): 1.000000E1
Scans to average: 1
Electric dark correction enabled: true
Nonlinearity correction enabled: false
Boxcar width: 0
XAxis mode: Wavelengths
Number of Pixels in Spectrum: 1044
>>>>>Begin Spectral Data<<<<<
784.041	9.25
784.3	0.25
784.558	-3.75
784.817	-2.75
785.075	113419.25
785.334	19973.25
785.592	9561.25
785.851	6584.25
786.109	4958.25
786.368	3896.25
786.626	3103.25
786.884	2557.25
787.143	2147.25
787.401	1800.25
787.659	1591.25
787.917	1396.25
788.175	1249.25
788.433	1083.25
788.691	983.25
788.949	911.25
789.207	873.25
789.465	736.25
789.723	707.25
789.98	665.25
790.238	681.25
790.496	663.25
790.753	623.25
791.011	683.25
791.268	612.25
791.526	579.25
791.783	607.25
792.041	579.25
792.298	489.25
792.556	564.25
792.813	538.25
793.07	537.25
793.327	503.25
793.584	599.25
793.841	506.25
794.099	530.25
794.356	605.25
794.613	485.25
794.869	527.25
795.126	488.25
795.383	462.25
795.64	488.25
795.897	441.25
796.153	501.25
796.41	490.25
796.667	471.25
796.923	494.25
797.18	496.25
797.436	521.25
797.693	495.25
797.949	553.25
798.206	562.25
798.462	492.25
798.718	569.25
798.974	524.25
799.231	586.25
799.487	583.25
799.743	598.25
799.999	640.25
800.255	636.25
800.511	638.25
800.767	695.25
801.023	701.25
801.279	764.25
801.534	811.25
801.79	907.25
802.046	995.25
802.302	1227.25
802.557	1434.25
802.813	1877.25
803.068	2475.25
803.324	3497.25
803.579	4783.25
803.835	6879.25
804.09	9376.25
804.345	12334.25
804.601	15648.25
804.856	18905.25
805.111	21859.25
805.366	24319.25
805.621	25967.25
805.876	27125.25
806.131	27873.25
806.386	28515.25
806.641	29077.25
806.896	29518.25
807.151	30019.25
807.406	30523.25
807.661	31120.25
807.915	31663.25
808.17	32088.25
808.425	32504.25
808.679	32589.25
808.934	32972.25
809.188	33353.25
809.443	33723.25
809.697	34004.25
809.951	34196.25
810.206	34614.25
810.46	34907.25
810.714	35225.25
810.968	35525.25
811.223	35838.25
811.477	36122.25
811.731	36255.25
811.985	36677.25
812.239	36726.25
812.493	36935.25
812.747	37201.25
813	37183.25
813.254	37305.25
813.508	37551.25
813.762	37701.25
814.015	37850.25
814.269	38094.25
814.522	38482.25
814.776	38831.25
815.03	39475.25
815.283	39920.25
815.536	40511.25
815.79	41170.25
816.043	41645.25
816.296	42143.25
816.55	42837.25
816.803	43192.25
817.056	43844.25
817.309	44049.25
817.562	44509.25
817.815	45000.25
818.068	45331.25
818.321	45875.25
818.574	46245.25
818.827	46872.25
819.079	47143.25
819.332	48146.25
819.585	48557.25
819.838	49403.25
820.09	49511.25
820.343	49868.25
820.595	50398.25
820.848	50615.25
821.1	50910.25
821.353	50895.25
821.605	50907.25
821.857	50825.25
822.11	50502.25
822.362	50443.25
822.614	50406.25
822.866	50379.25
823.118	50163.25
823.37	50520.25
823.622	50528.25
823.874	50813.25
824.126	50913.25
824.378	51079.25
824.63	51288.25
824.882	51308.25
825.134	51299.25
825.385	51188.25
825.637	51081.25
825.888	51057.25
826.14	50696.25
826.392	50731.25
826.643	50382.25
826.895	50369.25
827.146	50052.25
827.397	50081.25
827.649	50171.25
827.9	50036.25
828.151	50165.25
828.402	50348.25
828.653	50432.25
828.905	50355.25
829.156	50529.25
829.407	50467.25
829.658	50527.25
829.909	50585.25
830.159	50615.25
830.41	50136.25
830.661	49828.25
830.912	49702.25
831.162	49432.25
831.413	49430.25
831.664	49308.25
831.914	49451.25
832.165	49217.25
832.415	49480.25
832.666	49415.25
832.916	49366.25
833.167	49520.25
833.417	49427.25
833.667	49294.25
833.917	49231.25
834.168	48997.25
834.418	48787.25
834.668	48332.25
834.918	48184.25
835.168	48208.25
835.418	47933.25
835.668	47868.25
835.918	47640.25
836.167	47597.25
836.417	47539.25
836.667	47311.25
836.917	47403.25
837.166	47170.25
837.416	47223.25
837.666	47255.25
837.915	47333.25
838.165	47070.25
838.414	46979.25
838.663	47042.25
838.913	47035.25
839.162	46708.25
839.411	46660.25
839.661	46380.25
839.91	46187.25
840.159	46065.25
840.408	46129.25
840.657	46179.25
840.906	46297.25
841.155	46112.25
841.404	46181.25
841.653	46098.25
841.902	46194.25
842.15	46203.25
842.399	46225.25
842.648	46107.25
842.897	46031.25
843.145	45689.25
843.394	45563.25
843.642	45138.25
843.891	44986.25
844.139	44829.25
844.388	44739.25
844.636	44505.25
844.884	44315.25
845.133	44292.25
845.381	44297.25
845.629	44265.25
845.877	44350.25
846.125	44011.25
846.373	44140.25
846.621	43934.25
846.869	43783.25
847.117	43400.25
847.365	43226.25
847.613	43099.25
847.861	43089.25
848.108	42920.25
848.356	42798.25
848.604	42656.25
848.851	42569.25
849.099	42776.25
849.346	42934.25
849.594	42913.25
849.841	43139.25
850.089	43195.25
850.336	43326.25
850.583	43259.25
850.831	43144.25
851.078	42713.25
851.325	42740.25
851.572	42643.25
851.819	42365.25
852.066	41620.25
852.313	41120.25
852.56	40851.25
852.807	40651.25
853.054	40479.25
853.301	40374.25
853.548	40310.25
853.794	40578.25
854.041	40665.25
854.288	40810.25
854.534	41197.25
854.781	41189.25
855.028	40944.25
855.274	40904.25
855.52	40818.25
855.767	40367.25
856.013	40355.25
856.26	40704.25
856.506	40185.25
856.752	40091.25
856.998	40200.25
857.244	40230.25
857.49	40372.25
857.736	40446.25
857.982	40379.25
858.228	40223.25
858.474	39862.25
858.72	39702.25
858.966	39506.25
859.212	39173.25
859.458	38832.25
859.703	38385.25
859.949	38021.25
860.195	37792.25
860.44	37665.25
860.686	37519.25
860.931	37344.25
861.177	37184.25
861.422	37019.25
861.667	36950.25
861.913	36969.25
862.158	36939.25
862.403	37044.25
862.648	37055.25
862.893	37110.25
863.138	37068.25
863.384	36891.25
863.629	36943.25
863.873	36867.25
864.118	36824.25
864.363	36699.25
864.608	36571.25
864.853	36326.25
865.098	36074.25
865.342	35984.25
865.587	35634.25
865.832	35868.25
866.076	35652.25
866.321	35605.25
866.565	35670.25
866.81	35348.25
867.054	35503.25
867.298	35321.25
867.543	35233.25
867.787	35098.25
868.031	35088.25
868.275	35011.25
868.519	34801.25
868.764	34845.25
869.008	34531.25
869.252	34483.25
869.496	34237.25
869.739	34250.25
869.983	34220.25
870.227	34188.25
870.471	34183.25
870.715	34295.25
870.958	34268.25
871.202	34264.25
871.446	34379.25
871.689	34249.25
871.933	34585.25
872.176	34287.25
872.42	34298.25
872.663	34215.25
872.906	34252.25
873.15	34004.25
873.393	33975.25
873.636	33804.25
873.879	33492.25
874.122	33250.25
874.366	32817.25
874.609	32549.25
874.852	32358.25
875.095	32130.25
875.337	32103.25
875.58	31733.25
875.823	31726.25
876.066	31754.25
876.309	31663.25
876.551	31420.25
876.794	31204.25
877.037	31128.25
877.279	31021.25
877.522	31149.25
877.764	31088.25
878.007	31035.25
878.249	31039.25
878.491	30799.25
878.734	30829.25
878.976	30757.25
879.218	30536.25
879.46	30432.25
879.702	30218.25
879.945	29985.25
880.187	29715.25
880.429	29504.25
880.671	29480.25
880.912	29402.25
881.154	29229.25
881.396	29120.25
881.638	29213.25
881.88	29052.25
882.121	29017.25
882.363	28974.25
882.605	29016.25
882.846	28940.25
883.088	28905.25
883.329	28791.25
883.571	28707.25
883.812	28901.25
884.053	29154.25
884.295	29573.25
884.536	29691.25
884.777	29725.25
885.018	29464.25
885.259	29395.25
885.5	29225.25
885.742	29367.25
885.982	29142.25
886.223	28772.25
886.464	28719.25
886.705	28452.25
886.946	28325.25
887.187	27893.25
887.428	27656.25
887.668	27190.25
887.909	27016.25
888.15	26558.25
888.39	26573.25
888.631	26365.25
888.871	26172.25
889.111	25984.25
889.352	25942.25
889.592	25698.25
889.833	25530.25
890.073	25437.25
890.313	25306.25
890.553	24953.25
890.793	24909.25
891.033	24734.25
891.273	24801.25
891.513	24646.25
891.753	24638.25
891.993	24575.25
892.233	24665.25
892.473	25000.25
892.713	25077.25
892.952	25045.25
893.192	25075.25
893.432	24964.25
893.671	24777.25
893.911	24647.25
894.15	24463.25
894.39	24353.25
894.629	24173.25
894.869	23958.25
895.108	23818.25
895.347	23669.25
895.587	23630.25
895.826	23581.25
896.065	23473.25
896.304	23508.25
896.543	23438.25
896.782	23346.25
897.021	23230.25
897.26	23123.25
897.499	23229.25
897.738	23076.25
897.977	22965.25
898.216	22724.25
898.454	22610.25
898.693	22500.25
898.932	22467.25
899.17	22367.25
899.409	22235.25
899.647	22102.25
899.886	21992.25
900.124	22063.25
900.363	21992.25
900.601	22044.25
900.839	21999.25
901.078	21906.25
901.316	21976.25
901.554	22089.25
901.792	22217.25
902.03	22138.25
902.268	22029.25
902.506	22018.25
902.744	21868.25
902.982	21623.25
903.22	21474.25
903.458	21177.25
903.695	20839.25
903.933	20632.25
904.171	20321.25
904.409	20048.25
904.646	19847.25
904.884	19581.25
905.121	19460.25
905.359	19166.25
905.596	19086.25
905.833	18793.25
906.071	18692.25
906.308	18680.25
906.545	18624.25
906.783	18623.25
907.02	18534.25
907.257	18533.25
907.494	18447.25
907.731	18325.25
907.968	18157.25
908.205	18120.25
908.442	17930.25
908.679	18005.25
908.915	17869.25
909.152	17644.25
909.389	17422.25
909.626	17410.25
909.862	17249.25
910.099	17190.25
910.335	17143.25
910.572	16916.25
910.808	16982.25
911.045	16836.25
911.281	16841.25
911.518	16737.25
911.754	16656.25
911.99	16617.25
912.226	16468.25
912.463	16370.25
912.699	16230.25
912.935	16113.25
913.171	15996.25
913.407	15810.25
913.643	15673.25
913.879	15560.25
914.114	15431.25
914.35	15316.25
914.586	15189.25
914.822	15005.25
915.057	14953.25
915.293	14753.25
915.529	14766.25
915.764	14801.25
916	14630.25
916.235	14567.25
916.471	14633.25
916.706	14482.25
916.941	14445.25
917.177	14479.25
917.412	14443.25
917.647	14449.25
917.882	14321.25
918.117	14443.25
918.352	14222.25
918.588	14365.25
918.823	14200.25
919.057	13998.25
919.292	13872.25
919.527	13878.25
919.762	13574.25
919.997	13532.25
920.232	13315.25
920.466	13221.25
920.701	13094.25
920.935	13041.25
921.17	12972.25
921.405	12758.25
921.639	12874.25
921.873	12807.25
922.108	12783.25
922.342	12752.25
922.576	12621.25
922.811	12556.25
923.045	12543.25
923.279	12535.25
923.513	12311.25
923.747	12305.25
923.981	12235.25
924.215	12167.25
924.449	12100.25
924.683	12019.25
924.917	11954.25
925.151	11892.25
925.385	11919.25
925.618	11807.25
925.852	11730.25
926.086	11694.25
926.319	11743.25
926.553	11714.25
926.786	11639.25
927.02	11593.25
927.253	11672.25
927.486	11630.25
927.72	11505.25
927.953	11550.25
928.186	11530.25
928.42	11478.25
928.653	11319.25
928.886	11304.25
929.119	11325.25
929.352	11289.25
929.585	11114.25
929.818	11066.25
930.051	11028.25
930.284	10914.25
930.516	10714.25
930.749	10690.25
930.982	10659.25
931.215	10599.25
931.447	10514.25
931.68	10519.25
931.912	10486.25
932.145	10416.25
932.377	10432.25
932.61	10548.25
932.842	10415.25
933.074	10484.25
933.307	10357.25
933.539	10432.25
933.771	10434.25
934.003	10351.25
934.236	10450.25
934.468	10404.25
934.7	10315.25
934.932	10322.25
935.164	10224.25
935.395	10158.25
935.627	10177.25
935.859	10168.25
936.091	10029.25
936.323	10074.25
936.554	10058.25
936.786	10003.25
937.017	9902.25
937.249	9915.25
937.481	9835.25
937.712	9853.25
937.943	9856.25
938.175	9811.25
938.406	9759.25
938.637	9823.25
938.869	9680.25
939.1	9725.25
939.331	9644.25
939.562	9649.25
939.793	9622.25
940.024	9570.25
940.255	9560.25
940.486	9460.25
940.717	9426.25
940.948	9396.25
941.179	9219.25
941.409	9335.25
941.64	9217.25
941.871	9233.25
942.102	9229.25
942.332	9225.25
942.563	9245.25
942.793	9235.25
943.024	9158.25
943.254	9218.25
943.484	9205.25
943.715	9218.25
943.945	9163.25
944.175	9064.25
944.405	9107.25
944.636	9056.25
944.866	9109.25
945.096	9055.25
945.326	8980.25
945.556	8983.25
945.786	8938.25
946.016	8876.25
946.245	8766.25
946.475	8749.25
946.705	8674.25
946.935	8623.25
947.164	8607.25
947.394	8515.25
947.624	8497.25
947.853	8563.25
948.083	8413.25
948.312	8406.25
948.542	8279.25
948.771	8229.25
949	8246.25
949.23	8181.25
949.459	8274.25
949.688	8376.25
949.917	8178.25
950.146	8263.25
950.375	8230.25
950.604	8207.25
950.833	8163.25
951.062	8214.25
951.291	8112.25
951.52	8027.25
951.749	8086.25
951.978	7961.25
952.206	7953.25
952.435	7969.25
952.664	7970.25
952.892	7909.25
953.121	7875.25
953.349	7903.25
953.578	7833.25
953.806	7796.25
954.035	7660.25
954.263	7690.25
954.491	7597.25
954.719	7600.25
954.948	7568.25
955.176	7533.25
955.404	7455.25
955.632	7533.25
955.86	7460.25
956.088	7410.25
956.316	7376.25
956.544	7375.25
956.772	7262.25
956.999	7201.25
957.227	7218.25
957.455	7112.25
957.683	7088.25
957.91	7063.25
958.138	6994.25
958.365	6948.25
958.593	6925.25
958.82	6928.25
959.048	6962.25
959.275	6918.25
959.502	6822.25
959.73	6771.25
959.957	6809.25
960.184	6869.25
960.411	6717.25
960.638	6826.25
960.865	6745.25
961.092	6756.25
961.319	6646.25
961.546	6731.25
961.773	6755.25
962	6710.25
962.227	6717.25
962.454	6692.25
962.68	6581.25
962.907	6625.25
963.134	6538.25
963.36	6492.25
963.587	6517.25
963.813	6345.25
964.04	6315.25
964.266	6335.25
964.493	6397.25
964.719	6283.25
964.945	6258.25
965.171	6173.25
965.398	6153.25
965.624	6210.25
965.85	6113.25
966.076	6029.25
966.302	6107.25
966.528	6007.25
966.754	6002.25
966.98	6017.25
967.206	5963.25
967.431	5898.25
967.657	5907.25
967.883	5907.25
968.109	5940.25
968.334	5822.25
968.56	5819.25
968.785	5831.25
969.011	5757.25
969.236	5821.25
969.462	5739.25
969.687	5656.25
969.912	5721.25
970.138	5712.25
970.363	5648.25
970.588	5661.25
970.813	5584.25
971.038	5559.25
971.263	5519.25
971.488	5546.25
971.713	5550.25
971.938	5539.25
972.163	5366.25
972.388	5444.25
972.613	5408.25
972.838	5390.25
973.062	5344.25
973.287	5320.25
973.512	5230.25
973.736	5239.25
973.961	5238.25
974.185	5154.25
974.41	5211.25
974.634	5061.25
974.858	5115.25
975.083	5101.25
975.307	5056.25
975.531	4977.25
975.755	4945.25
975.98	4925.25
976.204	4853.25
976.428	4826.25
976.652	4813.25
976.876	4759.25
977.1	4773.25
977.324	4763.25
977.547	4808.25
977.771	4762.25
977.995	4751.25
978.219	4626.25
978.442	4774.25
978.666	4707.25
978.89	4666.25
979.113	4677.25
979.337	4610.25
979.56	4589.25
979.783	4672.25
980.007	4563.25
980.23	4540.25
980.453	4508.25
980.677	4513.25
980.9	4480.25
981.123	4371.25
981.346	4488.25
981.569	4429.25
981.792	4421.25
982.015	4344.25
982.238	4296.25
982.461	4318.25
982.684	4270.25
982.907	4208.25
983.129	4214.25
983.352	4247.25
983.575	4178.25
983.797	4203.25
984.02	4096.25
984.242	4060.25
984.465	4052.25
984.687	4119.25
984.91	4143.25
985.132	4056.25
985.354	4065.25
985.577	4025.25
985.799	3995.25
986.021	3924.25
986.243	3921.25
986.465	3892.25
986.687	3977.25
986.909	3984.25
987.131	3858.25
987.353	3893.25
987.575	3858.25
987.797	3837.25
988.019	3756.25
988.241	3819.25
988.462	3776.25
988.684	3821.25
988.906	3832.25
989.127	3839.25
989.349	3699.25
989.57	3732.25
989.792	3746.25
990.013	3762.25
990.234	3741.25
990.456	3752.25
990.677	3708.25
990.898	3598.25
991.119	3634.25
991.341	3636.25
991.562	3610.25
991.783	3595.25
992.004	3519.25
992.225	3493.25
992.446	3486.25
992.667	3427.25
992.887	3504.25
993.108	3373.25
993.329	3455.25
993.55	3447.25
993.77	3319.25
993.991	3332.25
994.212	3350.25
994.432	3306.25
994.653	3353.25
994.873	3342.25
995.093	3184.25
995.314	3221.25
995.534	3290.25
995.754	3243.25
995.975	3288.25
996.195	3171.25
996.415	3208.25
996.635	3168.25
996.855	3191.25
997.075	3161.25
997.295	3167.25
997.515	3111.25
997.735	3173.25
997.955	3119.25
998.174	3123.25
998.394	3079.25
998.614	3159.25
998.834	3041.25
999.053	3047.25
999.273	3066.25
999.492	3121.25
999.712	3067.25
999.931	3020.25
1000.151	2994.25
1000.37	3013.25
1000.589	3022.25
1000.809	2911.25
1001.028	3007.25
1001.247	2962.25
1001.466	2856.25
1001.685	2977.25
1001.904	2878.25
1002.123	2821.25
1002.342	2858.25
1002.561	2773.25
1002.78	2793.25
1002.999	2881.25
1003.218	2793.25
1003.436	2722.25
1003.655	2774.25
1003.874	2715.25
1004.092	2729.25
1004.311	2763.25
1004.53	2700.25
1004.748	2799.25
1004.966	2631.25
1005.185	2717.25
1005.403	2709.25
1005.622	2720.25
1005.84	2757.25
1006.058	2665.25
1006.276	2654.25
1006.494	3164.25
1006.712	2649.25
1006.931	2714.25
1007.149	2645.25
1007.367	2605.25
1007.584	2679.25
1007.802	2710.25
1008.02	2658.25
1008.238	2749.25
1008.456	2727.25
1008.673	2605.25
1008.891	2738.25
1009.109	2714.25
1009.326	2747.25
1009.544	2859.25
1009.761	2798.25
1009.979	2871.25
1010.196	2931.25
1010.413	3037.25
1010.631	3122.25
1010.848	3223.25
1011.065	3215.25
1011.282	3164.25
1011.5	3094.25
1011.717	3199.25
1011.934	3132.25
1012.151	3176.25
1012.368	3121.25
1012.585	3102.25
1012.801	3107.25
1013.018	3091.25
1013.235	3054.25
1013.452	3027.25
1013.669	3088.25
1013.885	3051.25
1014.102	3065.25
1014.318	3104.25
1014.535	3037.25
1014.751	3049.25
1014.968	3039.25
1015.184	3029.25
1015.401	2948.25
1015.617	2959.25
1015.833	2908.25
1016.049	2878.25
1016.266	2846.25
1016.482	2797.25
1016.698	2720.25
1016.914	2776.25
1017.13	2694.25
1017.346	2665.25
1017.562	2720.25
1017.778	2664.25
1017.993	2624.25
1018.209	2683.25
1018.425	2650.25
1018.641	2615.25
1018.856	2600.25
1019.072	2610.25
1019.288	2661.25
1019.503	2620.25
1019.719	2526.25
1019.934	2520.25
1020.149	2590.25
1020.365	2508.25
1020.58	2438.25
1020.795	2461.25
1021.011	2363.25
1021.226	2313.25
1021.441	2319.25
1021.656	2228.25
1021.871	2129.25
1022.086	2112.25
1022.301	2096.25
1022.516	2062.25
1022.731	2092.25
1022.946	2005.25
1023.16	1971.25
1023.375	1958.25
1023.59	1921.25
1023.804	1857.25
1024.019	1923.25
1024.234	1825.25
1024.448	1819.25
1024.663	1722.25
1024.877	1730.25
1025.092	1720.25
1025.306	1695.25
1025.52	1564.25
1025.734	1654.25
1025.949	1581.25
1026.163	1532.25
1026.377	1428.25
1026.591	1485.25
1026.805	1413.25
1027.019	1387.25
1027.233	1325.25
1027.447	1264.25
1027.661	1364.25
1027.875	1301.25
1028.088	1293.25
1028.302	1183.25
1028.516	1180.25
1028.73	1165.25
1028.943	1139.25
1029.157	1068.25
1029.37	1017.25
1029.584	0.25
1029.797	0.25
1030.011	-1.75
1030.224	-1.75
