Data from QEP037381__200__14-59-35-845.txt Node

Date: Fri Dec 16 14:59:35 EST 2022
User: dcclab
Spectrometer: QEP03738
Trigger mode: 4
Integration Time (sec): 1.000000E1
Scans to average: 1
Electric dark correction enabled: true
Nonlinearity correction enabled: false
Boxcar width: 0
XAxis mode: Wavelengths
Number of Pixels in Spectrum: 1044
>>>>>Begin Spectral Data<<<<<
784.041	12.12
784.3	0.12
784.558	-1.88
784.817	-3.88
785.075	114752.12
785.334	20044.12
785.592	9356.12
785.851	6456.12
786.109	4886.12
786.368	3797.12
786.626	3060.12
786.884	2598.12
787.143	2165.12
787.401	1772.12
787.659	1589.12
787.917	1351.12
788.175	1251.12
788.433	1084.12
788.691	974.12
788.949	887.12
789.207	870.12
789.465	741.12
789.723	740.12
789.98	662.12
790.238	681.12
790.496	674.12
790.753	624.12
791.011	676.12
791.268	592.12
791.526	565.12
791.783	607.12
792.041	574.12
792.298	500.12
792.556	564.12
792.813	538.12
793.07	519.12
793.327	508.12
793.584	571.12
793.841	509.12
794.099	526.12
794.356	587.12
794.613	482.12
794.869	525.12
795.126	476.12
795.383	456.12
795.64	495.12
795.897	435.12
796.153	499.12
796.41	495.12
796.667	473.12
796.923	488.12
797.18	495.12
797.436	522.12
797.693	482.12
797.949	543.12
798.206	567.12
798.462	478.12
798.718	540.12
798.974	527.12
799.231	562.12
799.487	571.12
799.743	581.12
799.999	617.12
800.255	626.12
800.511	594.12
800.767	664.12
801.023	678.12
801.279	726.12
801.534	812.12
801.79	884.12
802.046	977.12
802.302	1166.12
802.557	1398.12
802.813	1833.12
803.068	2345.12
803.324	3321.12
803.579	4626.12
803.835	6465.12
804.09	8928.12
804.345	11660.12
804.601	14746.12
804.856	17868.12
805.111	20625.12
805.366	22843.12
805.621	24320.12
805.876	25404.12
806.131	26076.12
806.386	26651.12
806.641	27111.12
806.896	27540.12
807.151	28026.12
807.406	28484.12
807.661	29001.12
807.915	29431.12
808.17	30061.12
808.425	30239.12
808.679	30394.12
808.934	30800.12
809.188	30976.12
809.443	31370.12
809.697	31754.12
809.951	31984.12
810.206	32163.12
810.46	32530.12
810.714	32847.12
810.968	33122.12
811.223	33395.12
811.477	33582.12
811.731	33797.12
811.985	34054.12
812.239	34107.12
812.493	34372.12
812.747	34486.12
813	34611.12
813.254	34567.12
813.508	34866.12
813.762	35164.12
814.015	35200.12
814.269	35421.12
814.522	35696.12
814.776	36122.12
815.03	36507.12
815.283	37022.12
815.536	37629.12
815.79	38220.12
816.043	38706.12
816.296	39213.12
816.55	39600.12
816.803	40054.12
817.056	40696.12
817.309	40946.12
817.562	41376.12
817.815	41620.12
818.068	41946.12
818.321	42400.12
818.574	42830.12
818.827	43288.12
819.079	43801.12
819.332	44600.12
819.585	45075.12
819.838	45602.12
820.09	45890.12
820.343	46160.12
820.595	46383.12
820.848	46718.12
821.1	46755.12
821.353	46922.12
821.605	46832.12
821.857	46856.12
822.11	46693.12
822.362	46497.12
822.614	46432.12
822.866	46635.12
823.118	46484.12
823.37	46760.12
823.622	46817.12
823.874	46904.12
824.126	47052.12
824.378	47112.12
824.63	47075.12
824.882	47406.12
825.134	47337.12
825.385	47153.12
825.637	47171.12
825.888	47042.12
826.14	46851.12
826.392	46802.12
826.643	46476.12
826.895	46496.12
827.146	46221.12
827.397	46193.12
827.649	46254.12
827.9	46008.12
828.151	46131.12
828.402	46162.12
828.653	46338.12
828.905	46462.12
829.156	46547.12
829.407	46587.12
829.658	46667.12
829.909	46532.12
830.159	46865.12
830.41	46565.12
830.661	46112.12
830.912	45900.12
831.162	45499.12
831.413	45656.12
831.664	45563.12
831.914	45488.12
832.165	45303.12
832.415	45464.12
832.666	45456.12
832.916	45471.12
833.167	45477.12
833.417	45540.12
833.667	45260.12
833.917	45089.12
834.168	44943.12
834.418	44762.12
834.668	44688.12
834.918	44416.12
835.168	44236.12
835.418	44035.12
835.668	44018.12
835.918	43920.12
836.167	43801.12
836.417	43574.12
836.667	43507.12
836.917	43692.12
837.166	43562.12
837.416	43557.12
837.666	43647.12
837.915	43460.12
838.165	43531.12
838.414	43123.12
838.663	43135.12
838.913	43206.12
839.162	43088.12
839.411	42970.12
839.661	42730.12
839.91	42647.12
840.159	42595.12
840.408	42452.12
840.657	42559.12
840.906	42488.12
841.155	42406.12
841.404	42465.12
841.653	42582.12
841.902	42650.12
842.15	42614.12
842.399	42773.12
842.648	42565.12
842.897	42376.12
843.145	42167.12
843.394	41835.12
843.642	41460.12
843.891	41444.12
844.139	41162.12
844.388	40992.12
844.636	40884.12
844.884	40833.12
845.133	40787.12
845.381	40681.12
845.629	40671.12
845.877	40791.12
846.125	40495.12
846.373	40594.12
846.621	40196.12
846.869	40132.12
847.117	39920.12
847.365	39735.12
847.613	39724.12
847.861	39387.12
848.108	39574.12
848.356	39489.12
848.604	39403.12
848.851	39269.12
849.099	39253.12
849.346	39248.12
849.594	39468.12
849.841	39616.12
850.089	39723.12
850.336	39628.12
850.583	39668.12
850.831	39485.12
851.078	39178.12
851.325	39112.12
851.572	39135.12
851.819	38732.12
852.066	38098.12
852.313	37865.12
852.56	37477.12
852.807	37358.12
853.054	37146.12
853.301	37141.12
853.548	37326.12
853.794	37322.12
854.041	37382.12
854.288	37535.12
854.534	37849.12
854.781	37851.12
855.028	37609.12
855.274	37696.12
855.52	37669.12
855.767	37320.12
856.013	37540.12
856.26	37598.12
856.506	37028.12
856.752	37025.12
856.998	36938.12
857.244	37075.12
857.49	37208.12
857.736	37373.12
857.982	37088.12
858.228	37083.12
858.474	36825.12
858.72	36590.12
858.966	36282.12
859.212	35929.12
859.458	35593.12
859.703	35273.12
859.949	34927.12
860.195	34620.12
860.44	34483.12
860.686	34383.12
860.931	34334.12
861.177	34158.12
861.422	33981.12
861.667	33834.12
861.913	33768.12
862.158	33839.12
862.403	34008.12
862.648	34191.12
862.893	33985.12
863.138	33945.12
863.384	33783.12
863.629	33835.12
863.873	33653.12
864.118	33837.12
864.363	33525.12
864.608	33477.12
864.853	33257.12
865.098	33027.12
865.342	32907.12
865.587	32828.12
865.832	32756.12
866.076	32714.12
866.321	32657.12
866.565	32568.12
866.81	32312.12
867.054	32324.12
867.298	32253.12
867.543	32091.12
867.787	31986.12
868.031	31947.12
868.275	31824.12
868.519	31842.12
868.764	31686.12
869.008	31599.12
869.252	31515.12
869.496	31405.12
869.739	31394.12
869.983	31332.12
870.227	31466.12
870.471	31364.12
870.715	31480.12
870.958	31456.12
871.202	31545.12
871.446	31689.12
871.689	31585.12
871.933	31704.12
872.176	31653.12
872.42	31442.12
872.663	31496.12
872.906	31375.12
873.15	31345.12
873.393	31257.12
873.636	31115.12
873.879	30836.12
874.122	30617.12
874.366	30240.12
874.609	29859.12
874.852	29724.12
875.095	29562.12
875.337	29203.12
875.58	29127.12
875.823	29140.12
876.066	29023.12
876.309	28871.12
876.551	28671.12
876.794	28557.12
877.037	28561.12
877.279	28413.12
877.522	28417.12
877.764	28327.12
878.007	28433.12
878.249	28287.12
878.491	28354.12
878.734	28198.12
878.976	28241.12
879.218	28015.12
879.46	27927.12
879.702	27568.12
879.945	27439.12
880.187	27187.12
880.429	27069.12
880.671	26961.12
880.912	26741.12
881.154	26700.12
881.396	26414.12
881.638	26629.12
881.88	26498.12
882.121	26523.12
882.363	26582.12
882.605	26552.12
882.846	26391.12
883.088	26308.12
883.329	26285.12
883.571	26469.12
883.812	26661.12
884.053	26975.12
884.295	27505.12
884.536	27704.12
884.777	27506.12
885.018	27321.12
885.259	27267.12
885.5	26959.12
885.742	27251.12
885.982	26936.12
886.223	26662.12
886.464	26515.12
886.705	26348.12
886.946	26081.12
887.187	25581.12
887.428	25459.12
887.668	25116.12
887.909	24711.12
888.15	24472.12
888.39	24310.12
888.631	24119.12
888.871	23959.12
889.111	23692.12
889.352	23605.12
889.592	23360.12
889.833	23205.12
890.073	23204.12
890.313	22976.12
890.553	22816.12
890.793	22673.12
891.033	22587.12
891.273	22435.12
891.513	22362.12
891.753	22434.12
891.993	22428.12
892.233	22328.12
892.473	22431.12
892.713	22346.12
892.952	22466.12
893.192	22491.12
893.432	22371.12
893.671	22327.12
893.911	22086.12
894.15	22057.12
894.39	21888.12
894.629	21780.12
894.869	21604.12
895.108	21504.12
895.347	21484.12
895.587	21325.12
895.826	21353.12
896.065	21195.12
896.304	21183.12
896.543	21035.12
896.782	21064.12
897.021	21178.12
897.26	20953.12
897.499	21014.12
897.738	21035.12
897.977	20801.12
898.216	20609.12
898.454	20446.12
898.693	20202.12
898.932	20252.12
899.17	20148.12
899.409	20069.12
899.647	20066.12
899.886	20049.12
900.124	20014.12
900.363	20018.12
900.601	20030.12
900.839	20053.12
901.078	20087.12
901.316	20217.12
901.554	20260.12
901.792	20362.12
902.03	20275.12
902.268	20272.12
902.506	20201.12
902.744	20135.12
902.982	19857.12
903.22	19737.12
903.458	19462.12
903.695	19163.12
903.933	18982.12
904.171	18540.12
904.409	18306.12
904.646	18077.12
904.884	17914.12
905.121	17733.12
905.359	17538.12
905.596	17369.12
905.833	17248.12
906.071	17023.12
906.308	17130.12
906.545	17008.12
906.783	16997.12
907.02	17015.12
907.257	16945.12
907.494	16860.12
907.731	16734.12
907.968	16592.12
908.205	16522.12
908.442	16440.12
908.679	16379.12
908.915	16206.12
909.152	16081.12
909.389	15862.12
909.626	15868.12
909.862	15792.12
910.099	15621.12
910.335	15708.12
910.572	15410.12
910.808	15449.12
911.045	15347.12
911.281	15350.12
911.518	15404.12
911.754	15225.12
911.99	15203.12
912.226	14963.12
912.463	14859.12
912.699	14807.12
912.935	14609.12
913.171	14558.12
913.407	14473.12
913.643	14333.12
913.879	14215.12
914.114	14143.12
914.35	13974.12
914.586	13812.12
914.822	13658.12
915.057	13675.12
915.293	13479.12
915.529	13376.12
915.764	13439.12
916	13472.12
916.235	13327.12
916.471	13261.12
916.706	13211.12
916.941	13239.12
917.177	13178.12
917.412	13165.12
917.647	13172.12
917.882	13128.12
918.117	13100.12
918.352	13002.12
918.588	13064.12
918.823	12835.12
919.057	12763.12
919.292	12561.12
919.527	12513.12
919.762	12354.12
919.997	12309.12
920.232	12157.12
920.466	12074.12
920.701	11881.12
920.935	11888.12
921.17	11829.12
921.405	11720.12
921.639	11775.12
921.873	11624.12
922.108	11670.12
922.342	11584.12
922.576	11533.12
922.811	11389.12
923.045	11432.12
923.279	11459.12
923.513	11309.12
923.747	11374.12
923.981	11185.12
924.215	11078.12
924.449	11058.12
924.683	10934.12
924.917	10845.12
925.151	10875.12
925.385	10811.12
925.618	10756.12
925.852	10805.12
926.086	10701.12
926.319	10656.12
926.553	10664.12
926.786	10588.12
927.02	10675.12
927.253	10701.12
927.486	10668.12
927.72	10584.12
927.953	10545.12
928.186	10460.12
928.42	10506.12
928.653	10380.12
928.886	10337.12
929.119	10319.12
929.352	10201.12
929.585	10221.12
929.818	10072.12
930.051	10097.12
930.284	9983.12
930.516	9750.12
930.749	9756.12
930.982	9795.12
931.215	9764.12
931.447	9649.12
931.68	9547.12
931.912	9602.12
932.145	9553.12
932.377	9586.12
932.61	9711.12
932.842	9469.12
933.074	9534.12
933.307	9416.12
933.539	9510.12
933.771	9544.12
934.003	9447.12
934.236	9560.12
934.468	9500.12
934.7	9391.12
934.932	9401.12
935.164	9305.12
935.395	9312.12
935.627	9324.12
935.859	9304.12
936.091	9226.12
936.323	9247.12
936.554	9201.12
936.786	9084.12
937.017	9034.12
937.249	9063.12
937.481	9011.12
937.712	9008.12
937.943	8932.12
938.175	8879.12
938.406	8905.12
938.637	8942.12
938.869	8795.12
939.1	8874.12
939.331	8767.12
939.562	8805.12
939.793	8731.12
940.024	8770.12
940.255	8755.12
940.486	8615.12
940.717	8597.12
940.948	8549.12
941.179	8530.12
941.409	8520.12
941.64	8491.12
941.871	8557.12
942.102	8472.12
942.332	8384.12
942.563	8412.12
942.793	8509.12
943.024	8362.12
943.254	8384.12
943.484	8460.12
943.715	8392.12
943.945	8359.12
944.175	8250.12
944.405	8262.12
944.636	8280.12
944.866	8290.12
945.096	8301.12
945.326	8168.12
945.556	8249.12
945.786	8186.12
946.016	8048.12
946.245	7999.12
946.475	7991.12
946.705	7955.12
946.935	7948.12
947.164	7919.12
947.394	7781.12
947.624	7799.12
947.853	7805.12
948.083	7722.12
948.312	7652.12
948.542	7595.12
948.771	7584.12
949	7600.12
949.23	7522.12
949.459	7587.12
949.688	7583.12
949.917	7543.12
950.146	7497.12
950.375	7510.12
950.604	7404.12
950.833	7519.12
951.062	7433.12
951.291	7391.12
951.52	7370.12
951.749	7363.12
951.978	7276.12
952.206	7321.12
952.435	7260.12
952.664	7314.12
952.892	7260.12
953.121	7150.12
953.349	7195.12
953.578	7181.12
953.806	7122.12
954.035	6985.12
954.263	7033.12
954.491	6936.12
954.719	7005.12
954.948	6917.12
955.176	6875.12
955.404	6798.12
955.632	6829.12
955.86	6791.12
956.088	6726.12
956.316	6735.12
956.544	6743.12
956.772	6595.12
956.999	6603.12
957.227	6638.12
957.455	6503.12
957.683	6509.12
957.91	6455.12
958.138	6401.12
958.365	6361.12
958.593	6316.12
958.82	6290.12
959.048	6400.12
959.275	6240.12
959.502	6225.12
959.73	6233.12
959.957	6246.12
960.184	6230.12
960.411	6161.12
960.638	6289.12
960.865	6112.12
961.092	6159.12
961.319	6093.12
961.546	6152.12
961.773	6136.12
962	6105.12
962.227	6140.12
962.454	6055.12
962.68	6028.12
962.907	6018.12
963.134	5948.12
963.36	5944.12
963.587	5960.12
963.813	5867.12
964.04	5852.12
964.266	5751.12
964.493	5792.12
964.719	5757.12
964.945	5726.12
965.171	5560.12
965.398	5650.12
965.624	5649.12
965.85	5534.12
966.076	5538.12
966.302	5539.12
966.528	5454.12
966.754	5484.12
966.98	5468.12
967.206	5488.12
967.431	5384.12
967.657	5455.12
967.883	5424.12
968.109	5386.12
968.334	5297.12
968.56	5305.12
968.785	5297.12
969.011	5273.12
969.236	5267.12
969.462	5251.12
969.687	5218.12
969.912	5237.12
970.138	5246.12
970.363	5161.12
970.588	5214.12
970.813	5125.12
971.038	5086.12
971.263	5105.12
971.488	5088.12
971.713	5041.12
971.938	5042.12
972.163	4922.12
972.388	4988.12
972.613	4900.12
972.838	4959.12
973.062	4892.12
973.287	4830.12
973.512	4756.12
973.736	4858.12
973.961	4787.12
974.185	4733.12
974.41	4749.12
974.634	4651.12
974.858	4633.12
975.083	4621.12
975.307	4686.12
975.531	4567.12
975.755	4533.12
975.98	4547.12
976.204	4453.12
976.428	4421.12
976.652	4398.12
976.876	4397.12
977.1	4428.12
977.324	4345.12
977.547	4375.12
977.771	4368.12
977.995	4335.12
978.219	4333.12
978.442	4370.12
978.666	4277.12
978.89	4274.12
979.113	4262.12
979.337	4233.12
979.56	4193.12
979.783	4260.12
980.007	4194.12
980.23	4187.12
980.453	4137.12
980.677	4158.12
980.9	4153.12
981.123	4054.12
981.346	4127.12
981.569	3994.12
981.792	4104.12
982.015	4024.12
982.238	3936.12
982.461	3964.12
982.684	3915.12
982.907	3878.12
983.129	3848.12
983.352	3897.12
983.575	3834.12
983.797	3813.12
984.02	3828.12
984.242	3804.12
984.465	3781.12
984.687	3782.12
984.91	3794.12
985.132	3733.12
985.354	3736.12
985.577	3708.12
985.799	3707.12
986.021	3606.12
986.243	3612.12
986.465	3591.12
986.687	3646.12
986.909	3674.12
987.131	3617.12
987.353	3553.12
987.575	3567.12
987.797	3499.12
988.019	3460.12
988.241	3526.12
988.462	3492.12
988.684	3493.12
988.906	3517.12
989.127	3548.12
989.349	3453.12
989.57	3438.12
989.792	3434.12
990.013	3438.12
990.234	3471.12
990.456	3480.12
990.677	3440.12
990.898	3379.12
991.119	3345.12
991.341	3387.12
991.562	3303.12
991.783	3304.12
992.004	3246.12
992.225	3213.12
992.446	3248.12
992.667	3156.12
992.887	3221.12
993.108	3109.12
993.329	3232.12
993.55	3185.12
993.77	3071.12
993.991	3040.12
994.212	3131.12
994.432	3058.12
994.653	3093.12
994.873	3017.12
995.093	2921.12
995.314	2995.12
995.534	3047.12
995.754	3049.12
995.975	3036.12
996.195	2929.12
996.415	2984.12
996.635	2933.12
996.855	2959.12
997.075	2947.12
997.295	2926.12
997.515	2887.12
997.735	2953.12
997.955	2903.12
998.174	2942.12
998.394	2892.12
998.614	2890.12
998.834	2871.12
999.053	2902.12
999.273	2854.12
999.492	2887.12
999.712	2834.12
999.931	2785.12
1000.151	2794.12
1000.37	2747.12
1000.589	2828.12
1000.809	2727.12
1001.028	2856.12
1001.247	2736.12
1001.466	2649.12
1001.685	2767.12
1001.904	2663.12
1002.123	2660.12
1002.342	2660.12
1002.561	2601.12
1002.78	2637.12
1002.999	2655.12
1003.218	2604.12
1003.436	2547.12
1003.655	2602.12
1003.874	2560.12
1004.092	2583.12
1004.311	2568.12
1004.53	2544.12
1004.748	2613.12
1004.966	2526.12
1005.185	2570.12
1005.403	2553.12
1005.622	2523.12
1005.84	2577.12
1006.058	2491.12
1006.276	2516.12
1006.494	2983.12
1006.712	2478.12
1006.931	2570.12
1007.149	2455.12
1007.367	2485.12
1007.584	2507.12
1007.802	2548.12
1008.02	2493.12
1008.238	2591.12
1008.456	2610.12
1008.673	2478.12
1008.891	2611.12
1009.109	2594.12
1009.326	2659.12
1009.544	2770.12
1009.761	2688.12
1009.979	2814.12
1010.196	2862.12
1010.413	3032.12
1010.631	3132.12
1010.848	3193.12
1011.065	3212.12
1011.282	3168.12
1011.5	3085.12
1011.717	3222.12
1011.934	3124.12
1012.151	3162.12
1012.368	3078.12
1012.585	3074.12
1012.801	3128.12
1013.018	3065.12
1013.235	3075.12
1013.452	3086.12
1013.669	3083.12
1013.885	3051.12
1014.102	3115.12
1014.318	3085.12
1014.535	3057.12
1014.751	3068.12
1014.968	3039.12
1015.184	3037.12
1015.401	2944.12
1015.617	2957.12
1015.833	2879.12
1016.049	2872.12
1016.266	2810.12
1016.482	2789.12
1016.698	2740.12
1016.914	2734.12
1017.13	2651.12
1017.346	2674.12
1017.562	2741.12
1017.778	2683.12
1017.993	2586.12
1018.209	2661.12
1018.425	2627.12
1018.641	2594.12
1018.856	2547.12
1019.072	2593.12
1019.288	2594.12
1019.503	2597.12
1019.719	2496.12
1019.934	2485.12
1020.149	2545.12
1020.365	2482.12
1020.58	2414.12
1020.795	2367.12
1021.011	2327.12
1021.226	2271.12
1021.441	2283.12
1021.656	2199.12
1021.871	2094.12
1022.086	2074.12
1022.301	2055.12
1022.516	2045.12
1022.731	2049.12
1022.946	1965.12
1023.16	1931.12
1023.375	1894.12
1023.59	1821.12
1023.804	1772.12
1024.019	1882.12
1024.234	1728.12
1024.448	1759.12
1024.663	1670.12
1024.877	1653.12
1025.092	1673.12
1025.306	1627.12
1025.52	1493.12
1025.734	1599.12
1025.949	1513.12
1026.163	1449.12
1026.377	1386.12
1026.591	1439.12
1026.805	1320.12
1027.019	1353.12
1027.233	1280.12
1027.447	1225.12
1027.661	1313.12
1027.875	1249.12
1028.088	1245.12
1028.302	1158.12
1028.516	1115.12
1028.73	1092.12
1028.943	1083.12
1029.157	1032.12
1029.37	953.12
1029.584	1.12
1029.797	-2.88
1030.011	-3.88
1030.224	-0.88
