Data from QEP037381__158__14-52-35-839.txt Node

Date: Fri Dec 16 14:52:35 EST 2022
User: dcclab
Spectrometer: QEP03738
Trigger mode: 4
Integration Time (sec): 1.000000E1
Scans to average: 1
Electric dark correction enabled: true
Nonlinearity correction enabled: false
Boxcar width: 0
XAxis mode: Wavelengths
Number of Pixels in Spectrum: 1044
>>>>>Begin Spectral Data<<<<<
784.041	12.38
784.3	-0.62
784.558	0.38
784.817	-2.62
785.075	114240.38
785.334	20073.38
785.592	9496.38
785.851	6644.38
786.109	4975.38
786.368	3885.38
786.626	3120.38
786.884	2586.38
787.143	2188.38
787.401	1801.38
787.659	1594.38
787.917	1393.38
788.175	1269.38
788.433	1103.38
788.691	1015.38
788.949	952.38
789.207	901.38
789.465	802.38
789.723	762.38
789.98	719.38
790.238	730.38
790.496	702.38
790.753	663.38
791.011	714.38
791.268	640.38
791.526	643.38
791.783	639.38
792.041	632.38
792.298	538.38
792.556	601.38
792.813	583.38
793.07	560.38
793.327	569.38
793.584	637.38
793.841	552.38
794.099	572.38
794.356	631.38
794.613	540.38
794.869	571.38
795.126	521.38
795.383	532.38
795.64	561.38
795.897	501.38
796.153	564.38
796.41	552.38
796.667	542.38
796.923	555.38
797.18	568.38
797.436	593.38
797.693	539.38
797.949	623.38
798.206	642.38
798.462	573.38
798.718	647.38
798.974	643.38
799.231	675.38
799.487	684.38
799.743	704.38
799.999	751.38
800.255	768.38
800.511	786.38
800.767	827.38
801.023	865.38
801.279	945.38
801.534	1016.38
801.79	1163.38
802.046	1331.38
802.302	1610.38
802.557	1968.38
802.813	2566.38
803.068	3463.38
803.324	4916.38
803.579	6958.38
803.835	9843.38
804.09	13669.38
804.345	17987.38
804.601	22890.38
804.856	27804.38
805.111	32258.38
805.366	35593.38
805.621	38378.38
805.876	40096.38
806.131	41348.38
806.386	42374.38
806.641	43225.38
806.896	43769.38
807.151	44767.38
807.406	45381.38
807.661	46361.38
807.915	47228.38
808.17	48103.38
808.425	48531.38
808.679	48915.38
808.934	49749.38
809.188	50006.38
809.443	50603.38
809.697	51027.38
809.951	51525.38
810.206	52069.38
810.46	52751.38
810.714	53002.38
810.968	53555.38
811.223	53895.38
811.477	54370.38
811.731	54954.38
811.985	55222.38
812.239	55566.38
812.493	55897.38
812.747	56125.38
813	56470.38
813.254	56555.38
813.508	56905.38
813.762	57200.38
814.015	57360.38
814.269	57942.38
814.522	58173.38
814.776	58865.38
815.03	59789.38
815.283	60855.38
815.536	61767.38
815.79	62842.38
816.043	63719.38
816.296	64510.38
816.55	65328.38
816.803	66201.38
817.056	66911.38
817.309	67676.38
817.562	68280.38
817.815	69035.38
818.068	69489.38
818.321	70302.38
818.574	71222.38
818.827	72128.38
819.079	73042.38
819.332	74000.38
819.585	74759.38
819.838	75781.38
820.09	76468.38
820.343	77013.38
820.595	77438.38
820.848	77978.38
821.1	78441.38
821.353	78554.38
821.605	78595.38
821.857	78560.38
822.11	78278.38
822.362	78162.38
822.614	78325.38
822.866	78091.38
823.118	78046.38
823.37	78148.38
823.622	78428.38
823.874	78529.38
824.126	78875.38
824.378	79185.38
824.63	79354.38
824.882	79557.38
825.134	79919.38
825.385	79613.38
825.637	79415.38
825.888	79436.38
826.14	79521.38
826.392	78944.38
826.643	78544.38
826.895	78551.38
827.146	78270.38
827.397	78276.38
827.649	78108.38
827.9	78155.38
828.151	78363.38
828.402	78568.38
828.653	78644.38
828.905	78892.38
829.156	78953.38
829.407	78851.38
829.658	78912.38
829.909	78857.38
830.159	78726.38
830.41	78437.38
830.661	78147.38
830.912	77402.38
831.162	77398.38
831.413	77098.38
831.664	77258.38
831.914	77065.38
832.165	77216.38
832.415	77095.38
832.666	77333.38
832.916	77385.38
833.167	77172.38
833.417	77142.38
833.667	77042.38
833.917	76780.38
834.168	76555.38
834.418	76223.38
834.668	75968.38
834.918	75726.38
835.168	75272.38
835.418	75228.38
835.668	75094.38
835.918	74963.38
836.167	74906.38
836.417	74578.38
836.667	74488.38
836.917	74464.38
837.166	74270.38
837.416	74220.38
837.666	74350.38
837.915	74120.38
838.165	74154.38
838.414	73772.38
838.663	73662.38
838.913	73525.38
839.162	73498.38
839.411	73290.38
839.661	73009.38
839.91	72657.38
840.159	72569.38
840.408	72482.38
840.657	72335.38
840.906	72513.38
841.155	72539.38
841.404	72482.38
841.653	72532.38
841.902	72796.38
842.15	72691.38
842.399	72717.38
842.648	72633.38
842.897	72366.38
843.145	71994.38
843.394	71572.38
843.642	71272.38
843.891	71029.38
844.139	70623.38
844.388	70293.38
844.636	69849.38
844.884	69969.38
845.133	69818.38
845.381	69837.38
845.629	69888.38
845.877	69800.38
846.125	69438.38
846.373	69443.38
846.621	69220.38
846.869	68977.38
847.117	68642.38
847.365	68386.38
847.613	68082.38
847.861	68066.38
848.108	67741.38
848.356	67511.38
848.604	67440.38
848.851	67259.38
849.099	67484.38
849.346	67704.38
849.594	68072.38
849.841	68124.38
850.089	68180.38
850.336	68456.38
850.583	68441.38
850.831	68099.38
851.078	67527.38
851.325	67269.38
851.572	67128.38
851.819	66621.38
852.066	65628.38
852.313	65024.38
852.56	64735.38
852.807	64254.38
853.054	64039.38
853.301	63970.38
853.548	64284.38
853.794	64430.38
854.041	64645.38
854.288	64910.38
854.534	65082.38
854.781	65117.38
855.028	65086.38
855.274	64826.38
855.52	64362.38
855.767	64079.38
856.013	63854.38
856.26	64034.38
856.506	63332.38
856.752	63356.38
856.998	63279.38
857.244	63493.38
857.49	63673.38
857.736	63743.38
857.982	63781.38
858.228	63729.38
858.474	63400.38
858.72	63100.38
858.966	62580.38
859.212	61904.38
859.458	61511.38
859.703	60805.38
859.949	60134.38
860.195	59791.38
860.44	59504.38
860.686	59305.38
860.931	59138.38
861.177	58957.38
861.422	58944.38
861.667	58757.38
861.913	58839.38
862.158	58943.38
862.403	59126.38
862.648	59178.38
862.893	59080.38
863.138	59133.38
863.384	58999.38
863.629	58938.38
863.873	58771.38
864.118	58681.38
864.363	58422.38
864.608	58143.38
864.853	57789.38
865.098	57652.38
865.342	57399.38
865.587	57270.38
865.832	57309.38
866.076	57054.38
866.321	56827.38
866.565	56754.38
866.81	56524.38
867.054	56364.38
867.298	55937.38
867.543	55873.38
867.787	55886.38
868.031	55420.38
868.275	55450.38
868.519	55245.38
868.764	55367.38
869.008	55103.38
869.252	54877.38
869.496	54847.38
869.739	54605.38
869.983	54348.38
870.227	54272.38
870.471	54360.38
870.715	54466.38
870.958	54263.38
871.202	54517.38
871.446	54713.38
871.689	54402.38
871.933	54529.38
872.176	54627.38
872.42	54442.38
872.663	54263.38
872.906	54093.38
873.15	53940.38
873.393	53391.38
873.636	53361.38
873.879	52900.38
874.122	52167.38
874.366	51719.38
874.609	51484.38
874.852	51261.38
875.095	51082.38
875.337	50834.38
875.58	50333.38
875.823	50519.38
876.066	50271.38
876.309	50145.38
876.551	49790.38
876.794	49731.38
877.037	49490.38
877.279	49448.38
877.522	49475.38
877.764	49596.38
878.007	49393.38
878.249	49567.38
878.491	49338.38
878.734	49373.38
878.976	49228.38
879.218	48984.38
879.46	48734.38
879.702	48321.38
879.945	48006.38
880.187	47665.38
880.429	47432.38
880.671	47153.38
880.912	47187.38
881.154	46922.38
881.396	46692.38
881.638	46881.38
881.88	46639.38
882.121	46492.38
882.363	46518.38
882.605	46350.38
882.846	46210.38
883.088	45959.38
883.329	45890.38
883.571	45703.38
883.812	45693.38
884.053	46010.38
884.295	46371.38
884.536	46519.38
884.777	46064.38
885.018	45901.38
885.259	45856.38
885.5	45651.38
885.742	45889.38
885.982	45390.38
886.223	45505.38
886.464	45389.38
886.705	45182.38
886.946	44984.38
887.187	44572.38
887.428	44154.38
887.668	43703.38
887.909	43362.38
888.15	42966.38
888.39	42658.38
888.631	42465.38
888.871	42102.38
889.111	41952.38
889.352	41593.38
889.592	41312.38
889.833	41155.38
890.073	40664.38
890.313	40685.38
890.553	40381.38
890.793	40091.38
891.033	40169.38
891.273	39806.38
891.513	39698.38
891.753	39549.38
891.993	39426.38
892.233	39502.38
892.473	39653.38
892.713	39665.38
892.952	39542.38
893.192	39571.38
893.432	39445.38
893.671	39427.38
893.911	39200.38
894.15	38936.38
894.39	38628.38
894.629	38319.38
894.869	38155.38
895.108	37987.38
895.347	37782.38
895.587	37731.38
895.826	37627.38
896.065	37383.38
896.304	37505.38
896.543	37223.38
896.782	37107.38
897.021	37048.38
897.26	36850.38
897.499	36812.38
897.738	36639.38
897.977	36444.38
898.216	36081.38
898.454	35826.38
898.693	35534.38
898.932	35483.38
899.17	35123.38
899.409	35145.38
899.647	35059.38
899.886	34959.38
900.124	34999.38
900.363	34875.38
900.601	34924.38
900.839	34996.38
901.078	34899.38
901.316	34895.38
901.554	34772.38
901.792	34899.38
902.03	34787.38
902.268	34670.38
902.506	34674.38
902.744	34517.38
902.982	34347.38
903.22	34087.38
903.458	33800.38
903.695	33301.38
903.933	33053.38
904.171	32467.38
904.409	32183.38
904.646	31838.38
904.884	31407.38
905.121	31360.38
905.359	30769.38
905.596	30648.38
905.833	30417.38
906.071	30239.38
906.308	30186.38
906.545	30237.38
906.783	29964.38
907.02	29883.38
907.257	29696.38
907.494	29761.38
907.731	29604.38
907.968	29430.38
908.205	29253.38
908.442	29111.38
908.679	28916.38
908.915	28724.38
909.152	28444.38
909.389	28277.38
909.626	28164.38
909.862	28001.38
910.099	27854.38
910.335	27664.38
910.572	27639.38
910.808	27438.38
911.045	27309.38
911.281	27146.38
911.518	27183.38
911.754	26934.38
911.99	26793.38
912.226	26641.38
912.463	26386.38
912.699	26234.38
912.935	26038.38
913.171	25774.38
913.407	25582.38
913.643	25493.38
913.879	25277.38
914.114	24923.38
914.35	24722.38
914.586	24447.38
914.822	24374.38
915.057	24261.38
915.293	23859.38
915.529	23850.38
915.764	23948.38
916	23766.38
916.235	23719.38
916.471	23669.38
916.706	23517.38
916.941	23499.38
917.177	23485.38
917.412	23342.38
917.647	23419.38
917.882	23333.38
918.117	23298.38
918.352	23121.38
918.588	23085.38
918.823	22827.38
919.057	22761.38
919.292	22361.38
919.527	22262.38
919.762	21963.38
919.997	21731.38
920.232	21525.38
920.466	21468.38
920.701	21087.38
920.935	21093.38
921.17	20971.38
921.405	20711.38
921.639	20788.38
921.873	20604.38
922.108	20512.38
922.342	20386.38
922.576	20422.38
922.811	20218.38
923.045	20137.38
923.279	20205.38
923.513	19904.38
923.747	19807.38
923.981	19695.38
924.215	19555.38
924.449	19493.38
924.683	19337.38
924.917	19175.38
925.151	19224.38
925.385	19033.38
925.618	19047.38
925.852	18956.38
926.086	18839.38
926.319	18843.38
926.553	18838.38
926.786	18796.38
927.02	18841.38
927.253	18715.38
927.486	18790.38
927.72	18581.38
927.953	18657.38
928.186	18455.38
928.42	18506.38
928.653	18354.38
928.886	18286.38
929.119	18262.38
929.352	18086.38
929.585	17956.38
929.818	17762.38
930.051	17560.38
930.284	17603.38
930.516	17284.38
930.749	17136.38
930.982	17158.38
931.215	17033.38
931.447	16869.38
931.68	16795.38
931.912	16838.38
932.145	16791.38
932.377	16843.38
932.61	16927.38
932.842	16687.38
933.074	16728.38
933.307	16718.38
933.539	16664.38
933.771	16675.38
934.003	16545.38
934.236	16634.38
934.468	16702.38
934.7	16452.38
934.932	16508.38
935.164	16368.38
935.395	16298.38
935.627	16326.38
935.859	16199.38
936.091	16129.38
936.323	16065.38
936.554	16047.38
936.786	15932.38
937.017	15806.38
937.249	15865.38
937.481	15693.38
937.712	15686.38
937.943	15662.38
938.175	15630.38
938.406	15654.38
938.637	15644.38
938.869	15480.38
939.1	15506.38
939.331	15348.38
939.562	15393.38
939.793	15315.38
940.024	15252.38
940.255	15233.38
940.486	15096.38
940.717	14895.38
940.948	14839.38
941.179	14810.38
941.409	14791.38
941.64	14745.38
941.871	14748.38
942.102	14710.38
942.332	14742.38
942.563	14771.38
942.793	14753.38
943.024	14581.38
943.254	14652.38
943.484	14654.38
943.715	14752.38
943.945	14494.38
944.175	14514.38
944.405	14487.38
944.636	14443.38
944.866	14526.38
945.096	14450.38
945.326	14308.38
945.556	14342.38
945.786	14223.38
946.016	14122.38
946.245	13974.38
946.475	13816.38
946.705	13835.38
946.935	13724.38
947.164	13655.38
947.394	13517.38
947.624	13586.38
947.853	13474.38
948.083	13338.38
948.312	13337.38
948.542	13161.38
948.771	13232.38
949	13058.38
949.23	13114.38
949.459	13108.38
949.688	13131.38
949.917	13063.38
950.146	13042.38
950.375	13040.38
950.604	12929.38
950.833	12983.38
951.062	13002.38
951.291	12968.38
951.52	12886.38
951.749	12728.38
951.978	12706.38
952.206	12680.38
952.435	12612.38
952.664	12577.38
952.892	12562.38
953.121	12526.38
953.349	12435.38
953.578	12359.38
953.806	12287.38
954.035	12218.38
954.263	12194.38
954.491	12060.38
954.719	12138.38
954.948	12001.38
955.176	11873.38
955.404	11755.38
955.632	11769.38
955.86	11788.38
956.088	11683.38
956.316	11676.38
956.544	11615.38
956.772	11465.38
956.999	11378.38
957.227	11414.38
957.455	11284.38
957.683	11194.38
957.91	11178.38
958.138	11130.38
958.365	10999.38
958.593	10955.38
958.82	10857.38
959.048	10953.38
959.275	10827.38
959.502	10829.38
959.73	10787.38
959.957	10715.38
960.184	10724.38
960.411	10642.38
960.638	10690.38
960.865	10659.38
961.092	10641.38
961.319	10521.38
961.546	10556.38
961.773	10592.38
962	10550.38
962.227	10572.38
962.454	10518.38
962.68	10329.38
962.907	10391.38
963.134	10279.38
963.36	10118.38
963.587	10136.38
963.813	10056.38
964.04	10061.38
964.266	9854.38
964.493	9985.38
964.719	9816.38
964.945	9812.38
965.171	9706.38
965.398	9682.38
965.624	9629.38
965.85	9557.38
966.076	9461.38
966.302	9450.38
966.528	9367.38
966.754	9395.38
966.98	9318.38
967.206	9309.38
967.431	9175.38
967.657	9244.38
967.883	9129.38
968.109	9182.38
968.334	9109.38
968.56	9052.38
968.785	9094.38
969.011	8999.38
969.236	9033.38
969.462	8950.38
969.687	8894.38
969.912	8910.38
970.138	8864.38
970.363	8756.38
970.588	8722.38
970.813	8673.38
971.038	8712.38
971.263	8668.38
971.488	8642.38
971.713	8615.38
971.938	8501.38
972.163	8450.38
972.388	8427.38
972.613	8375.38
972.838	8335.38
973.062	8275.38
973.287	8250.38
973.512	8202.38
973.736	8147.38
973.961	8141.38
974.185	8040.38
974.41	8019.38
974.634	7890.38
974.858	7902.38
975.083	7857.38
975.307	7824.38
975.531	7697.38
975.755	7615.38
975.98	7657.38
976.204	7557.38
976.428	7520.38
976.652	7489.38
976.876	7482.38
977.1	7433.38
977.324	7362.38
977.547	7453.38
977.771	7358.38
977.995	7279.38
978.219	7210.38
978.442	7286.38
978.666	7273.38
978.89	7241.38
979.113	7195.38
979.337	7180.38
979.56	7107.38
979.783	7149.38
980.007	6951.38
980.23	7042.38
980.453	7001.38
980.677	6962.38
980.9	6911.38
981.123	6795.38
981.346	6832.38
981.569	6812.38
981.792	6757.38
982.015	6694.38
982.238	6634.38
982.461	6650.38
982.684	6531.38
982.907	6498.38
983.129	6467.38
983.352	6426.38
983.575	6403.38
983.797	6375.38
984.02	6336.38
984.242	6235.38
984.465	6289.38
984.687	6179.38
984.91	6245.38
985.132	6206.38
985.354	6159.38
985.577	6122.38
985.799	6078.38
986.021	5959.38
986.243	5991.38
986.465	5986.38
986.687	5975.38
986.909	6003.38
987.131	5877.38
987.353	5856.38
987.575	5866.38
987.797	5805.38
988.019	5723.38
988.241	5779.38
988.462	5756.38
988.684	5778.38
988.906	5732.38
989.127	5712.38
989.349	5664.38
989.57	5623.38
989.792	5668.38
990.013	5604.38
990.234	5608.38
990.456	5587.38
990.677	5588.38
990.898	5483.38
991.119	5449.38
991.341	5482.38
991.562	5366.38
991.783	5357.38
992.004	5296.38
992.225	5212.38
992.446	5243.38
992.667	5166.38
992.887	5155.38
993.108	5068.38
993.329	5134.38
993.55	5093.38
993.77	4983.38
993.991	4971.38
994.212	4965.38
994.432	4907.38
994.653	4940.38
994.873	4865.38
995.093	4669.38
995.314	4765.38
995.534	4805.38
995.754	4767.38
995.975	4811.38
996.195	4664.38
996.415	4725.38
996.635	4679.38
996.855	4679.38
997.075	4629.38
997.295	4577.38
997.515	4601.38
997.735	4642.38
997.955	4548.38
998.174	4523.38
998.394	4490.38
998.614	4561.38
998.834	4486.38
999.053	4439.38
999.273	4453.38
999.492	4515.38
999.712	4411.38
999.931	4332.38
1000.151	4365.38
1000.37	4309.38
1000.589	4384.38
1000.809	4232.38
1001.028	4299.38
1001.247	4254.38
1001.466	4159.38
1001.685	4250.38
1001.904	4165.38
1002.123	4086.38
1002.342	4076.38
1002.561	4008.38
1002.78	4022.38
1002.999	4061.38
1003.218	3998.38
1003.436	3958.38
1003.655	4003.38
1003.874	3894.38
1004.092	3874.38
1004.311	3924.38
1004.53	3836.38
1004.748	3892.38
1004.966	3792.38
1005.185	3870.38
1005.403	3817.38
1005.622	3811.38
1005.84	3851.38
1006.058	3710.38
1006.276	3707.38
1006.494	4187.38
1006.712	3722.38
1006.931	3755.38
1007.149	3678.38
1007.367	3688.38
1007.584	3653.38
1007.802	3705.38
1008.02	3620.38
1008.238	3728.38
1008.456	3724.38
1008.673	3599.38
1008.891	3723.38
1009.109	3663.38
1009.326	3728.38
1009.544	3798.38
1009.761	3713.38
1009.979	3840.38
1010.196	3829.38
1010.413	4003.38
1010.631	4009.38
1010.848	4078.38
1011.065	4120.38
1011.282	4021.38
1011.5	3946.38
1011.717	4031.38
1011.934	3961.38
1012.151	3999.38
1012.368	3941.38
1012.585	3877.38
1012.801	3897.38
1013.018	3887.38
1013.235	3818.38
1013.452	3881.38
1013.669	3886.38
1013.885	3828.38
1014.102	3890.38
1014.318	3820.38
1014.535	3818.38
1014.751	3803.38
1014.968	3812.38
1015.184	3796.38
1015.401	3689.38
1015.617	3659.38
1015.833	3615.38
1016.049	3581.38
1016.266	3501.38
1016.482	3502.38
1016.698	3397.38
1016.914	3442.38
1017.13	3336.38
1017.346	3354.38
1017.562	3391.38
1017.778	3313.38
1017.993	3273.38
1018.209	3336.38
1018.425	3253.38
1018.641	3247.38
1018.856	3207.38
1019.072	3258.38
1019.288	3260.38
1019.503	3202.38
1019.719	3126.38
1019.934	3112.38
1020.149	3175.38
1020.365	3099.38
1020.58	3002.38
1020.795	3070.38
1021.011	2932.38
1021.226	2928.38
1021.441	2887.38
1021.656	2797.38
1021.871	2729.38
1022.086	2674.38
1022.301	2659.38
1022.516	2614.38
1022.731	2637.38
1022.946	2552.38
1023.16	2506.38
1023.375	2435.38
1023.59	2436.38
1023.804	2334.38
1024.019	2443.38
1024.234	2296.38
1024.448	2302.38
1024.663	2208.38
1024.877	2188.38
1025.092	2208.38
1025.306	2181.38
1025.52	2045.38
1025.734	2107.38
1025.949	2017.38
1026.163	1987.38
1026.377	1891.38
1026.591	1923.38
1026.805	1813.38
1027.019	1769.38
1027.233	1738.38
1027.447	1666.38
1027.661	1764.38
1027.875	1701.38
1028.088	1660.38
1028.302	1556.38
1028.516	1533.38
1028.73	1514.38
1028.943	1443.38
1029.157	1356.38
1029.37	1282.38
1029.584	-2.62
1029.797	-2.62
1030.011	-1.62
1030.224	-2.62
