Data from QEP037381__142__14-49-55-840.txt Node

Date: Fri Dec 16 14:49:55 EST 2022
User: dcclab
Spectrometer: QEP03738
Trigger mode: 4
Integration Time (sec): 1.000000E1
Scans to average: 1
Electric dark correction enabled: true
Nonlinearity correction enabled: false
Boxcar width: 0
XAxis mode: Wavelengths
Number of Pixels in Spectrum: 1044
>>>>>Begin Spectral Data<<<<<
784.041	14.75
784.3	0.75
784.558	-2.25
784.817	-5.25
785.075	114515.75
785.334	19914.75
785.592	9400.75
785.851	6470.75
786.109	4845.75
786.368	3808.75
786.626	3042.75
786.884	2543.75
787.143	2151.75
787.401	1760.75
787.659	1616.75
787.917	1379.75
788.175	1256.75
788.433	1106.75
788.691	1003.75
788.949	920.75
789.207	871.75
789.465	789.75
789.723	736.75
789.98	688.75
790.238	721.75
790.496	669.75
790.753	663.75
791.011	713.75
791.268	626.75
791.526	621.75
791.783	647.75
792.041	608.75
792.298	543.75
792.556	592.75
792.813	570.75
793.07	535.75
793.327	545.75
793.584	629.75
793.841	544.75
794.099	577.75
794.356	634.75
794.613	529.75
794.869	566.75
795.126	527.75
795.383	512.75
795.64	536.75
795.897	494.75
796.153	551.75
796.41	541.75
796.667	542.75
796.923	530.75
797.18	547.75
797.436	573.75
797.693	533.75
797.949	604.75
798.206	630.75
798.462	559.75
798.718	631.75
798.974	613.75
799.231	665.75
799.487	678.75
799.743	702.75
799.999	726.75
800.255	740.75
800.511	733.75
800.767	811.75
801.023	848.75
801.279	919.75
801.534	986.75
801.79	1137.75
802.046	1245.75
802.302	1554.75
802.557	1886.75
802.813	2479.75
803.068	3309.75
803.324	4694.75
803.579	6623.75
803.835	9457.75
804.09	13101.75
804.345	17391.75
804.601	21973.75
804.856	26525.75
805.111	30808.75
805.366	34098.75
805.621	36422.75
805.876	38173.75
806.131	39316.75
806.386	40026.75
806.641	40807.75
806.896	41561.75
807.151	42311.75
807.406	43094.75
807.661	43900.75
807.915	44589.75
808.17	45150.75
808.425	45763.75
808.679	46131.75
808.934	46676.75
809.188	47165.75
809.443	47758.75
809.697	48123.75
809.951	48499.75
810.206	49062.75
810.46	49330.75
810.714	49903.75
810.968	50203.75
811.223	50720.75
811.477	51125.75
811.731	51502.75
811.985	51902.75
812.239	52232.75
812.493	52457.75
812.747	52639.75
813	52813.75
813.254	53190.75
813.508	53484.75
813.762	53627.75
814.015	53923.75
814.269	54442.75
814.522	54794.75
814.776	55374.75
815.03	56218.75
815.283	56896.75
815.536	57951.75
815.79	58752.75
816.043	59438.75
816.296	60449.75
816.55	61127.75
816.803	61819.75
817.056	62601.75
817.309	62986.75
817.562	63716.75
817.815	64284.75
818.068	64969.75
818.321	65650.75
818.574	66246.75
818.827	67075.75
819.079	67911.75
819.332	68897.75
819.585	69751.75
819.838	70585.75
820.09	70997.75
820.343	71667.75
820.595	72248.75
820.848	72681.75
821.1	72907.75
821.353	72955.75
821.605	72903.75
821.857	72723.75
822.11	72794.75
822.362	72659.75
822.614	72510.75
822.866	72463.75
823.118	72335.75
823.37	72676.75
823.622	72690.75
823.874	72839.75
824.126	73089.75
824.378	73496.75
824.63	73617.75
824.882	73737.75
825.134	73782.75
825.385	73689.75
825.637	73540.75
825.888	73648.75
826.14	73273.75
826.392	73052.75
826.643	72818.75
826.895	72545.75
827.146	72259.75
827.397	72208.75
827.649	72221.75
827.9	71965.75
828.151	72101.75
828.402	72487.75
828.653	72586.75
828.905	72602.75
829.156	72868.75
829.407	72683.75
829.658	72827.75
829.909	72776.75
830.159	72654.75
830.41	72357.75
830.661	71815.75
830.912	71365.75
831.162	71190.75
831.413	71009.75
831.664	70932.75
831.914	71103.75
832.165	70879.75
832.415	71129.75
832.666	70969.75
832.916	71130.75
833.167	70927.75
833.417	70826.75
833.667	70702.75
833.917	70650.75
834.168	70304.75
834.418	70136.75
834.668	69613.75
834.918	69471.75
835.168	69189.75
835.418	68956.75
835.668	68694.75
835.918	68721.75
836.167	68384.75
836.417	68315.75
836.667	68197.75
836.917	68088.75
837.166	68198.75
837.416	67880.75
837.666	68007.75
837.915	67955.75
838.165	67647.75
838.414	67613.75
838.663	67506.75
838.913	67219.75
839.162	67014.75
839.411	66957.75
839.661	66698.75
839.91	66492.75
840.159	66319.75
840.408	66206.75
840.657	66144.75
840.906	66004.75
841.155	66439.75
841.404	66133.75
841.653	66428.75
841.902	66286.75
842.15	66343.75
842.399	66426.75
842.648	66171.75
842.897	65809.75
843.145	65573.75
843.394	65336.75
843.642	64766.75
843.891	64647.75
844.139	64331.75
844.388	63999.75
844.636	63744.75
844.884	63823.75
845.133	63596.75
845.381	63491.75
845.629	63429.75
845.877	63237.75
846.125	63302.75
846.373	63224.75
846.621	62930.75
846.869	62609.75
847.117	62268.75
847.365	61817.75
847.613	61783.75
847.861	61636.75
848.108	61229.75
848.356	61228.75
848.604	61008.75
848.851	61269.75
849.099	61106.75
849.346	61266.75
849.594	61493.75
849.841	61656.75
850.089	61877.75
850.336	61746.75
850.583	61717.75
850.831	61261.75
851.078	61066.75
851.325	60996.75
851.572	60779.75
851.819	60183.75
852.066	59385.75
852.313	58773.75
852.56	58475.75
852.807	58130.75
853.054	57811.75
853.301	57629.75
853.548	57736.75
853.794	57956.75
854.041	58000.75
854.288	58303.75
854.534	58744.75
854.781	58807.75
855.028	58406.75
855.274	58189.75
855.52	57837.75
855.767	57572.75
856.013	57515.75
856.26	57697.75
856.506	56899.75
856.752	57059.75
856.998	57074.75
857.244	57091.75
857.49	57336.75
857.736	57210.75
857.982	57434.75
858.228	57243.75
858.474	56862.75
858.72	56502.75
858.966	55969.75
859.212	55551.75
859.458	54916.75
859.703	54407.75
859.949	54002.75
860.195	53710.75
860.44	53321.75
860.686	52960.75
860.931	53102.75
861.177	52584.75
861.422	52550.75
861.667	52444.75
861.913	52585.75
862.158	52626.75
862.403	52701.75
862.648	52845.75
862.893	52860.75
863.138	52849.75
863.384	52478.75
863.629	52545.75
863.873	52536.75
864.118	52372.75
864.363	52074.75
864.608	51723.75
864.853	51693.75
865.098	51508.75
865.342	51053.75
865.587	50929.75
865.832	50840.75
866.076	50736.75
866.321	50458.75
866.565	50420.75
866.81	50268.75
867.054	50054.75
867.298	49961.75
867.543	49655.75
867.787	49485.75
868.031	49448.75
868.275	49392.75
868.519	49267.75
868.764	49167.75
869.008	48932.75
869.252	48697.75
869.496	48497.75
869.739	48601.75
869.983	48345.75
870.227	48175.75
870.471	48234.75
870.715	48269.75
870.958	48262.75
871.202	48407.75
871.446	48464.75
871.689	48260.75
871.933	48497.75
872.176	48446.75
872.42	48296.75
872.663	48250.75
872.906	47805.75
873.15	47678.75
873.393	47532.75
873.636	47131.75
873.879	46764.75
874.122	46254.75
874.366	45863.75
874.609	45568.75
874.852	45237.75
875.095	45050.75
875.337	44917.75
875.58	44657.75
875.823	44617.75
876.066	44583.75
876.309	44273.75
876.551	44083.75
876.794	43796.75
877.037	43615.75
877.279	43630.75
877.522	43635.75
877.764	43609.75
878.007	43577.75
878.249	43680.75
878.491	43498.75
878.734	43487.75
878.976	43424.75
879.218	43155.75
879.46	42896.75
879.702	42492.75
879.945	42252.75
880.187	41902.75
880.429	41762.75
880.671	41730.75
880.912	41248.75
881.154	41163.75
881.396	41025.75
881.638	41015.75
881.88	40844.75
882.121	40944.75
882.363	40737.75
882.605	40726.75
882.846	40570.75
883.088	40233.75
883.329	40138.75
883.571	40102.75
883.812	40198.75
884.053	40323.75
884.295	40666.75
884.536	40907.75
884.777	40488.75
885.018	40332.75
885.259	40161.75
885.5	40099.75
885.742	40436.75
885.982	40076.75
886.223	39763.75
886.464	39721.75
886.705	39424.75
886.946	39269.75
887.187	38779.75
887.428	38711.75
887.668	38183.75
887.909	37868.75
888.15	37488.75
888.39	37216.75
888.631	37142.75
888.871	36809.75
889.111	36541.75
889.352	36435.75
889.592	36005.75
889.833	35726.75
890.073	35627.75
890.313	35465.75
890.553	35142.75
890.793	34893.75
891.033	34841.75
891.273	34700.75
891.513	34430.75
891.753	34451.75
891.993	34210.75
892.233	34302.75
892.473	34488.75
892.713	34391.75
892.952	34379.75
893.192	34348.75
893.432	34303.75
893.671	34317.75
893.911	34000.75
894.15	33826.75
894.39	33543.75
894.629	33439.75
894.869	33302.75
895.108	33007.75
895.347	32762.75
895.587	32814.75
895.826	32670.75
896.065	32340.75
896.304	32447.75
896.543	32380.75
896.782	32252.75
897.021	32131.75
897.26	32039.75
897.499	32090.75
897.738	31794.75
897.977	31602.75
898.216	31431.75
898.454	31068.75
898.693	30778.75
898.932	30737.75
899.17	30607.75
899.409	30533.75
899.647	30371.75
899.886	30278.75
900.124	30302.75
900.363	30264.75
900.601	30380.75
900.839	30364.75
901.078	30349.75
901.316	30247.75
901.554	30428.75
901.792	30332.75
902.03	30212.75
902.268	30203.75
902.506	30044.75
902.744	30007.75
902.982	29872.75
903.22	29486.75
903.458	29101.75
903.695	28861.75
903.933	28504.75
904.171	28139.75
904.409	27926.75
904.646	27520.75
904.884	27190.75
905.121	26898.75
905.359	26755.75
905.596	26471.75
905.833	26152.75
906.071	26200.75
906.308	26071.75
906.545	25972.75
906.783	25828.75
907.02	25877.75
907.257	25620.75
907.494	25582.75
907.731	25592.75
907.968	25405.75
908.205	25257.75
908.442	25159.75
908.679	24983.75
908.915	24719.75
909.152	24560.75
909.389	24333.75
909.626	24237.75
909.862	24154.75
910.099	23901.75
910.335	23935.75
910.572	23668.75
910.808	23568.75
911.045	23584.75
911.281	23492.75
911.518	23332.75
911.754	23275.75
911.99	23208.75
912.226	22877.75
912.463	22719.75
912.699	22531.75
912.935	22418.75
913.171	22176.75
913.407	21962.75
913.643	21977.75
913.879	21737.75
914.114	21479.75
914.35	21165.75
914.586	21123.75
914.822	20896.75
915.057	20845.75
915.293	20562.75
915.529	20449.75
915.764	20495.75
916	20367.75
916.235	20381.75
916.471	20284.75
916.706	20170.75
916.941	20110.75
917.177	20172.75
917.412	20160.75
917.647	20004.75
917.882	19976.75
918.117	19941.75
918.352	19877.75
918.588	19852.75
918.823	19493.75
919.057	19385.75
919.292	19180.75
919.527	19085.75
919.762	18767.75
919.997	18721.75
920.232	18425.75
920.466	18361.75
920.701	18046.75
920.935	18028.75
921.17	17915.75
921.405	17808.75
921.639	17785.75
921.873	17641.75
922.108	17612.75
922.342	17539.75
922.576	17486.75
922.811	17462.75
923.045	17338.75
923.279	17228.75
923.513	17139.75
923.747	17123.75
923.981	16926.75
924.215	16716.75
924.449	16624.75
924.683	16566.75
924.917	16447.75
925.151	16332.75
925.385	16359.75
925.618	16295.75
925.852	16160.75
926.086	16101.75
926.319	16079.75
926.553	16084.75
926.786	16122.75
927.02	16025.75
927.253	16054.75
927.486	15969.75
927.72	15925.75
927.953	15958.75
928.186	15837.75
928.42	15748.75
928.653	15656.75
928.886	15615.75
929.119	15480.75
929.352	15442.75
929.585	15381.75
929.818	15119.75
930.051	15121.75
930.284	14935.75
930.516	14844.75
930.749	14771.75
930.982	14611.75
931.215	14593.75
931.447	14435.75
931.68	14413.75
931.912	14295.75
932.145	14332.75
932.377	14362.75
932.61	14422.75
932.842	14260.75
933.074	14396.75
933.307	14256.75
933.539	14305.75
933.771	14297.75
934.003	14131.75
934.236	14310.75
934.468	14211.75
934.7	14090.75
934.932	14101.75
935.164	13902.75
935.395	13939.75
935.627	13938.75
935.859	13884.75
936.091	13749.75
936.323	13834.75
936.554	13639.75
936.786	13626.75
937.017	13518.75
937.249	13533.75
937.481	13357.75
937.712	13457.75
937.943	13429.75
938.175	13280.75
938.406	13286.75
938.637	13300.75
938.869	13153.75
939.1	13188.75
939.331	13144.75
939.562	13103.75
939.793	12967.75
940.024	12987.75
940.255	12929.75
940.486	12833.75
940.717	12793.75
940.948	12698.75
941.179	12656.75
941.409	12641.75
941.64	12574.75
941.871	12587.75
942.102	12529.75
942.332	12576.75
942.563	12640.75
942.793	12495.75
943.024	12571.75
943.254	12486.75
943.484	12593.75
943.715	12455.75
943.945	12500.75
944.175	12357.75
944.405	12282.75
944.636	12284.75
944.866	12349.75
945.096	12269.75
945.326	12207.75
945.556	12269.75
945.786	12108.75
946.016	12130.75
946.245	11898.75
946.475	11824.75
946.705	11823.75
946.935	11719.75
947.164	11677.75
947.394	11561.75
947.624	11566.75
947.853	11521.75
948.083	11487.75
948.312	11436.75
948.542	11270.75
948.771	11254.75
949	11186.75
949.23	11182.75
949.459	11206.75
949.688	11168.75
949.917	11070.75
950.146	11115.75
950.375	11124.75
950.604	11016.75
950.833	11050.75
951.062	11070.75
951.291	11018.75
951.52	10869.75
951.749	10900.75
951.978	10812.75
952.206	10785.75
952.435	10717.75
952.664	10721.75
952.892	10661.75
953.121	10626.75
953.349	10609.75
953.578	10551.75
953.806	10463.75
954.035	10313.75
954.263	10435.75
954.491	10280.75
954.719	10303.75
954.948	10194.75
955.176	10134.75
955.404	10060.75
955.632	10001.75
955.86	10080.75
956.088	9977.75
956.316	9905.75
956.544	9882.75
956.772	9757.75
956.999	9672.75
957.227	9773.75
957.455	9637.75
957.683	9589.75
957.91	9494.75
958.138	9409.75
958.365	9388.75
958.593	9334.75
958.82	9219.75
959.048	9285.75
959.275	9191.75
959.502	9187.75
959.73	9193.75
959.957	9174.75
960.184	9181.75
960.411	9069.75
960.638	9109.75
960.865	9021.75
961.092	9036.75
961.319	8923.75
961.546	9036.75
961.773	9108.75
962	8938.75
962.227	8967.75
962.454	8892.75
962.68	8841.75
962.907	8826.75
963.134	8727.75
963.36	8755.75
963.587	8667.75
963.813	8489.75
964.04	8535.75
964.266	8434.75
964.493	8475.75
964.719	8427.75
964.945	8356.75
965.171	8249.75
965.398	8253.75
965.624	8196.75
965.85	8068.75
966.076	8043.75
966.302	8078.75
966.528	7982.75
966.754	8016.75
966.98	7976.75
967.206	7962.75
967.431	7827.75
967.657	7900.75
967.883	7773.75
968.109	7852.75
968.334	7752.75
968.56	7709.75
968.785	7720.75
969.011	7621.75
969.236	7673.75
969.462	7546.75
969.687	7548.75
969.912	7532.75
970.138	7530.75
970.363	7505.75
970.588	7451.75
970.813	7392.75
971.038	7391.75
971.263	7418.75
971.488	7342.75
971.713	7350.75
971.938	7295.75
972.163	7219.75
972.388	7163.75
972.613	7150.75
972.838	7160.75
973.062	7142.75
973.287	7035.75
973.512	6942.75
973.736	7006.75
973.961	6922.75
974.185	6901.75
974.41	6896.75
974.634	6664.75
974.858	6688.75
975.083	6762.75
975.307	6667.75
975.531	6615.75
975.755	6500.75
975.98	6516.75
976.204	6434.75
976.428	6427.75
976.652	6414.75
976.876	6296.75
977.1	6344.75
977.324	6305.75
977.547	6296.75
977.771	6259.75
977.995	6269.75
978.219	6185.75
978.442	6264.75
978.666	6207.75
978.89	6151.75
979.113	6171.75
979.337	6096.75
979.56	6039.75
979.783	6141.75
980.007	5991.75
980.23	5967.75
980.453	5891.75
980.677	5931.75
980.9	5937.75
981.123	5821.75
981.346	5854.75
981.569	5718.75
981.792	5787.75
982.015	5778.75
982.238	5657.75
982.461	5670.75
982.684	5618.75
982.907	5539.75
983.129	5532.75
983.352	5560.75
983.575	5473.75
983.797	5449.75
984.02	5390.75
984.242	5361.75
984.465	5377.75
984.687	5346.75
984.91	5398.75
985.132	5312.75
985.354	5307.75
985.577	5193.75
985.799	5234.75
986.021	5096.75
986.243	5084.75
986.465	5151.75
986.687	5156.75
986.909	5191.75
987.131	5036.75
987.353	5007.75
987.575	5050.75
987.797	4957.75
988.019	4922.75
988.241	4960.75
988.462	4889.75
988.684	4936.75
988.906	4925.75
989.127	4939.75
989.349	4788.75
989.57	4791.75
989.792	4806.75
990.013	4876.75
990.234	4787.75
990.456	4793.75
990.677	4808.75
990.898	4687.75
991.119	4635.75
991.341	4676.75
991.562	4566.75
991.783	4634.75
992.004	4519.75
992.225	4497.75
992.446	4488.75
992.667	4450.75
992.887	4486.75
993.108	4341.75
993.329	4436.75
993.55	4380.75
993.77	4313.75
993.991	4307.75
994.212	4237.75
994.432	4262.75
994.653	4235.75
994.873	4225.75
995.093	4098.75
995.314	4136.75
995.534	4172.75
995.754	4114.75
995.975	4171.75
996.195	4007.75
996.415	4131.75
996.635	4037.75
996.855	4022.75
997.075	3964.75
997.295	3966.75
997.515	3951.75
997.735	3954.75
997.955	3936.75
998.174	3939.75
998.394	3881.75
998.614	3991.75
998.834	3855.75
999.053	3913.75
999.273	3880.75
999.492	3871.75
999.712	3826.75
999.931	3796.75
1000.151	3785.75
1000.37	3737.75
1000.589	3785.75
1000.809	3702.75
1001.028	3812.75
1001.247	3713.75
1001.466	3576.75
1001.685	3685.75
1001.904	3636.75
1002.123	3584.75
1002.342	3552.75
1002.561	3463.75
1002.78	3467.75
1002.999	3537.75
1003.218	3480.75
1003.436	3435.75
1003.655	3448.75
1003.874	3383.75
1004.092	3361.75
1004.311	3411.75
1004.53	3405.75
1004.748	3459.75
1004.966	3317.75
1005.185	3348.75
1005.403	3305.75
1005.622	3296.75
1005.84	3377.75
1006.058	3254.75
1006.276	3251.75
1006.494	3746.75
1006.712	3246.75
1006.931	3323.75
1007.149	3239.75
1007.367	3207.75
1007.584	3235.75
1007.802	3282.75
1008.02	3191.75
1008.238	3310.75
1008.456	3318.75
1008.673	3212.75
1008.891	3264.75
1009.109	3250.75
1009.326	3282.75
1009.544	3341.75
1009.761	3276.75
1009.979	3415.75
1010.196	3395.75
1010.413	3531.75
1010.631	3621.75
1010.848	3654.75
1011.065	3702.75
1011.282	3610.75
1011.5	3525.75
1011.717	3650.75
1011.934	3557.75
1012.151	3578.75
1012.368	3499.75
1012.585	3444.75
1012.801	3502.75
1013.018	3464.75
1013.235	3421.75
1013.452	3464.75
1013.669	3460.75
1013.885	3410.75
1014.102	3462.75
1014.318	3423.75
1014.535	3392.75
1014.751	3411.75
1014.968	3375.75
1015.184	3381.75
1015.401	3285.75
1015.617	3292.75
1015.833	3256.75
1016.049	3191.75
1016.266	3152.75
1016.482	3118.75
1016.698	3071.75
1016.914	3100.75
1017.13	3032.75
1017.346	3030.75
1017.562	3030.75
1017.778	2997.75
1017.993	2920.75
1018.209	2992.75
1018.425	2942.75
1018.641	2894.75
1018.856	2886.75
1019.072	2934.75
1019.288	2959.75
1019.503	2901.75
1019.719	2816.75
1019.934	2808.75
1020.149	2868.75
1020.365	2822.75
1020.58	2703.75
1020.795	2706.75
1021.011	2675.75
1021.226	2585.75
1021.441	2616.75
1021.656	2519.75
1021.871	2420.75
1022.086	2408.75
1022.301	2382.75
1022.516	2373.75
1022.731	2369.75
1022.946	2304.75
1023.16	2247.75
1023.375	2204.75
1023.59	2183.75
1023.804	2094.75
1024.019	2193.75
1024.234	2066.75
1024.448	2065.75
1024.663	1977.75
1024.877	1995.75
1025.092	1997.75
1025.306	1933.75
1025.52	1825.75
1025.734	1922.75
1025.949	1795.75
1026.163	1745.75
1026.377	1677.75
1026.591	1708.75
1026.805	1631.75
1027.019	1623.75
1027.233	1562.75
1027.447	1477.75
1027.661	1602.75
1027.875	1517.75
1028.088	1490.75
1028.302	1379.75
1028.516	1393.75
1028.73	1340.75
1028.943	1301.75
1029.157	1219.75
1029.37	1148.75
1029.584	-1.25
1029.797	-1.25
1030.011	-1.25
1030.224	-4.25
