Data from QEP037381__183__14-56-45-842.txt Node

Date: Fri Dec 16 14:56:45 EST 2022
User: dcclab
Spectrometer: QEP03738
Trigger mode: 4
Integration Time (sec): 1.000000E1
Scans to average: 1
Electric dark correction enabled: true
Nonlinearity correction enabled: false
Boxcar width: 0
XAxis mode: Wavelengths
Number of Pixels in Spectrum: 1044
>>>>>Begin Spectral Data<<<<<
784.041	14.38
784.3	0.38
784.558	-5.62
784.817	-3.62
785.075	114513.38
785.334	19959.38
785.592	9434.38
785.851	6521.38
786.109	4952.38
786.368	3836.38
786.626	3112.38
786.884	2568.38
787.143	2154.38
787.401	1792.38
787.659	1599.38
787.917	1380.38
788.175	1259.38
788.433	1107.38
788.691	996.38
788.949	916.38
789.207	876.38
789.465	769.38
789.723	744.38
789.98	694.38
790.238	706.38
790.496	683.38
790.753	646.38
791.011	709.38
791.268	617.38
791.526	621.38
791.783	633.38
792.041	606.38
792.298	522.38
792.556	593.38
792.813	570.38
793.07	533.38
793.327	544.38
793.584	609.38
793.841	550.38
794.099	546.38
794.356	627.38
794.613	513.38
794.869	563.38
795.126	515.38
795.383	517.38
795.64	519.38
795.897	482.38
796.153	536.38
796.41	536.38
796.667	503.38
796.923	527.38
797.18	530.38
797.436	557.38
797.693	508.38
797.949	573.38
798.206	628.38
798.462	535.38
798.718	605.38
798.974	573.38
799.231	620.38
799.487	624.38
799.743	644.38
799.999	697.38
800.255	699.38
800.511	706.38
800.767	749.38
801.023	774.38
801.279	850.38
801.534	940.38
801.79	1033.38
802.046	1134.38
802.302	1395.38
802.557	1706.38
802.813	2257.38
803.068	2938.38
803.324	4136.38
803.579	5859.38
803.835	8305.38
804.09	11462.38
804.345	15103.38
804.601	19292.38
804.856	23317.38
805.111	26998.38
805.366	29813.38
805.621	32036.38
805.876	33524.38
806.131	34459.38
806.386	35097.38
806.641	35873.38
806.896	36559.38
807.151	37151.38
807.406	37652.38
807.661	38450.38
807.915	39097.38
808.17	39810.38
808.425	40092.38
808.679	40479.38
808.934	41088.38
809.188	41316.38
809.443	41805.38
809.697	42290.38
809.951	42457.38
810.206	43082.38
810.46	43394.38
810.714	43766.38
810.968	44176.38
811.223	44618.38
811.477	44958.38
811.731	45299.38
811.985	45565.38
812.239	45623.38
812.493	46170.38
812.747	46393.38
813	46536.38
813.254	46498.38
813.508	46864.38
813.762	47310.38
814.015	47202.38
814.269	47813.38
814.522	48199.38
814.776	48666.38
815.03	49427.38
815.283	50122.38
815.536	50745.38
815.79	51636.38
816.043	52262.38
816.296	53075.38
816.55	53547.38
816.803	54347.38
817.056	55079.38
817.309	55520.38
817.562	56188.38
817.815	56588.38
818.068	57007.38
818.321	57795.38
818.574	58260.38
818.827	58967.38
819.079	59778.38
819.332	60599.38
819.585	61474.38
819.838	61990.38
820.09	62525.38
820.343	63269.38
820.595	63561.38
820.848	64128.38
821.1	64271.38
821.353	64342.38
821.605	64398.38
821.857	64217.38
822.11	64131.38
822.362	64098.38
822.614	63856.38
822.866	63855.38
823.118	63808.38
823.37	64109.38
823.622	64119.38
823.874	64638.38
824.126	64558.38
824.378	64780.38
824.63	64873.38
824.882	65249.38
825.134	65003.38
825.385	65143.38
825.637	65155.38
825.888	64913.38
826.14	64759.38
826.392	64512.38
826.643	64360.38
826.895	64132.38
827.146	63921.38
827.397	63681.38
827.649	63677.38
827.9	63542.38
828.151	63684.38
828.402	64108.38
828.653	64245.38
828.905	64495.38
829.156	64577.38
829.407	64628.38
829.658	64348.38
829.909	64758.38
830.159	64427.38
830.41	64105.38
830.661	63799.38
830.912	63445.38
831.162	63397.38
831.413	63164.38
831.664	63158.38
831.914	63106.38
832.165	63140.38
832.415	63233.38
832.666	63093.38
832.916	63120.38
833.167	63090.38
833.417	63128.38
833.667	63022.38
833.917	62783.38
834.168	62745.38
834.418	62400.38
834.668	62105.38
834.918	61969.38
835.168	61711.38
835.418	61590.38
835.668	61383.38
835.918	61185.38
836.167	61293.38
836.417	60959.38
836.667	60898.38
836.917	60824.38
837.166	60740.38
837.416	60950.38
837.666	60841.38
837.915	60614.38
838.165	60621.38
838.414	60401.38
838.663	60518.38
838.913	60413.38
839.162	60121.38
839.411	59912.38
839.661	59769.38
839.91	59453.38
840.159	59403.38
840.408	59403.38
840.657	59514.38
840.906	59416.38
841.155	59526.38
841.404	59251.38
841.653	59515.38
841.902	59495.38
842.15	59691.38
842.399	59631.38
842.648	59580.38
842.897	59318.38
843.145	59125.38
843.394	58897.38
843.642	58279.38
843.891	58191.38
844.139	57953.38
844.388	57810.38
844.636	57425.38
844.884	57573.38
845.133	57444.38
845.381	57380.38
845.629	57242.38
845.877	57110.38
846.125	57195.38
846.373	57019.38
846.621	56847.38
846.869	56649.38
847.117	56446.38
847.365	56159.38
847.613	55920.38
847.861	55683.38
848.108	55813.38
848.356	55553.38
848.604	55431.38
848.851	55398.38
849.099	55491.38
849.346	55647.38
849.594	55820.38
849.841	56040.38
850.089	56098.38
850.336	56232.38
850.583	56193.38
850.831	55770.38
851.078	55365.38
851.325	55355.38
851.572	55303.38
851.819	54639.38
852.066	54030.38
852.313	53374.38
852.56	53278.38
852.807	53037.38
853.054	52797.38
853.301	52586.38
853.548	52564.38
853.794	52825.38
854.041	52858.38
854.288	53291.38
854.534	53707.38
854.781	53759.38
855.028	53518.38
855.274	53437.38
855.52	52923.38
855.767	52701.38
856.013	52691.38
856.26	53037.38
856.506	52171.38
856.752	52301.38
856.998	52372.38
857.244	52321.38
857.49	52562.38
857.736	52596.38
857.982	52892.38
858.228	52673.38
858.474	52296.38
858.72	51952.38
858.966	51632.38
859.212	51140.38
859.458	50507.38
859.703	50208.38
859.949	49655.38
860.195	49334.38
860.44	49142.38
860.686	48978.38
860.931	48896.38
861.177	48688.38
861.422	48553.38
861.667	48485.38
861.913	48558.38
862.158	48474.38
862.403	48592.38
862.648	48811.38
862.893	48872.38
863.138	48667.38
863.384	48576.38
863.629	48565.38
863.873	48453.38
864.118	48354.38
864.363	48131.38
864.608	47981.38
864.853	47889.38
865.098	47506.38
865.342	47473.38
865.587	47370.38
865.832	47136.38
866.076	47136.38
866.321	47117.38
866.565	47101.38
866.81	46484.38
867.054	46441.38
867.298	46259.38
867.543	46269.38
867.787	46218.38
868.031	45990.38
868.275	45941.38
868.519	45829.38
868.764	45670.38
869.008	45620.38
869.252	45444.38
869.496	45324.38
869.739	45277.38
869.983	45200.38
870.227	45010.38
870.471	44912.38
870.715	45128.38
870.958	45140.38
871.202	45163.38
871.446	45441.38
871.689	45417.38
871.933	45352.38
872.176	45245.38
872.42	45410.38
872.663	45211.38
872.906	45095.38
873.15	44898.38
873.393	44327.38
873.636	44477.38
873.879	43947.38
874.122	43597.38
874.366	43219.38
874.609	42779.38
874.852	42489.38
875.095	42469.38
875.337	42277.38
875.58	42065.38
875.823	41824.38
876.066	41840.38
876.309	41701.38
876.551	41365.38
876.794	41380.38
877.037	41144.38
877.279	41049.38
877.522	41210.38
877.764	41375.38
878.007	41270.38
878.249	41203.38
878.491	41104.38
878.734	41142.38
878.976	40922.38
879.218	40711.38
879.46	40519.38
879.702	40358.38
879.945	40040.38
880.187	39677.38
880.429	39515.38
880.671	39069.38
880.912	38988.38
881.154	39028.38
881.396	38807.38
881.638	38852.38
881.88	38803.38
882.121	38819.38
882.363	38638.38
882.605	38529.38
882.846	38386.38
883.088	38379.38
883.329	38274.38
883.571	38029.38
883.812	38121.38
884.053	38714.38
884.295	39134.38
884.536	39180.38
884.777	38925.38
885.018	38709.38
885.259	38669.38
885.5	38588.38
885.742	38793.38
885.982	38507.38
886.223	38201.38
886.464	38076.38
886.705	37922.38
886.946	37468.38
887.187	37295.38
887.428	36969.38
887.668	36540.38
887.909	36220.38
888.15	35811.38
888.39	35608.38
888.631	35317.38
888.871	35120.38
889.111	34991.38
889.352	34876.38
889.592	34412.38
889.833	34278.38
890.073	34029.38
890.313	33841.38
890.553	33536.38
890.793	33347.38
891.033	33409.38
891.273	33294.38
891.513	33148.38
891.753	32991.38
891.993	32962.38
892.233	33073.38
892.473	33205.38
892.713	32959.38
892.952	33049.38
893.192	33052.38
893.432	32923.38
893.671	33036.38
893.911	32775.38
894.15	32583.38
894.39	32431.38
894.629	32234.38
894.869	32153.38
895.108	31844.38
895.347	31676.38
895.587	31651.38
895.826	31486.38
896.065	31435.38
896.304	31345.38
896.543	31292.38
896.782	31157.38
897.021	31052.38
897.26	30895.38
897.499	30987.38
897.738	30719.38
897.977	30547.38
898.216	30308.38
898.454	30129.38
898.693	29869.38
898.932	29909.38
899.17	29627.38
899.409	29645.38
899.647	29517.38
899.886	29448.38
900.124	29594.38
900.363	29383.38
900.601	29401.38
900.839	29453.38
901.078	29417.38
901.316	29540.38
901.554	29411.38
901.792	29567.38
902.03	29454.38
902.268	29426.38
902.506	29538.38
902.744	29242.38
902.982	29018.38
903.22	28768.38
903.458	28502.38
903.695	28202.38
903.933	27839.38
904.171	27391.38
904.409	27182.38
904.646	26873.38
904.884	26515.38
905.121	26276.38
905.359	26011.38
905.596	25791.38
905.833	25493.38
906.071	25439.38
906.308	25294.38
906.545	25296.38
906.783	25065.38
907.02	25293.38
907.257	25016.38
907.494	24987.38
907.731	24925.38
907.968	24805.38
908.205	24649.38
908.442	24603.38
908.679	24328.38
908.915	24265.38
909.152	24017.38
909.389	23714.38
909.626	23671.38
909.862	23536.38
910.099	23557.38
910.335	23455.38
910.572	23270.38
910.808	23071.38
911.045	23082.38
911.281	22951.38
911.518	22936.38
911.754	22729.38
911.99	22709.38
912.226	22486.38
912.463	22361.38
912.699	22140.38
912.935	21941.38
913.171	21812.38
913.407	21692.38
913.643	21407.38
913.879	21329.38
914.114	21152.38
914.35	20928.38
914.586	20773.38
914.822	20430.38
915.057	20496.38
915.293	20263.38
915.529	20099.38
915.764	20156.38
916	20075.38
916.235	20017.38
916.471	19995.38
916.706	19886.38
916.941	19751.38
917.177	19868.38
917.412	19707.38
917.647	19830.38
917.882	19689.38
918.117	19692.38
918.352	19528.38
918.588	19492.38
918.823	19283.38
919.057	19174.38
919.292	18829.38
919.527	18892.38
919.762	18540.38
919.997	18466.38
920.232	18263.38
920.466	18173.38
920.701	17836.38
920.935	17789.38
921.17	17711.38
921.405	17516.38
921.639	17530.38
921.873	17446.38
922.108	17352.38
922.342	17289.38
922.576	17240.38
922.811	17141.38
923.045	17194.38
923.279	17127.38
923.513	16885.38
923.747	16872.38
923.981	16778.38
924.215	16559.38
924.449	16564.38
924.683	16392.38
924.917	16284.38
925.151	16295.38
925.385	16208.38
925.618	16148.38
925.852	16130.38
926.086	15958.38
926.319	16025.38
926.553	16025.38
926.786	15984.38
927.02	15954.38
927.253	16022.38
927.486	15882.38
927.72	15780.38
927.953	15839.38
928.186	15683.38
928.42	15703.38
928.653	15577.38
928.886	15531.38
929.119	15434.38
929.352	15398.38
929.585	15234.38
929.818	15091.38
930.051	15006.38
930.284	14930.38
930.516	14663.38
930.749	14618.38
930.982	14588.38
931.215	14530.38
931.447	14436.38
931.68	14389.38
931.912	14277.38
932.145	14294.38
932.377	14371.38
932.61	14385.38
932.842	14193.38
933.074	14286.38
933.307	14204.38
933.539	14303.38
933.771	14242.38
934.003	14110.38
934.236	14269.38
934.468	14184.38
934.7	14100.38
934.932	14094.38
935.164	13975.38
935.395	13875.38
935.627	13933.38
935.859	13896.38
936.091	13756.38
936.323	13823.38
936.554	13708.38
936.786	13560.38
937.017	13496.38
937.249	13518.38
937.481	13424.38
937.712	13446.38
937.943	13363.38
938.175	13375.38
938.406	13327.38
938.637	13348.38
938.869	13198.38
939.1	13301.38
939.331	13139.38
939.562	13193.38
939.793	13090.38
940.024	13036.38
940.255	12955.38
940.486	12826.38
940.717	12835.38
940.948	12688.38
941.179	12646.38
941.409	12630.38
941.64	12652.38
941.871	12630.38
942.102	12587.38
942.332	12540.38
942.563	12731.38
942.793	12537.38
943.024	12444.38
943.254	12510.38
943.484	12558.38
943.715	12579.38
943.945	12489.38
944.175	12435.38
944.405	12394.38
944.636	12403.38
944.866	12391.38
945.096	12337.38
945.326	12245.38
945.556	12295.38
945.786	12136.38
946.016	12151.38
946.245	12012.38
946.475	11941.38
946.705	11861.38
946.935	11780.38
947.164	11705.38
947.394	11630.38
947.624	11637.38
947.853	11625.38
948.083	11487.38
948.312	11492.38
948.542	11428.38
948.771	11296.38
949	11222.38
949.23	11221.38
949.459	11242.38
949.688	11251.38
949.917	11169.38
950.146	11177.38
950.375	11206.38
950.604	11100.38
950.833	11177.38
951.062	11158.38
951.291	11049.38
951.52	11048.38
951.749	11011.38
951.978	10983.38
952.206	10792.38
952.435	10838.38
952.664	10860.38
952.892	10778.38
953.121	10744.38
953.349	10654.38
953.578	10649.38
953.806	10556.38
954.035	10471.38
954.263	10483.38
954.491	10384.38
954.719	10389.38
954.948	10290.38
955.176	10275.38
955.404	10164.38
955.632	10144.38
955.86	10117.38
956.088	10011.38
956.316	10020.38
956.544	10035.38
956.772	9908.38
956.999	9783.38
957.227	9844.38
957.455	9735.38
957.683	9696.38
957.91	9614.38
958.138	9471.38
958.365	9512.38
958.593	9490.38
958.82	9369.38
959.048	9394.38
959.275	9343.38
959.502	9306.38
959.73	9248.38
959.957	9254.38
960.184	9260.38
960.411	9191.38
960.638	9203.38
960.865	9188.38
961.092	9090.38
961.319	9069.38
961.546	9139.38
961.773	9161.38
962	9052.38
962.227	9087.38
962.454	9046.38
962.68	8916.38
962.907	8988.38
963.134	8799.38
963.36	8777.38
963.587	8764.38
963.813	8666.38
964.04	8628.38
964.266	8569.38
964.493	8624.38
964.719	8574.38
964.945	8485.38
965.171	8328.38
965.398	8351.38
965.624	8332.38
965.85	8257.38
966.076	8169.38
966.302	8221.38
966.528	8114.38
966.754	8049.38
966.98	8032.38
967.206	8081.38
967.431	7964.38
967.657	8018.38
967.883	7982.38
968.109	7918.38
968.334	7801.38
968.56	7780.38
968.785	7778.38
969.011	7801.38
969.236	7792.38
969.462	7653.38
969.687	7753.38
969.912	7721.38
970.138	7705.38
970.363	7506.38
970.588	7573.38
970.813	7534.38
971.038	7534.38
971.263	7456.38
971.488	7467.38
971.713	7516.38
971.938	7427.38
972.163	7329.38
972.388	7293.38
972.613	7195.38
972.838	7213.38
973.062	7215.38
973.287	7212.38
973.512	7128.38
973.736	7053.38
973.961	7003.38
974.185	7008.38
974.41	7000.38
974.634	6915.38
974.858	6822.38
975.083	6850.38
975.307	6800.38
975.531	6727.38
975.755	6622.38
975.98	6568.38
976.204	6510.38
976.428	6519.38
976.652	6503.38
976.876	6483.38
977.1	6413.38
977.324	6431.38
977.547	6388.38
977.771	6469.38
977.995	6329.38
978.219	6321.38
978.442	6402.38
978.666	6260.38
978.89	6314.38
979.113	6203.38
979.337	6173.38
979.56	6124.38
979.783	6202.38
980.007	6073.38
980.23	6045.38
980.453	6045.38
980.677	6103.38
980.9	6031.38
981.123	5969.38
981.346	5989.38
981.569	5892.38
981.792	5975.38
982.015	5859.38
982.238	5822.38
982.461	5800.38
982.684	5690.38
982.907	5696.38
983.129	5630.38
983.352	5597.38
983.575	5619.38
983.797	5578.38
984.02	5525.38
984.242	5496.38
984.465	5477.38
984.687	5481.38
984.91	5464.38
985.132	5413.38
985.354	5400.38
985.577	5368.38
985.799	5297.38
986.021	5198.38
986.243	5184.38
986.465	5209.38
986.687	5225.38
986.909	5250.38
987.131	5205.38
987.353	5125.38
987.575	5220.38
987.797	5107.38
988.019	5015.38
988.241	5053.38
988.462	5026.38
988.684	5042.38
988.906	5019.38
989.127	5067.38
989.349	4913.38
989.57	4940.38
989.792	4940.38
990.013	4948.38
990.234	4921.38
990.456	4902.38
990.677	4872.38
990.898	4797.38
991.119	4775.38
991.341	4858.38
991.562	4714.38
991.783	4713.38
992.004	4632.38
992.225	4592.38
992.446	4585.38
992.667	4562.38
992.887	4569.38
993.108	4431.38
993.329	4572.38
993.55	4506.38
993.77	4384.38
993.991	4347.38
994.212	4364.38
994.432	4331.38
994.653	4354.38
994.873	4308.38
995.093	4111.38
995.314	4210.38
995.534	4247.38
995.754	4246.38
995.975	4247.38
996.195	4137.38
996.415	4198.38
996.635	4143.38
996.855	4181.38
997.075	4097.38
997.295	4092.38
997.515	4060.38
997.735	4085.38
997.955	4019.38
998.174	4030.38
998.394	4048.38
998.614	4048.38
998.834	4029.38
999.053	4023.38
999.273	4026.38
999.492	4022.38
999.712	3942.38
999.931	3901.38
1000.151	3887.38
1000.37	3863.38
1000.589	3856.38
1000.809	3731.38
1001.028	3919.38
1001.247	3767.38
1001.466	3630.38
1001.685	3776.38
1001.904	3692.38
1002.123	3659.38
1002.342	3626.38
1002.561	3599.38
1002.78	3576.38
1002.999	3644.38
1003.218	3531.38
1003.436	3505.38
1003.655	3551.38
1003.874	3509.38
1004.092	3506.38
1004.311	3468.38
1004.53	3461.38
1004.748	3475.38
1004.966	3410.38
1005.185	3428.38
1005.403	3451.38
1005.622	3372.38
1005.84	3460.38
1006.058	3358.38
1006.276	3357.38
1006.494	3850.38
1006.712	3343.38
1006.931	3414.38
1007.149	3304.38
1007.367	3279.38
1007.584	3347.38
1007.802	3378.38
1008.02	3304.38
1008.238	3404.38
1008.456	3384.38
1008.673	3278.38
1008.891	3356.38
1009.109	3348.38
1009.326	3384.38
1009.544	3495.38
1009.761	3435.38
1009.979	3553.38
1010.196	3559.38
1010.413	3707.38
1010.631	3807.38
1010.848	3865.38
1011.065	3862.38
1011.282	3807.38
1011.5	3776.38
1011.717	3849.38
1011.934	3733.38
1012.151	3742.38
1012.368	3751.38
1012.585	3637.38
1012.801	3695.38
1013.018	3659.38
1013.235	3635.38
1013.452	3624.38
1013.669	3699.38
1013.885	3644.38
1014.102	3716.38
1014.318	3638.38
1014.535	3602.38
1014.751	3631.38
1014.968	3558.38
1015.184	3615.38
1015.401	3456.38
1015.617	3472.38
1015.833	3425.38
1016.049	3371.38
1016.266	3313.38
1016.482	3319.38
1016.698	3232.38
1016.914	3288.38
1017.13	3194.38
1017.346	3193.38
1017.562	3239.38
1017.778	3135.38
1017.993	3087.38
1018.209	3116.38
1018.425	3086.38
1018.641	3045.38
1018.856	3010.38
1019.072	3059.38
1019.288	3108.38
1019.503	3068.38
1019.719	2951.38
1019.934	2959.38
1020.149	3010.38
1020.365	2902.38
1020.58	2875.38
1020.795	2886.38
1021.011	2778.38
1021.226	2740.38
1021.441	2752.38
1021.656	2619.38
1021.871	2566.38
1022.086	2515.38
1022.301	2483.38
1022.516	2439.38
1022.731	2465.38
1022.946	2383.38
1023.16	2355.38
1023.375	2321.38
1023.59	2255.38
1023.804	2222.38
1024.019	2303.38
1024.234	2150.38
1024.448	2171.38
1024.663	2062.38
1024.877	2062.38
1025.092	2046.38
1025.306	2012.38
1025.52	1896.38
1025.734	1985.38
1025.949	1869.38
1026.163	1843.38
1026.377	1727.38
1026.591	1765.38
1026.805	1689.38
1027.019	1651.38
1027.233	1617.38
1027.447	1544.38
1027.661	1614.38
1027.875	1533.38
1028.088	1529.38
1028.302	1454.38
1028.516	1438.38
1028.73	1395.38
1028.943	1348.38
1029.157	1254.38
1029.37	1188.38
1029.584	-1.62
1029.797	0.38
1030.011	-2.62
1030.224	-1.62
