Data from QEP037381__202__14-59-55-844.txt Node

Date: Fri Dec 16 14:59:55 EST 2022
User: dcclab
Spectrometer: QEP03738
Trigger mode: 4
Integration Time (sec): 1.000000E1
Scans to average: 1
Electric dark correction enabled: true
Nonlinearity correction enabled: false
Boxcar width: 0
XAxis mode: Wavelengths
Number of Pixels in Spectrum: 1044
>>>>>Begin Spectral Data<<<<<
784.041	11.12
784.3	-1.88
784.558	-3.88
784.817	-3.88
785.075	112182.12
785.334	19656.12
785.592	9306.12
785.851	6443.12
786.109	4844.12
786.368	3790.12
786.626	3074.12
786.884	2551.12
787.143	2112.12
787.401	1782.12
787.659	1586.12
787.917	1386.12
788.175	1233.12
788.433	1113.12
788.691	1001.12
788.949	895.12
789.207	866.12
789.465	777.12
789.723	727.12
789.98	678.12
790.238	713.12
790.496	679.12
790.753	638.12
791.011	692.12
791.268	618.12
791.526	604.12
791.783	623.12
792.041	599.12
792.298	530.12
792.556	599.12
792.813	561.12
793.07	537.12
793.327	515.12
793.584	600.12
793.841	533.12
794.099	550.12
794.356	601.12
794.613	511.12
794.869	546.12
795.126	504.12
795.383	499.12
795.64	524.12
795.897	468.12
796.153	540.12
796.41	511.12
796.667	500.12
796.923	518.12
797.18	509.12
797.436	546.12
797.693	503.12
797.949	575.12
798.206	615.12
798.462	532.12
798.718	602.12
798.974	559.12
799.231	610.12
799.487	627.12
799.743	640.12
799.999	689.12
800.255	679.12
800.511	675.12
800.767	755.12
801.023	742.12
801.279	822.12
801.534	907.12
801.79	1026.12
802.046	1139.12
802.302	1371.12
802.557	1678.12
802.813	2188.12
803.068	2875.12
803.324	4066.12
803.579	5720.12
803.835	8126.12
804.09	11146.12
804.345	14746.12
804.601	18693.12
804.856	22649.12
805.111	26034.12
805.366	28896.12
805.621	30829.12
805.876	32310.12
806.131	33275.12
806.386	34072.12
806.641	34714.12
806.896	35202.12
807.151	35854.12
807.406	36415.12
807.661	37224.12
807.915	37975.12
808.17	38243.12
808.425	38718.12
808.679	39144.12
808.934	39444.12
809.188	39820.12
809.443	40467.12
809.697	40805.12
809.951	41240.12
810.206	41395.12
810.46	41937.12
810.714	42201.12
810.968	42529.12
811.223	42899.12
811.477	43233.12
811.731	43708.12
811.985	44009.12
812.239	44187.12
812.493	44357.12
812.747	44618.12
813	44679.12
813.254	45074.12
813.508	45194.12
813.762	45434.12
814.015	45738.12
814.269	45974.12
814.522	46329.12
814.776	46953.12
815.03	47456.12
815.283	48032.12
815.536	48890.12
815.79	49633.12
816.043	50317.12
816.296	51048.12
816.55	51664.12
816.803	52151.12
817.056	52913.12
817.309	53251.12
817.562	53938.12
817.815	54355.12
818.068	55029.12
818.321	55463.12
818.574	56047.12
818.827	56896.12
819.079	57661.12
819.332	58467.12
819.585	59060.12
819.838	59825.12
820.09	60302.12
820.343	60900.12
820.595	61184.12
820.848	61577.12
821.1	61811.12
821.353	61959.12
821.605	61744.12
821.857	61846.12
822.11	61622.12
822.362	61476.12
822.614	61265.12
822.866	61382.12
823.118	61427.12
823.37	61731.12
823.622	61778.12
823.874	61891.12
824.126	62016.12
824.378	62330.12
824.63	62483.12
824.882	62812.12
825.134	62481.12
825.385	62662.12
825.637	62464.12
825.888	62358.12
826.14	62233.12
826.392	62092.12
826.643	61798.12
826.895	61384.12
827.146	61582.12
827.397	61206.12
827.649	61311.12
827.9	61158.12
828.151	61506.12
828.402	61719.12
828.653	61903.12
828.905	61856.12
829.156	62083.12
829.407	61942.12
829.658	62002.12
829.909	61836.12
830.159	61871.12
830.41	61751.12
830.661	61300.12
830.912	60826.12
831.162	60780.12
831.413	60635.12
831.664	60590.12
831.914	60176.12
832.165	60516.12
832.415	60410.12
832.666	60518.12
832.916	60558.12
833.167	60635.12
833.417	60602.12
833.667	60576.12
833.917	60443.12
834.168	60208.12
834.418	59946.12
834.668	59812.12
834.918	59295.12
835.168	59064.12
835.418	58891.12
835.668	58883.12
835.918	58622.12
836.167	58723.12
836.417	58459.12
836.667	58273.12
836.917	58305.12
837.166	58191.12
837.416	58251.12
837.666	58307.12
837.915	58145.12
838.165	57827.12
838.414	57965.12
838.663	57780.12
838.913	57589.12
839.162	57418.12
839.411	57212.12
839.661	57003.12
839.91	56958.12
840.159	57014.12
840.408	56690.12
840.657	56690.12
840.906	56772.12
841.155	56905.12
841.404	56842.12
841.653	56889.12
841.902	56887.12
842.15	56972.12
842.399	57018.12
842.648	56710.12
842.897	56587.12
843.145	56374.12
843.394	56031.12
843.642	55971.12
843.891	55722.12
844.139	55475.12
844.388	55178.12
844.636	54847.12
844.884	54973.12
845.133	54659.12
845.381	54431.12
845.629	54686.12
845.877	54661.12
846.125	54517.12
846.373	54493.12
846.621	54125.12
846.869	54037.12
847.117	53839.12
847.365	53600.12
847.613	53423.12
847.861	53162.12
848.108	53082.12
848.356	52851.12
848.604	52696.12
848.851	53058.12
849.099	52994.12
849.346	53210.12
849.594	53395.12
849.841	53444.12
850.089	53584.12
850.336	53683.12
850.583	53596.12
850.831	53387.12
851.078	53116.12
851.325	52869.12
851.572	52916.12
851.819	52394.12
852.066	51671.12
852.313	51019.12
852.56	50633.12
852.807	50279.12
853.054	50436.12
853.301	50237.12
853.548	50205.12
853.794	50411.12
854.041	50495.12
854.288	50787.12
854.534	51184.12
854.781	51033.12
855.028	50881.12
855.274	50600.12
855.52	50299.12
855.767	50094.12
856.013	50257.12
856.26	50261.12
856.506	49904.12
856.752	49650.12
856.998	49803.12
857.244	49910.12
857.49	50028.12
857.736	50208.12
857.982	50056.12
858.228	49891.12
858.474	49700.12
858.72	49722.12
858.966	49103.12
859.212	48645.12
859.458	48184.12
859.703	47821.12
859.949	47343.12
860.195	47138.12
860.44	46876.12
860.686	46741.12
860.931	46608.12
861.177	46514.12
861.422	46361.12
861.667	46133.12
861.913	46134.12
862.158	46122.12
862.403	46408.12
862.648	46440.12
862.893	46451.12
863.138	46451.12
863.384	46289.12
863.629	46336.12
863.873	46249.12
864.118	46244.12
864.363	45971.12
864.608	45670.12
864.853	45526.12
865.098	45186.12
865.342	45042.12
865.587	44976.12
865.832	44898.12
866.076	44865.12
866.321	44862.12
866.565	44676.12
866.81	44446.12
867.054	44459.12
867.298	44233.12
867.543	44151.12
867.787	44086.12
868.031	44027.12
868.275	43975.12
868.519	43877.12
868.764	43659.12
869.008	43346.12
869.252	43297.12
869.496	43107.12
869.739	42979.12
869.983	42946.12
870.227	42817.12
870.471	42721.12
870.715	42807.12
870.958	42919.12
871.202	42894.12
871.446	43110.12
871.689	43097.12
871.933	43097.12
872.176	43085.12
872.42	42913.12
872.663	42970.12
872.906	42706.12
873.15	42638.12
873.393	42234.12
873.636	42257.12
873.879	41545.12
874.122	41485.12
874.366	40991.12
874.609	40833.12
874.852	40601.12
875.095	40357.12
875.337	40180.12
875.58	39993.12
875.823	39843.12
876.066	40022.12
876.309	39843.12
876.551	39549.12
876.794	39215.12
877.037	39185.12
877.279	39234.12
877.522	39238.12
877.764	39300.12
878.007	39165.12
878.249	39125.12
878.491	39109.12
878.734	38963.12
878.976	38973.12
879.218	38611.12
879.46	38444.12
879.702	38194.12
879.945	37923.12
880.187	37651.12
880.429	37460.12
880.671	37229.12
880.912	37324.12
881.154	36986.12
881.396	36835.12
881.638	36820.12
881.88	36912.12
882.121	36876.12
882.363	36637.12
882.605	36716.12
882.846	36484.12
883.088	36305.12
883.329	36264.12
883.571	36062.12
883.812	36347.12
884.053	36474.12
884.295	36886.12
884.536	36986.12
884.777	36700.12
885.018	36632.12
885.259	36630.12
885.5	36429.12
885.742	36584.12
885.982	36352.12
886.223	36161.12
886.464	35987.12
886.705	35785.12
886.946	35626.12
887.187	35161.12
887.428	34877.12
887.668	34581.12
887.909	34197.12
888.15	33822.12
888.39	33726.12
888.631	33623.12
888.871	33306.12
889.111	33173.12
889.352	32989.12
889.592	32597.12
889.833	32450.12
890.073	32218.12
890.313	32177.12
890.553	31806.12
890.793	31802.12
891.033	31701.12
891.273	31651.12
891.513	31620.12
891.753	31468.12
891.993	31419.12
892.233	31642.12
892.473	31699.12
892.713	31807.12
892.952	31713.12
893.192	31875.12
893.432	31808.12
893.671	31629.12
893.911	31424.12
894.15	31273.12
894.39	30947.12
894.629	30858.12
894.869	30468.12
895.108	30328.12
895.347	30270.12
895.587	30206.12
895.826	30070.12
896.065	30046.12
896.304	29962.12
896.543	29970.12
896.782	29719.12
897.021	29620.12
897.26	29552.12
897.499	29611.12
897.738	29410.12
897.977	29219.12
898.216	29012.12
898.454	28843.12
898.693	28718.12
898.932	28557.12
899.17	28553.12
899.409	28341.12
899.647	28302.12
899.886	28062.12
900.124	28053.12
900.363	28051.12
900.601	28026.12
900.839	28041.12
901.078	27966.12
901.316	27942.12
901.554	28013.12
901.792	27989.12
902.03	27970.12
902.268	27841.12
902.506	27787.12
902.744	27502.12
902.982	27481.12
903.22	27125.12
903.458	26965.12
903.695	26588.12
903.933	26366.12
904.171	25965.12
904.409	25639.12
904.646	25324.12
904.884	24970.12
905.121	24788.12
905.359	24441.12
905.596	24321.12
905.833	24071.12
906.071	24086.12
906.308	23926.12
906.545	23998.12
906.783	23726.12
907.02	23674.12
907.257	23598.12
907.494	23593.12
907.731	23591.12
907.968	23341.12
908.205	23215.12
908.442	23079.12
908.679	22974.12
908.915	22764.12
909.152	22693.12
909.389	22405.12
909.626	22309.12
909.862	22159.12
910.099	22065.12
910.335	22029.12
910.572	21897.12
910.808	21839.12
911.045	21615.12
911.281	21617.12
911.518	21583.12
911.754	21518.12
911.99	21239.12
912.226	21149.12
912.463	21011.12
912.699	20817.12
912.935	20825.12
913.171	20479.12
913.407	20265.12
913.643	20228.12
913.879	19990.12
914.114	19769.12
914.35	19656.12
914.586	19546.12
914.822	19272.12
915.057	19327.12
915.293	18978.12
915.529	18927.12
915.764	19023.12
916	18902.12
916.235	18808.12
916.471	18805.12
916.706	18671.12
916.941	18654.12
917.177	18679.12
917.412	18599.12
917.647	18635.12
917.882	18409.12
918.117	18510.12
918.352	18430.12
918.588	18391.12
918.823	18246.12
919.057	18057.12
919.292	17733.12
919.527	17777.12
919.762	17516.12
919.997	17381.12
920.232	17140.12
920.466	17071.12
920.701	16799.12
920.935	16707.12
921.17	16612.12
921.405	16551.12
921.639	16441.12
921.873	16439.12
922.108	16309.12
922.342	16303.12
922.576	16217.12
922.811	16089.12
923.045	16119.12
923.279	16087.12
923.513	15881.12
923.747	15874.12
923.981	15671.12
924.215	15687.12
924.449	15506.12
924.683	15360.12
924.917	15281.12
925.151	15287.12
925.385	15298.12
925.618	15172.12
925.852	15198.12
926.086	15057.12
926.319	15083.12
926.553	15121.12
926.786	15106.12
927.02	14983.12
927.253	15085.12
927.486	14938.12
927.72	14869.12
927.953	14940.12
928.186	14789.12
928.42	14792.12
928.653	14642.12
928.886	14560.12
929.119	14572.12
929.352	14409.12
929.585	14351.12
929.818	14203.12
930.051	14102.12
930.284	14057.12
930.516	13783.12
930.749	13568.12
930.982	13778.12
931.215	13640.12
931.447	13503.12
931.68	13439.12
931.912	13449.12
932.145	13400.12
932.377	13419.12
932.61	13565.12
932.842	13393.12
933.074	13414.12
933.307	13358.12
933.539	13492.12
933.771	13430.12
934.003	13274.12
934.236	13376.12
934.468	13363.12
934.7	13236.12
934.932	13275.12
935.164	13167.12
935.395	13136.12
935.627	13170.12
935.859	13079.12
936.091	12975.12
936.323	12957.12
936.554	12967.12
936.786	12827.12
937.017	12748.12
937.249	12762.12
937.481	12598.12
937.712	12671.12
937.943	12660.12
938.175	12634.12
938.406	12598.12
938.637	12600.12
938.869	12432.12
939.1	12531.12
939.331	12409.12
939.562	12331.12
939.793	12326.12
940.024	12278.12
940.255	12260.12
940.486	12073.12
940.717	12109.12
940.948	12039.12
941.179	11963.12
941.409	11942.12
941.64	11896.12
941.871	11919.12
942.102	11850.12
942.332	11902.12
942.563	11853.12
942.793	11914.12
943.024	11814.12
943.254	11815.12
943.484	11816.12
943.715	11851.12
943.945	11754.12
944.175	11686.12
944.405	11657.12
944.636	11719.12
944.866	11724.12
945.096	11715.12
945.326	11496.12
945.556	11562.12
945.786	11492.12
946.016	11478.12
946.245	11378.12
946.475	11238.12
946.705	11213.12
946.935	11116.12
947.164	11106.12
947.394	11017.12
947.624	10903.12
947.853	10981.12
948.083	10910.12
948.312	10787.12
948.542	10725.12
948.771	10645.12
949	10661.12
949.23	10626.12
949.459	10634.12
949.688	10609.12
949.917	10609.12
950.146	10550.12
950.375	10629.12
950.604	10576.12
950.833	10489.12
951.062	10520.12
951.291	10500.12
951.52	10431.12
951.749	10398.12
951.978	10306.12
952.206	10286.12
952.435	10219.12
952.664	10294.12
952.892	10213.12
953.121	10163.12
953.349	10106.12
953.578	10094.12
953.806	10034.12
954.035	9894.12
954.263	9946.12
954.491	9798.12
954.719	9867.12
954.948	9695.12
955.176	9661.12
955.404	9628.12
955.632	9597.12
955.86	9626.12
956.088	9518.12
956.316	9507.12
956.544	9446.12
956.772	9415.12
956.999	9349.12
957.227	9331.12
957.455	9224.12
957.683	9155.12
957.91	9098.12
958.138	9028.12
958.365	9015.12
958.593	8880.12
958.82	8909.12
959.048	8855.12
959.275	8888.12
959.502	8812.12
959.73	8787.12
959.957	8766.12
960.184	8792.12
960.411	8670.12
960.638	8734.12
960.865	8640.12
961.092	8617.12
961.319	8555.12
961.546	8639.12
961.773	8658.12
962	8630.12
962.227	8605.12
962.454	8551.12
962.68	8494.12
962.907	8440.12
963.134	8330.12
963.36	8359.12
963.587	8325.12
963.813	8220.12
964.04	8242.12
964.266	8100.12
964.493	8162.12
964.719	8124.12
964.945	8095.12
965.171	7907.12
965.398	7921.12
965.624	7968.12
965.85	7831.12
966.076	7755.12
966.302	7828.12
966.528	7678.12
966.754	7675.12
966.98	7694.12
967.206	7705.12
967.431	7571.12
967.657	7610.12
967.883	7608.12
968.109	7515.12
968.334	7442.12
968.56	7424.12
968.785	7447.12
969.011	7367.12
969.236	7381.12
969.462	7346.12
969.687	7329.12
969.912	7298.12
970.138	7382.12
970.363	7178.12
970.588	7261.12
970.813	7135.12
971.038	7116.12
971.263	7122.12
971.488	7028.12
971.713	7089.12
971.938	7015.12
972.163	6980.12
972.388	6932.12
972.613	6903.12
972.838	6876.12
973.062	6856.12
973.287	6856.12
973.512	6737.12
973.736	6743.12
973.961	6678.12
974.185	6620.12
974.41	6629.12
974.634	6573.12
974.858	6463.12
975.083	6544.12
975.307	6540.12
975.531	6363.12
975.755	6367.12
975.98	6330.12
976.204	6202.12
976.428	6145.12
976.652	6179.12
976.876	6126.12
977.1	6168.12
977.324	6117.12
977.547	6127.12
977.771	6134.12
977.995	6035.12
978.219	6025.12
978.442	6061.12
978.666	6009.12
978.89	5999.12
979.113	5914.12
979.337	5887.12
979.56	5856.12
979.783	5986.12
980.007	5786.12
980.23	5809.12
980.453	5786.12
980.677	5796.12
980.9	5753.12
981.123	5607.12
981.346	5731.12
981.569	5637.12
981.792	5623.12
982.015	5566.12
982.238	5531.12
982.461	5538.12
982.684	5465.12
982.907	5386.12
983.129	5388.12
983.352	5349.12
983.575	5310.12
983.797	5351.12
984.02	5245.12
984.242	5246.12
984.465	5210.12
984.687	5216.12
984.91	5210.12
985.132	5167.12
985.354	5143.12
985.577	5101.12
985.799	5029.12
986.021	4940.12
986.243	4973.12
986.465	5024.12
986.687	5029.12
986.909	5028.12
987.131	4945.12
987.353	4913.12
987.575	4910.12
987.797	4906.12
988.019	4836.12
988.241	4815.12
988.462	4758.12
988.684	4804.12
988.906	4816.12
989.127	4855.12
989.349	4712.12
989.57	4678.12
989.792	4728.12
990.013	4699.12
990.234	4685.12
990.456	4700.12
990.677	4672.12
990.898	4576.12
991.119	4599.12
991.341	4543.12
991.562	4528.12
991.783	4505.12
992.004	4421.12
992.225	4372.12
992.446	4426.12
992.667	4305.12
992.887	4351.12
993.108	4233.12
993.329	4376.12
993.55	4296.12
993.77	4229.12
993.991	4225.12
994.212	4210.12
994.432	4132.12
994.653	4184.12
994.873	4086.12
995.093	4001.12
995.314	4026.12
995.534	4096.12
995.754	4067.12
995.975	4065.12
996.195	3963.12
996.415	3978.12
996.635	3954.12
996.855	3964.12
997.075	3940.12
997.295	3886.12
997.515	3876.12
997.735	3894.12
997.955	3869.12
998.174	3841.12
998.394	3801.12
998.614	3851.12
998.834	3757.12
999.053	3865.12
999.273	3774.12
999.492	3861.12
999.712	3757.12
999.931	3700.12
1000.151	3762.12
1000.37	3655.12
1000.589	3740.12
1000.809	3593.12
1001.028	3735.12
1001.247	3630.12
1001.466	3514.12
1001.685	3648.12
1001.904	3552.12
1002.123	3502.12
1002.342	3506.12
1002.561	3412.12
1002.78	3434.12
1002.999	3456.12
1003.218	3415.12
1003.436	3384.12
1003.655	3393.12
1003.874	3342.12
1004.092	3374.12
1004.311	3371.12
1004.53	3336.12
1004.748	3374.12
1004.966	3267.12
1005.185	3326.12
1005.403	3279.12
1005.622	3273.12
1005.84	3304.12
1006.058	3238.12
1006.276	3224.12
1006.494	3738.12
1006.712	3209.12
1006.931	3287.12
1007.149	3209.12
1007.367	3153.12
1007.584	3212.12
1007.802	3252.12
1008.02	3193.12
1008.238	3279.12
1008.456	3261.12
1008.673	3103.12
1008.891	3296.12
1009.109	3250.12
1009.326	3270.12
1009.544	3326.12
1009.761	3222.12
1009.979	3364.12
1010.196	3416.12
1010.413	3519.12
1010.631	3589.12
1010.848	3655.12
1011.065	3633.12
1011.282	3609.12
1011.5	3537.12
1011.717	3625.12
1011.934	3538.12
1012.151	3593.12
1012.368	3564.12
1012.585	3513.12
1012.801	3518.12
1013.018	3521.12
1013.235	3432.12
1013.452	3438.12
1013.669	3475.12
1013.885	3455.12
1014.102	3526.12
1014.318	3452.12
1014.535	3421.12
1014.751	3415.12
1014.968	3416.12
1015.184	3460.12
1015.401	3347.12
1015.617	3306.12
1015.833	3268.12
1016.049	3252.12
1016.266	3212.12
1016.482	3200.12
1016.698	3125.12
1016.914	3143.12
1017.13	3107.12
1017.346	3031.12
1017.562	3120.12
1017.778	3000.12
1017.993	3019.12
1018.209	3033.12
1018.425	2990.12
1018.641	2987.12
1018.856	2981.12
1019.072	2964.12
1019.288	3015.12
1019.503	2967.12
1019.719	2889.12
1019.934	2881.12
1020.149	2950.12
1020.365	2866.12
1020.58	2759.12
1020.795	2804.12
1021.011	2717.12
1021.226	2678.12
1021.441	2685.12
1021.656	2523.12
1021.871	2487.12
1022.086	2448.12
1022.301	2441.12
1022.516	2395.12
1022.731	2443.12
1022.946	2348.12
1023.16	2296.12
1023.375	2251.12
1023.59	2227.12
1023.804	2157.12
1024.019	2261.12
1024.234	2065.12
1024.448	2117.12
1024.663	2011.12
1024.877	2004.12
1025.092	2017.12
1025.306	2006.12
1025.52	1827.12
1025.734	1943.12
1025.949	1829.12
1026.163	1760.12
1026.377	1699.12
1026.591	1723.12
1026.805	1655.12
1027.019	1618.12
1027.233	1585.12
1027.447	1505.12
1027.661	1566.12
1027.875	1531.12
1028.088	1499.12
1028.302	1422.12
1028.516	1366.12
1028.73	1354.12
1028.943	1327.12
1029.157	1239.12
1029.37	1166.12
1029.584	0.12
1029.797	0.12
1030.011	0.12
1030.224	-1.88
