Data from QEP037381__162__14-53-15-840.txt Node

Date: Fri Dec 16 14:53:15 EST 2022
User: dcclab
Spectrometer: QEP03738
Trigger mode: 4
Integration Time (sec): 1.000000E1
Scans to average: 1
Electric dark correction enabled: true
Nonlinearity correction enabled: false
Boxcar width: 0
XAxis mode: Wavelengths
Number of Pixels in Spectrum: 1044
>>>>>Begin Spectral Data<<<<<
784.041	10.5
784.3	2.5
784.558	-0.5
784.817	-1.5
785.075	112653.5
785.334	19587.5
785.592	9237.5
785.851	6375.5
786.109	4783.5
786.368	3718.5
786.626	3029.5
786.884	2479.5
787.143	2126.5
787.401	1748.5
787.659	1587.5
787.917	1334.5
788.175	1241.5
788.433	1115.5
788.691	988.5
788.949	886.5
789.207	868.5
789.465	755.5
789.723	711.5
789.98	659.5
790.238	700.5
790.496	663.5
790.753	642.5
791.011	677.5
791.268	616.5
791.526	606.5
791.783	617.5
792.041	583.5
792.298	513.5
792.556	570.5
792.813	571.5
793.07	526.5
793.327	529.5
793.584	600.5
793.841	514.5
794.099	547.5
794.356	589.5
794.613	497.5
794.869	540.5
795.126	512.5
795.383	495.5
795.64	493.5
795.897	465.5
796.153	518.5
796.41	521.5
796.667	498.5
796.923	509.5
797.18	516.5
797.436	527.5
797.693	524.5
797.949	572.5
798.206	606.5
798.462	543.5
798.718	583.5
798.974	566.5
799.231	599.5
799.487	610.5
799.743	635.5
799.999	670.5
800.255	679.5
800.511	682.5
800.767	738.5
801.023	760.5
801.279	812.5
801.534	893.5
801.79	1000.5
802.046	1124.5
802.302	1369.5
802.557	1666.5
802.813	2161.5
803.068	2887.5
803.324	4043.5
803.579	5709.5
803.835	8001.5
804.09	10993.5
804.345	14669.5
804.601	18568.5
804.856	22460.5
805.111	26002.5
805.366	28714.5
805.621	30771.5
805.876	32242.5
806.131	33274.5
806.386	33872.5
806.641	34446.5
806.896	35056.5
807.151	35712.5
807.406	36316.5
807.661	36904.5
807.915	37607.5
808.17	38108.5
808.425	38607.5
808.679	38888.5
808.934	39301.5
809.188	39534.5
809.443	40247.5
809.697	40439.5
809.951	40840.5
810.206	41114.5
810.46	41589.5
810.714	41967.5
810.968	42313.5
811.223	42625.5
811.477	43074.5
811.731	43317.5
811.985	43638.5
812.239	43903.5
812.493	44052.5
812.747	44301.5
813	44343.5
813.254	44621.5
813.508	44712.5
813.762	45061.5
814.015	45208.5
814.269	45517.5
814.522	45926.5
814.776	46403.5
815.03	47228.5
815.283	47845.5
815.536	48575.5
815.79	49258.5
816.043	49777.5
816.296	50562.5
816.55	51190.5
816.803	51837.5
817.056	52558.5
817.309	52869.5
817.562	53353.5
817.815	53866.5
818.068	54353.5
818.321	54771.5
818.574	55563.5
818.827	56127.5
819.079	56901.5
819.332	57770.5
819.585	58297.5
819.838	59230.5
820.09	59576.5
820.343	59975.5
820.595	60337.5
820.848	60729.5
821.1	61109.5
821.353	61106.5
821.605	61003.5
821.857	61065.5
822.11	60657.5
822.362	60724.5
822.614	60628.5
822.866	60542.5
823.118	60423.5
823.37	60854.5
823.622	60914.5
823.874	61043.5
824.126	61107.5
824.378	61261.5
824.63	61703.5
824.882	61716.5
825.134	61812.5
825.385	61628.5
825.637	61658.5
825.888	61473.5
826.14	61081.5
826.392	61257.5
826.643	60896.5
826.895	60726.5
827.146	60439.5
827.397	60398.5
827.649	60431.5
827.9	60287.5
828.151	60354.5
828.402	60590.5
828.653	60605.5
828.905	60844.5
829.156	60956.5
829.407	60855.5
829.658	60960.5
829.909	61179.5
830.159	60965.5
830.41	60686.5
830.661	60279.5
830.912	59829.5
831.162	59812.5
831.413	59636.5
831.664	59717.5
831.914	59679.5
832.165	59541.5
832.415	59399.5
832.666	59597.5
832.916	59733.5
833.167	59630.5
833.417	59566.5
833.667	59418.5
833.917	59269.5
834.168	59242.5
834.418	58759.5
834.668	58448.5
834.918	58304.5
835.168	58007.5
835.418	57807.5
835.668	57792.5
835.918	57730.5
836.167	57487.5
836.417	57309.5
836.667	57355.5
836.917	57173.5
837.166	57232.5
837.416	57311.5
837.666	57312.5
837.915	57060.5
838.165	57152.5
838.414	56933.5
838.663	56634.5
838.913	56804.5
839.162	56429.5
839.411	56476.5
839.661	56110.5
839.91	55775.5
840.159	55653.5
840.408	55711.5
840.657	55934.5
840.906	55824.5
841.155	55844.5
841.404	55933.5
841.653	55804.5
841.902	55735.5
842.15	56026.5
842.399	55796.5
842.648	55841.5
842.897	55575.5
843.145	55290.5
843.394	54909.5
843.642	54743.5
843.891	54554.5
844.139	54135.5
844.388	53865.5
844.636	53829.5
844.884	53607.5
845.133	53546.5
845.381	53602.5
845.629	53578.5
845.877	53354.5
846.125	53364.5
846.373	53171.5
846.621	53007.5
846.869	52853.5
847.117	52644.5
847.365	52359.5
847.613	52142.5
847.861	52107.5
848.108	51970.5
848.356	51875.5
848.604	51577.5
848.851	51504.5
849.099	51783.5
849.346	51709.5
849.594	51962.5
849.841	52140.5
850.089	52331.5
850.336	52115.5
850.583	52197.5
850.831	51920.5
851.078	51607.5
851.325	51593.5
851.572	51549.5
851.819	51102.5
852.066	50210.5
852.313	49764.5
852.56	49527.5
852.807	49096.5
853.054	48950.5
853.301	48799.5
853.548	48826.5
853.794	49049.5
854.041	49365.5
854.288	49610.5
854.534	49765.5
854.781	49710.5
855.028	49554.5
855.274	49478.5
855.52	49398.5
855.767	48834.5
856.013	48810.5
856.26	49126.5
856.506	48327.5
856.752	48416.5
856.998	48309.5
857.244	48399.5
857.49	48787.5
857.736	48847.5
857.982	48817.5
858.228	48629.5
858.474	48236.5
858.72	48033.5
858.966	47693.5
859.212	47120.5
859.458	46841.5
859.703	46413.5
859.949	45958.5
860.195	45825.5
860.44	45331.5
860.686	45289.5
860.931	45130.5
861.177	44875.5
861.422	44801.5
861.667	44746.5
861.913	44680.5
862.158	44793.5
862.403	44874.5
862.648	44727.5
862.893	44910.5
863.138	44864.5
863.384	44880.5
863.629	44754.5
863.873	44620.5
864.118	44506.5
864.363	44247.5
864.608	44096.5
864.853	43882.5
865.098	43668.5
865.342	43631.5
865.587	43447.5
865.832	43214.5
866.076	43051.5
866.321	43107.5
866.565	43010.5
866.81	42621.5
867.054	42672.5
867.298	42641.5
867.543	42384.5
867.787	42396.5
868.031	42159.5
868.275	42083.5
868.519	42068.5
868.764	41888.5
869.008	41826.5
869.252	41702.5
869.496	41443.5
869.739	41304.5
869.983	41276.5
870.227	41147.5
870.471	41135.5
870.715	41162.5
870.958	41289.5
871.202	41401.5
871.446	41565.5
871.689	41545.5
871.933	41624.5
872.176	41372.5
872.42	41332.5
872.663	41220.5
872.906	41230.5
873.15	41011.5
873.393	40772.5
873.636	40615.5
873.879	40236.5
874.122	39828.5
874.366	39387.5
874.609	39102.5
874.852	38775.5
875.095	38710.5
875.337	38622.5
875.58	38327.5
875.823	38248.5
876.066	38070.5
876.309	37957.5
876.551	37675.5
876.794	37431.5
877.037	37663.5
877.279	37505.5
877.522	37540.5
877.764	37553.5
878.007	37427.5
878.249	37364.5
878.491	37373.5
878.734	37268.5
878.976	37166.5
879.218	36947.5
879.46	36605.5
879.702	36467.5
879.945	36238.5
880.187	35852.5
880.429	35572.5
880.671	35554.5
880.912	35337.5
881.154	35323.5
881.396	34945.5
881.638	35133.5
881.88	35077.5
882.121	34980.5
882.363	34881.5
882.605	34731.5
882.846	34683.5
883.088	34603.5
883.329	34602.5
883.571	34448.5
883.812	34696.5
884.053	34894.5
884.295	35369.5
884.536	35459.5
884.777	35342.5
885.018	35101.5
885.259	34885.5
885.5	34759.5
885.742	35001.5
885.982	34671.5
886.223	34649.5
886.464	34391.5
886.705	34159.5
886.946	33867.5
887.187	33462.5
887.428	33275.5
887.668	32822.5
887.909	32398.5
888.15	32185.5
888.39	32062.5
888.631	31869.5
888.871	31581.5
889.111	31216.5
889.352	31192.5
889.592	30872.5
889.833	30689.5
890.073	30507.5
890.313	30451.5
890.553	30089.5
890.793	30123.5
891.033	29972.5
891.273	29830.5
891.513	29721.5
891.753	29604.5
891.993	29565.5
892.233	29594.5
892.473	29757.5
892.713	29825.5
892.952	29766.5
893.192	29751.5
893.432	29705.5
893.671	29516.5
893.911	29411.5
894.15	29233.5
894.39	28950.5
894.629	28925.5
894.869	28661.5
895.108	28391.5
895.347	28275.5
895.587	28251.5
895.826	28205.5
896.065	28096.5
896.304	28016.5
896.543	27995.5
896.782	27751.5
897.021	27708.5
897.26	27697.5
897.499	27684.5
897.738	27548.5
897.977	27294.5
898.216	27127.5
898.454	26852.5
898.693	26750.5
898.932	26654.5
899.17	26513.5
899.409	26385.5
899.647	26309.5
899.886	26178.5
900.124	26271.5
900.363	26167.5
900.601	26223.5
900.839	26200.5
901.078	26247.5
901.316	26290.5
901.554	26319.5
901.792	26355.5
902.03	26327.5
902.268	26164.5
902.506	26074.5
902.744	26117.5
902.982	25814.5
903.22	25539.5
903.458	25318.5
903.695	24995.5
903.933	24755.5
904.171	24375.5
904.409	23961.5
904.646	23799.5
904.884	23513.5
905.121	23270.5
905.359	23081.5
905.596	22767.5
905.833	22632.5
906.071	22473.5
906.308	22432.5
906.545	22301.5
906.783	22230.5
907.02	22212.5
907.257	22100.5
907.494	22021.5
907.731	21954.5
907.968	21846.5
908.205	21708.5
908.442	21642.5
908.679	21602.5
908.915	21295.5
909.152	21179.5
909.389	20995.5
909.626	20689.5
909.862	20786.5
910.099	20506.5
910.335	20621.5
910.572	20418.5
910.808	20449.5
911.045	20288.5
911.281	20195.5
911.518	20147.5
911.754	19988.5
911.99	19894.5
912.226	19720.5
912.463	19522.5
912.699	19499.5
912.935	19258.5
913.171	19144.5
913.407	18913.5
913.643	18827.5
913.879	18657.5
914.114	18469.5
914.35	18295.5
914.586	18110.5
914.822	18012.5
915.057	18048.5
915.293	17720.5
915.529	17587.5
915.764	17680.5
916	17580.5
916.235	17573.5
916.471	17561.5
916.706	17370.5
916.941	17377.5
917.177	17381.5
917.412	17315.5
917.647	17327.5
917.882	17191.5
918.117	17167.5
918.352	17128.5
918.588	17013.5
918.823	16942.5
919.057	16815.5
919.292	16473.5
919.527	16445.5
919.762	16208.5
919.997	16190.5
920.232	15887.5
920.466	15799.5
920.701	15619.5
920.935	15596.5
921.17	15437.5
921.405	15342.5
921.639	15300.5
921.873	15265.5
922.108	15131.5
922.342	15046.5
922.576	15051.5
922.811	14965.5
923.045	14958.5
923.279	14958.5
923.513	14740.5
923.747	14770.5
923.981	14543.5
924.215	14389.5
924.449	14397.5
924.683	14157.5
924.917	14233.5
925.151	14148.5
925.385	14161.5
925.618	14075.5
925.852	14127.5
926.086	13938.5
926.319	13950.5
926.553	13913.5
926.786	13918.5
927.02	13812.5
927.253	13884.5
927.486	13876.5
927.72	13778.5
927.953	13750.5
928.186	13643.5
928.42	13711.5
928.653	13526.5
928.886	13446.5
929.119	13353.5
929.352	13305.5
929.585	13203.5
929.818	13176.5
930.051	13058.5
930.284	13027.5
930.516	12848.5
930.749	12761.5
930.982	12658.5
931.215	12621.5
931.447	12547.5
931.68	12460.5
931.912	12489.5
932.145	12418.5
932.377	12465.5
932.61	12556.5
932.842	12376.5
933.074	12438.5
933.307	12317.5
933.539	12349.5
933.771	12362.5
934.003	12327.5
934.236	12354.5
934.468	12321.5
934.7	12175.5
934.932	12185.5
935.164	12136.5
935.395	12061.5
935.627	12079.5
935.859	12097.5
936.091	11944.5
936.323	11967.5
936.554	11998.5
936.786	11897.5
937.017	11700.5
937.249	11796.5
937.481	11543.5
937.712	11677.5
937.943	11618.5
938.175	11579.5
938.406	11537.5
938.637	11614.5
938.869	11475.5
939.1	11538.5
939.331	11427.5
939.562	11369.5
939.793	11352.5
940.024	11264.5
940.255	11254.5
940.486	11220.5
940.717	11132.5
940.948	11086.5
941.179	10976.5
941.409	10980.5
941.64	10918.5
941.871	10933.5
942.102	10930.5
942.332	10941.5
942.563	10933.5
942.793	10927.5
943.024	10798.5
943.254	10892.5
943.484	10897.5
943.715	10802.5
943.945	10841.5
944.175	10781.5
944.405	10677.5
944.636	10775.5
944.866	10707.5
945.096	10678.5
945.326	10582.5
945.556	10599.5
945.786	10598.5
946.016	10522.5
946.245	10310.5
946.475	10265.5
946.705	10216.5
946.935	10183.5
947.164	10161.5
947.394	10045.5
947.624	10025.5
947.853	10030.5
948.083	9959.5
948.312	9870.5
948.542	9825.5
948.771	9738.5
949	9733.5
949.23	9714.5
949.459	9743.5
949.688	9771.5
949.917	9680.5
950.146	9657.5
950.375	9701.5
950.604	9564.5
950.833	9628.5
951.062	9582.5
951.291	9571.5
951.52	9455.5
951.749	9454.5
951.978	9371.5
952.206	9375.5
952.435	9395.5
952.664	9362.5
952.892	9301.5
953.121	9276.5
953.349	9237.5
953.578	9165.5
953.806	9114.5
954.035	9051.5
954.263	9049.5
954.491	8980.5
954.719	8918.5
954.948	8856.5
955.176	8847.5
955.404	8729.5
955.632	8773.5
955.86	8722.5
956.088	8669.5
956.316	8641.5
956.544	8626.5
956.772	8467.5
956.999	8459.5
957.227	8516.5
957.455	8380.5
957.683	8365.5
957.91	8284.5
958.138	8208.5
958.365	8195.5
958.593	8149.5
958.82	8072.5
959.048	8136.5
959.275	8087.5
959.502	8023.5
959.73	7940.5
959.957	8035.5
960.184	8007.5
960.411	7882.5
960.638	7986.5
960.865	7893.5
961.092	7945.5
961.319	7755.5
961.546	7899.5
961.773	7872.5
962	7827.5
962.227	7777.5
962.454	7766.5
962.68	7745.5
962.907	7691.5
963.134	7662.5
963.36	7608.5
963.587	7621.5
963.813	7470.5
964.04	7419.5
964.266	7389.5
964.493	7396.5
964.719	7362.5
964.945	7295.5
965.171	7166.5
965.398	7241.5
965.624	7151.5
965.85	7093.5
966.076	7123.5
966.302	7068.5
966.528	7006.5
966.754	7048.5
966.98	6989.5
967.206	6926.5
967.431	6876.5
967.657	6878.5
967.883	6910.5
968.109	6834.5
968.334	6787.5
968.56	6734.5
968.785	6668.5
969.011	6716.5
969.236	6764.5
969.462	6667.5
969.687	6707.5
969.912	6635.5
970.138	6636.5
970.363	6580.5
970.588	6519.5
970.813	6467.5
971.038	6484.5
971.263	6533.5
971.488	6393.5
971.713	6425.5
971.938	6395.5
972.163	6271.5
972.388	6313.5
972.613	6272.5
972.838	6237.5
973.062	6256.5
973.287	6146.5
973.512	6078.5
973.736	6116.5
973.961	6021.5
974.185	6013.5
974.41	6060.5
974.634	5942.5
974.858	5845.5
975.083	5894.5
975.307	5863.5
975.531	5804.5
975.755	5737.5
975.98	5722.5
976.204	5613.5
976.428	5611.5
976.652	5623.5
976.876	5529.5
977.1	5558.5
977.324	5480.5
977.547	5562.5
977.771	5563.5
977.995	5453.5
978.219	5414.5
978.442	5505.5
978.666	5413.5
978.89	5440.5
979.113	5368.5
979.337	5296.5
979.56	5308.5
979.783	5354.5
980.007	5251.5
980.23	5267.5
980.453	5163.5
980.677	5193.5
980.9	5154.5
981.123	5065.5
981.346	5093.5
981.569	5089.5
981.792	5133.5
982.015	5044.5
982.238	4952.5
982.461	4989.5
982.684	4960.5
982.907	4889.5
983.129	4846.5
983.352	4833.5
983.575	4838.5
983.797	4833.5
984.02	4749.5
984.242	4734.5
984.465	4695.5
984.687	4740.5
984.91	4721.5
985.132	4653.5
985.354	4679.5
985.577	4634.5
985.799	4583.5
986.021	4479.5
986.243	4519.5
986.465	4522.5
986.687	4573.5
986.909	4546.5
987.131	4480.5
987.353	4468.5
987.575	4445.5
987.797	4361.5
988.019	4351.5
988.241	4400.5
988.462	4333.5
988.684	4365.5
988.906	4392.5
989.127	4390.5
989.349	4274.5
989.57	4258.5
989.792	4302.5
990.013	4320.5
990.234	4236.5
990.456	4243.5
990.677	4212.5
990.898	4184.5
991.119	4155.5
991.341	4170.5
991.562	4088.5
991.783	4109.5
992.004	4060.5
992.225	3975.5
992.446	4028.5
992.667	3930.5
992.887	4003.5
993.108	3851.5
993.329	3985.5
993.55	3897.5
993.77	3861.5
993.991	3803.5
994.212	3800.5
994.432	3792.5
994.653	3772.5
994.873	3740.5
995.093	3638.5
995.314	3677.5
995.534	3655.5
995.754	3726.5
995.975	3752.5
996.195	3620.5
996.415	3601.5
996.635	3625.5
996.855	3598.5
997.075	3617.5
997.295	3571.5
997.515	3529.5
997.735	3574.5
997.955	3542.5
998.174	3530.5
998.394	3510.5
998.614	3496.5
998.834	3435.5
999.053	3470.5
999.273	3472.5
999.492	3520.5
999.712	3433.5
999.931	3361.5
1000.151	3398.5
1000.37	3350.5
1000.589	3465.5
1000.809	3316.5
1001.028	3399.5
1001.247	3334.5
1001.466	3197.5
1001.685	3324.5
1001.904	3261.5
1002.123	3257.5
1002.342	3237.5
1002.561	3125.5
1002.78	3156.5
1002.999	3150.5
1003.218	3140.5
1003.436	3040.5
1003.655	3137.5
1003.874	3063.5
1004.092	3082.5
1004.311	3081.5
1004.53	3014.5
1004.748	3107.5
1004.966	2988.5
1005.185	3056.5
1005.403	3037.5
1005.622	2962.5
1005.84	3055.5
1006.058	2946.5
1006.276	3001.5
1006.494	3445.5
1006.712	2969.5
1006.931	3026.5
1007.149	2948.5
1007.367	2947.5
1007.584	2969.5
1007.802	2996.5
1008.02	2932.5
1008.238	3060.5
1008.456	3003.5
1008.673	2884.5
1008.891	3031.5
1009.109	2957.5
1009.326	3009.5
1009.544	3091.5
1009.761	3050.5
1009.979	3163.5
1010.196	3158.5
1010.413	3343.5
1010.631	3419.5
1010.848	3447.5
1011.065	3471.5
1011.282	3488.5
1011.5	3369.5
1011.717	3463.5
1011.934	3388.5
1012.151	3427.5
1012.368	3368.5
1012.585	3268.5
1012.801	3366.5
1013.018	3335.5
1013.235	3303.5
1013.452	3318.5
1013.669	3311.5
1013.885	3314.5
1014.102	3374.5
1014.318	3324.5
1014.535	3264.5
1014.751	3304.5
1014.968	3288.5
1015.184	3275.5
1015.401	3164.5
1015.617	3163.5
1015.833	3056.5
1016.049	3124.5
1016.266	3031.5
1016.482	3018.5
1016.698	2959.5
1016.914	2957.5
1017.13	2912.5
1017.346	2869.5
1017.562	2966.5
1017.778	2861.5
1017.993	2810.5
1018.209	2876.5
1018.425	2895.5
1018.641	2812.5
1018.856	2787.5
1019.072	2838.5
1019.288	2854.5
1019.503	2772.5
1019.719	2691.5
1019.934	2694.5
1020.149	2769.5
1020.365	2673.5
1020.58	2606.5
1020.795	2619.5
1021.011	2561.5
1021.226	2471.5
1021.441	2506.5
1021.656	2381.5
1021.871	2301.5
1022.086	2291.5
1022.301	2264.5
1022.516	2229.5
1022.731	2243.5
1022.946	2156.5
1023.16	2131.5
1023.375	2105.5
1023.59	2047.5
1023.804	2000.5
1024.019	2070.5
1024.234	1918.5
1024.448	1960.5
1024.663	1871.5
1024.877	1891.5
1025.092	1842.5
1025.306	1846.5
1025.52	1706.5
1025.734	1774.5
1025.949	1664.5
1026.163	1632.5
1026.377	1559.5
1026.591	1596.5
1026.805	1512.5
1027.019	1495.5
1027.233	1450.5
1027.447	1384.5
1027.661	1462.5
1027.875	1416.5
1028.088	1399.5
1028.302	1274.5
1028.516	1285.5
1028.73	1252.5
1028.943	1203.5
1029.157	1152.5
1029.37	1076.5
1029.584	-1.5
1029.797	-1.5
1030.011	-4.5
1030.224	-3.5
