Data from QEP037381__153__14-51-45-838.txt Node

Date: Fri Dec 16 14:51:45 EST 2022
User: dcclab
Spectrometer: QEP03738
Trigger mode: 4
Integration Time (sec): 1.000000E1
Scans to average: 1
Electric dark correction enabled: true
Nonlinearity correction enabled: false
Boxcar width: 0
XAxis mode: Wavelengths
Number of Pixels in Spectrum: 1044
>>>>>Begin Spectral Data<<<<<
784.041	7.62
784.3	1.62
784.558	-1.38
784.817	-6.38
785.075	114784.62
785.334	19975.62
785.592	9302.62
785.851	6491.62
786.109	4900.62
786.368	3819.62
786.626	3075.62
786.884	2522.62
787.143	2109.62
787.401	1789.62
787.659	1585.62
787.917	1379.62
788.175	1263.62
788.433	1114.62
788.691	1004.62
788.949	935.62
789.207	886.62
789.465	781.62
789.723	755.62
789.98	695.62
790.238	731.62
790.496	683.62
790.753	666.62
791.011	690.62
791.268	640.62
791.526	627.62
791.783	624.62
792.041	607.62
792.298	533.62
792.556	585.62
792.813	565.62
793.07	559.62
793.327	529.62
793.584	616.62
793.841	555.62
794.099	554.62
794.356	620.62
794.613	517.62
794.869	572.62
795.126	540.62
795.383	511.62
795.64	534.62
795.897	486.62
796.153	553.62
796.41	554.62
796.667	523.62
796.923	543.62
797.18	564.62
797.436	570.62
797.693	531.62
797.949	612.62
798.206	633.62
798.462	560.62
798.718	637.62
798.974	627.62
799.231	664.62
799.487	656.62
799.743	690.62
799.999	720.62
800.255	743.62
800.511	748.62
800.767	836.62
801.023	835.62
801.279	900.62
801.534	1014.62
801.79	1116.62
802.046	1241.62
802.302	1543.62
802.557	1874.62
802.813	2468.62
803.068	3272.62
803.324	4664.62
803.579	6651.62
803.835	9394.62
804.09	13016.62
804.345	17265.62
804.601	21967.62
804.856	26669.62
805.111	30879.62
805.366	34077.62
805.621	36656.62
805.876	38183.62
806.131	39323.62
806.386	40268.62
806.641	40984.62
806.896	41674.62
807.151	42627.62
807.406	43165.62
807.661	44091.62
807.915	44863.62
808.17	45399.62
808.425	46078.62
808.679	46402.62
808.934	46865.62
809.188	47521.62
809.443	47963.62
809.697	48426.62
809.951	48921.62
810.206	49421.62
810.46	49883.62
810.714	50366.62
810.968	50669.62
811.223	51016.62
811.477	51592.62
811.731	52069.62
811.985	52373.62
812.239	52716.62
812.493	52970.62
812.747	53257.62
813	53294.62
813.254	53486.62
813.508	53799.62
813.762	54145.62
814.015	54461.62
814.269	54772.62
814.522	55451.62
814.776	56013.62
815.03	56658.62
815.283	57373.62
815.536	58326.62
815.79	59296.62
816.043	60270.62
816.296	60984.62
816.55	61761.62
816.803	62410.62
817.056	63226.62
817.309	63850.62
817.562	64500.62
817.815	65037.62
818.068	65587.62
818.321	66403.62
818.574	67251.62
818.827	67905.62
819.079	68969.62
819.332	69861.62
819.585	70633.62
819.838	71620.62
820.09	72064.62
820.343	72728.62
820.595	73198.62
820.848	73766.62
821.1	73948.62
821.353	74206.62
821.605	74247.62
821.857	74163.62
822.11	73757.62
822.362	73566.62
822.614	73576.62
822.866	73563.62
823.118	73450.62
823.37	73695.62
823.622	73839.62
823.874	74063.62
824.126	74401.62
824.378	74516.62
824.63	74694.62
824.882	75009.62
825.134	75070.62
825.385	75045.62
825.637	74819.62
825.888	74764.62
826.14	74636.62
826.392	74198.62
826.643	74089.62
826.895	73859.62
827.146	73572.62
827.397	73342.62
827.649	73320.62
827.9	73303.62
828.151	73449.62
828.402	73731.62
828.653	73967.62
828.905	74074.62
829.156	74124.62
829.407	74057.62
829.658	74138.62
829.909	74197.62
830.159	73909.62
830.41	73583.62
830.661	73213.62
830.912	72777.62
831.162	72675.62
831.413	72363.62
831.664	72247.62
831.914	72258.62
832.165	72119.62
832.415	72186.62
832.666	72250.62
832.916	72327.62
833.167	72253.62
833.417	72109.62
833.667	72221.62
833.917	71718.62
834.168	71492.62
834.418	71350.62
834.668	71150.62
834.918	70931.62
835.168	70455.62
835.418	70319.62
835.668	70151.62
835.918	69937.62
836.167	69867.62
836.417	69618.62
836.667	69462.62
836.917	69364.62
837.166	69415.62
837.416	69557.62
837.666	69517.62
837.915	69238.62
838.165	69179.62
838.414	69135.62
838.663	68889.62
838.913	68732.62
839.162	68469.62
839.411	68360.62
839.661	68135.62
839.91	67858.62
840.159	67902.62
840.408	67586.62
840.657	67596.62
840.906	67474.62
841.155	67548.62
841.404	67819.62
841.653	67791.62
841.902	67853.62
842.15	67811.62
842.399	67883.62
842.648	67733.62
842.897	67237.62
843.145	67032.62
843.394	66623.62
843.642	66388.62
843.891	65991.62
844.139	65708.62
844.388	65579.62
844.636	65205.62
844.884	65129.62
845.133	64948.62
845.381	64828.62
845.629	64772.62
845.877	64871.62
846.125	64739.62
846.373	64610.62
846.621	64194.62
846.869	64106.62
847.117	63806.62
847.365	63447.62
847.613	63350.62
847.861	62956.62
848.108	62856.62
848.356	62583.62
848.604	62425.62
848.851	62577.62
849.099	62582.62
849.346	62907.62
849.594	62935.62
849.841	62970.62
850.089	63224.62
850.336	63435.62
850.583	63432.62
850.831	62731.62
851.078	62562.62
851.325	62417.62
851.572	62280.62
851.819	61584.62
852.066	60914.62
852.313	60197.62
852.56	59785.62
852.807	59590.62
853.054	59344.62
853.301	59243.62
853.548	59277.62
853.794	59304.62
854.041	59491.62
854.288	59704.62
854.534	60253.62
854.781	60380.62
855.028	60084.62
855.274	59709.62
855.52	59479.62
855.767	59132.62
856.013	59189.62
856.26	59229.62
856.506	58423.62
856.752	58389.62
856.998	58478.62
857.244	58687.62
857.49	58611.62
857.736	58890.62
857.982	58897.62
858.228	58481.62
858.474	58344.62
858.72	58004.62
858.966	57454.62
859.212	56975.62
859.458	56436.62
859.703	55937.62
859.949	55371.62
860.195	55144.62
860.44	54776.62
860.686	54565.62
860.931	54440.62
861.177	54077.62
861.422	54069.62
861.667	54064.62
861.913	54073.62
862.158	54033.62
862.403	54079.62
862.648	54289.62
862.893	54283.62
863.138	54296.62
863.384	53963.62
863.629	54114.62
863.873	53920.62
864.118	53778.62
864.363	53508.62
864.608	53453.62
864.853	53133.62
865.098	52798.62
865.342	52638.62
865.587	52524.62
865.832	52430.62
866.076	52270.62
866.321	51919.62
866.565	51736.62
866.81	51633.62
867.054	51437.62
867.298	51440.62
867.543	51039.62
867.787	51003.62
868.031	50794.62
868.275	50621.62
868.519	50598.62
868.764	50488.62
869.008	50410.62
869.252	50228.62
869.496	49975.62
869.739	49710.62
869.983	49655.62
870.227	49749.62
870.471	49572.62
870.715	49730.62
870.958	49697.62
871.202	49637.62
871.446	49951.62
871.689	49807.62
871.933	50062.62
872.176	49818.62
872.42	49700.62
872.663	49295.62
872.906	49338.62
873.15	49185.62
873.393	48805.62
873.636	48575.62
873.879	48215.62
874.122	47879.62
874.366	47183.62
874.609	47015.62
874.852	46666.62
875.095	46346.62
875.337	46162.62
875.58	46071.62
875.823	45824.62
876.066	45666.62
876.309	45726.62
876.551	45427.62
876.794	45111.62
877.037	45088.62
877.279	44934.62
877.522	45019.62
877.764	45029.62
878.007	44817.62
878.249	44963.62
878.491	44880.62
878.734	44748.62
878.976	44770.62
879.218	44348.62
879.46	44269.62
879.702	43918.62
879.945	43695.62
880.187	43357.62
880.429	43051.62
880.671	42825.62
880.912	42644.62
881.154	42364.62
881.396	42351.62
881.638	42310.62
881.88	42322.62
882.121	42148.62
882.363	42083.62
882.605	41756.62
882.846	41793.62
883.088	41645.62
883.329	41457.62
883.571	41377.62
883.812	41427.62
884.053	41637.62
884.295	41985.62
884.536	42109.62
884.777	41851.62
885.018	41439.62
885.259	41510.62
885.5	41439.62
885.742	41716.62
885.982	41397.62
886.223	41044.62
886.464	41068.62
886.705	40829.62
886.946	40454.62
887.187	40117.62
887.428	39946.62
887.668	39367.62
887.909	39135.62
888.15	38744.62
888.39	38471.62
888.631	38238.62
888.871	38028.62
889.111	37844.62
889.352	37589.62
889.592	37283.62
889.833	36966.62
890.073	36697.62
890.313	36602.62
890.553	36235.62
890.793	36170.62
891.033	35932.62
891.273	35754.62
891.513	35534.62
891.753	35623.62
891.993	35541.62
892.233	35443.62
892.473	35629.62
892.713	35511.62
892.952	35461.62
893.192	35584.62
893.432	35495.62
893.671	35462.62
893.911	35218.62
894.15	34895.62
894.39	34683.62
894.629	34512.62
894.869	34321.62
895.108	34151.62
895.347	33932.62
895.587	33805.62
895.826	33669.62
896.065	33689.62
896.304	33649.62
896.543	33546.62
896.782	33310.62
897.021	33281.62
897.26	33128.62
897.499	32855.62
897.738	32888.62
897.977	32732.62
898.216	32294.62
898.454	32118.62
898.693	31890.62
898.932	31750.62
899.17	31579.62
899.409	31571.62
899.647	31413.62
899.886	31324.62
900.124	31337.62
900.363	31346.62
900.601	31418.62
900.839	31277.62
901.078	31291.62
901.316	31180.62
901.554	31414.62
901.792	31317.62
902.03	31156.62
902.268	31237.62
902.506	31172.62
902.744	30992.62
902.982	30791.62
903.22	30409.62
903.458	30138.62
903.695	29824.62
903.933	29498.62
904.171	29038.62
904.409	28839.62
904.646	28471.62
904.884	28192.62
905.121	27878.62
905.359	27528.62
905.596	27393.62
905.833	27206.62
906.071	27054.62
906.308	27011.62
906.545	26842.62
906.783	26746.62
907.02	26658.62
907.257	26634.62
907.494	26395.62
907.731	26346.62
907.968	26307.62
908.205	26094.62
908.442	25959.62
908.679	25863.62
908.915	25636.62
909.152	25442.62
909.389	25112.62
909.626	25044.62
909.862	24892.62
910.099	24834.62
910.335	24780.62
910.572	24583.62
910.808	24508.62
911.045	24473.62
911.281	24323.62
911.518	24208.62
911.754	24065.62
911.99	23844.62
912.226	23752.62
912.463	23549.62
912.699	23345.62
912.935	23161.62
913.171	23021.62
913.407	22822.62
913.643	22587.62
913.879	22525.62
914.114	22223.62
914.35	22046.62
914.586	21790.62
914.822	21604.62
915.057	21595.62
915.293	21275.62
915.529	21163.62
915.764	21263.62
916	21158.62
916.235	21009.62
916.471	20968.62
916.706	20886.62
916.941	20860.62
917.177	20859.62
917.412	20947.62
917.647	20846.62
917.882	20622.62
918.117	20644.62
918.352	20614.62
918.588	20470.62
918.823	20189.62
919.057	20184.62
919.292	19903.62
919.527	19752.62
919.762	19518.62
919.997	19369.62
920.232	19147.62
920.466	19015.62
920.701	18806.62
920.935	18589.62
921.17	18530.62
921.405	18436.62
921.639	18503.62
921.873	18287.62
922.108	18214.62
922.342	18196.62
922.576	17996.62
922.811	18066.62
923.045	17933.62
923.279	17905.62
923.513	17636.62
923.747	17700.62
923.981	17519.62
924.215	17390.62
924.449	17281.62
924.683	17123.62
924.917	17120.62
925.151	17013.62
925.385	16966.62
925.618	16835.62
925.852	16793.62
926.086	16765.62
926.319	16719.62
926.553	16693.62
926.786	16683.62
927.02	16622.62
927.253	16654.62
927.486	16544.62
927.72	16423.62
927.953	16466.62
928.186	16428.62
928.42	16357.62
928.653	16394.62
928.886	16166.62
929.119	16102.62
929.352	15989.62
929.585	15909.62
929.818	15775.62
930.051	15680.62
930.284	15545.62
930.516	15294.62
930.749	15263.62
930.982	15170.62
931.215	15085.62
931.447	15044.62
931.68	14867.62
931.912	14903.62
932.145	14851.62
932.377	14850.62
932.61	15023.62
932.842	14798.62
933.074	14777.62
933.307	14802.62
933.539	14765.62
933.771	14814.62
934.003	14732.62
934.236	14799.62
934.468	14773.62
934.7	14617.62
934.932	14718.62
935.164	14556.62
935.395	14541.62
935.627	14494.62
935.859	14489.62
936.091	14233.62
936.323	14326.62
936.554	14301.62
936.786	14066.62
937.017	14066.62
937.249	14031.62
937.481	13803.62
937.712	14005.62
937.943	13924.62
938.175	13906.62
938.406	13823.62
938.637	13889.62
938.869	13728.62
939.1	13708.62
939.331	13671.62
939.562	13663.62
939.793	13575.62
940.024	13438.62
940.255	13392.62
940.486	13321.62
940.717	13259.62
940.948	13258.62
941.179	13117.62
941.409	13164.62
941.64	13053.62
941.871	12976.62
942.102	13126.62
942.332	13053.62
942.563	13073.62
942.793	13030.62
943.024	12909.62
943.254	12993.62
943.484	13011.62
943.715	13020.62
943.945	12944.62
944.175	12826.62
944.405	12801.62
944.636	12794.62
944.866	12826.62
945.096	12803.62
945.326	12641.62
945.556	12678.62
945.786	12636.62
946.016	12566.62
946.245	12350.62
946.475	12323.62
946.705	12247.62
946.935	12202.62
947.164	12156.62
947.394	12005.62
947.624	11992.62
947.853	12017.62
948.083	11934.62
948.312	11836.62
948.542	11741.62
948.771	11634.62
949	11651.62
949.23	11593.62
949.459	11713.62
949.688	11690.62
949.917	11603.62
950.146	11580.62
950.375	11639.62
950.604	11403.62
950.833	11551.62
951.062	11515.62
951.291	11427.62
951.52	11387.62
951.749	11363.62
951.978	11223.62
952.206	11177.62
952.435	11202.62
952.664	11179.62
952.892	11169.62
953.121	11009.62
953.349	11123.62
953.578	10959.62
953.806	10865.62
954.035	10791.62
954.263	10815.62
954.491	10699.62
954.719	10716.62
954.948	10579.62
955.176	10481.62
955.404	10506.62
955.632	10495.62
955.86	10385.62
956.088	10371.62
956.316	10311.62
956.544	10314.62
956.772	10167.62
956.999	10164.62
957.227	10166.62
957.455	9979.62
957.683	9951.62
957.91	9817.62
958.138	9777.62
958.365	9764.62
958.593	9728.62
958.82	9643.62
959.048	9705.62
959.275	9588.62
959.502	9614.62
959.73	9486.62
959.957	9558.62
960.184	9563.62
960.411	9509.62
960.638	9483.62
960.865	9398.62
961.092	9481.62
961.319	9306.62
961.546	9366.62
961.773	9294.62
962	9314.62
962.227	9378.62
962.454	9297.62
962.68	9246.62
962.907	9163.62
963.134	9077.62
963.36	8979.62
963.587	9047.62
963.813	8911.62
964.04	8869.62
964.266	8804.62
964.493	8820.62
964.719	8721.62
964.945	8681.62
965.171	8567.62
965.398	8531.62
965.624	8516.62
965.85	8414.62
966.076	8427.62
966.302	8390.62
966.528	8347.62
966.754	8353.62
966.98	8291.62
967.206	8225.62
967.431	8117.62
967.657	8179.62
967.883	8207.62
968.109	8169.62
968.334	8144.62
968.56	8036.62
968.785	8093.62
969.011	7916.62
969.236	8028.62
969.462	7946.62
969.687	7974.62
969.912	7925.62
970.138	7928.62
970.363	7780.62
970.588	7809.62
970.813	7740.62
971.038	7674.62
971.263	7710.62
971.488	7614.62
971.713	7686.62
971.938	7632.62
972.163	7489.62
972.388	7472.62
972.613	7424.62
972.838	7384.62
973.062	7406.62
973.287	7396.62
973.512	7311.62
973.736	7306.62
973.961	7226.62
974.185	7156.62
974.41	7117.62
974.634	6968.62
974.858	6941.62
975.083	7048.62
975.307	6967.62
975.531	6929.62
975.755	6756.62
975.98	6812.62
976.204	6726.62
976.428	6701.62
976.652	6651.62
976.876	6603.62
977.1	6584.62
977.324	6578.62
977.547	6531.62
977.771	6521.62
977.995	6505.62
978.219	6404.62
978.442	6505.62
978.666	6462.62
978.89	6420.62
979.113	6381.62
979.337	6347.62
979.56	6366.62
979.783	6397.62
980.007	6183.62
980.23	6266.62
980.453	6217.62
980.677	6172.62
980.9	6152.62
981.123	6069.62
981.346	6113.62
981.569	6058.62
981.792	6021.62
982.015	5978.62
982.238	5879.62
982.461	5916.62
982.684	5882.62
982.907	5774.62
983.129	5791.62
983.352	5791.62
983.575	5700.62
983.797	5665.62
984.02	5618.62
984.242	5617.62
984.465	5579.62
984.687	5610.62
984.91	5564.62
985.132	5489.62
985.354	5502.62
985.577	5416.62
985.799	5408.62
986.021	5349.62
986.243	5330.62
986.465	5296.62
986.687	5343.62
986.909	5341.62
987.131	5254.62
987.353	5203.62
987.575	5248.62
987.797	5122.62
988.019	5087.62
988.241	5152.62
988.462	5023.62
988.684	5116.62
988.906	5107.62
989.127	5178.62
989.349	4973.62
989.57	5017.62
989.792	5058.62
990.013	5044.62
990.234	4990.62
990.456	4992.62
990.677	4999.62
990.898	4880.62
991.119	4878.62
991.341	4891.62
991.562	4808.62
991.783	4850.62
992.004	4725.62
992.225	4668.62
992.446	4702.62
992.667	4585.62
992.887	4688.62
993.108	4534.62
993.329	4592.62
993.55	4552.62
993.77	4486.62
993.991	4454.62
994.212	4458.62
994.432	4415.62
994.653	4403.62
994.873	4351.62
995.093	4259.62
995.314	4207.62
995.534	4326.62
995.754	4309.62
995.975	4318.62
996.195	4191.62
996.415	4252.62
996.635	4175.62
996.855	4188.62
997.075	4141.62
997.295	4203.62
997.515	4148.62
997.735	4144.62
997.955	4078.62
998.174	4069.62
998.394	4013.62
998.614	4062.62
998.834	3986.62
999.053	4043.62
999.273	4057.62
999.492	4064.62
999.712	3973.62
999.931	3915.62
1000.151	3926.62
1000.37	3881.62
1000.589	3927.62
1000.809	3862.62
1001.028	3926.62
1001.247	3822.62
1001.466	3680.62
1001.685	3835.62
1001.904	3789.62
1002.123	3680.62
1002.342	3704.62
1002.561	3628.62
1002.78	3649.62
1002.999	3678.62
1003.218	3617.62
1003.436	3531.62
1003.655	3606.62
1003.874	3514.62
1004.092	3531.62
1004.311	3567.62
1004.53	3499.62
1004.748	3544.62
1004.966	3463.62
1005.185	3505.62
1005.403	3488.62
1005.622	3441.62
1005.84	3494.62
1006.058	3387.62
1006.276	3373.62
1006.494	3876.62
1006.712	3361.62
1006.931	3429.62
1007.149	3375.62
1007.367	3356.62
1007.584	3339.62
1007.802	3413.62
1008.02	3282.62
1008.238	3436.62
1008.456	3401.62
1008.673	3276.62
1008.891	3389.62
1009.109	3368.62
1009.326	3395.62
1009.544	3490.62
1009.761	3412.62
1009.979	3498.62
1010.196	3536.62
1010.413	3687.62
1010.631	3728.62
1010.848	3808.62
1011.065	3761.62
1011.282	3771.62
1011.5	3628.62
1011.717	3786.62
1011.934	3710.62
1012.151	3694.62
1012.368	3656.62
1012.585	3596.62
1012.801	3652.62
1013.018	3627.62
1013.235	3566.62
1013.452	3572.62
1013.669	3571.62
1013.885	3556.62
1014.102	3624.62
1014.318	3543.62
1014.535	3523.62
1014.751	3549.62
1014.968	3504.62
1015.184	3511.62
1015.401	3389.62
1015.617	3398.62
1015.833	3315.62
1016.049	3293.62
1016.266	3254.62
1016.482	3237.62
1016.698	3168.62
1016.914	3189.62
1017.13	3108.62
1017.346	3076.62
1017.562	3162.62
1017.778	3057.62
1017.993	3050.62
1018.209	3056.62
1018.425	3022.62
1018.641	2987.62
1018.856	2944.62
1019.072	3016.62
1019.288	3045.62
1019.503	2988.62
1019.719	2887.62
1019.934	2923.62
1020.149	2929.62
1020.365	2866.62
1020.58	2808.62
1020.795	2806.62
1021.011	2753.62
1021.226	2684.62
1021.441	2727.62
1021.656	2596.62
1021.871	2529.62
1022.086	2496.62
1022.301	2445.62
1022.516	2433.62
1022.731	2446.62
1022.946	2347.62
1023.16	2347.62
1023.375	2289.62
1023.59	2229.62
1023.804	2203.62
1024.019	2270.62
1024.234	2124.62
1024.448	2100.62
1024.663	2066.62
1024.877	2045.62
1025.092	2038.62
1025.306	2011.62
1025.52	1872.62
1025.734	1952.62
1025.949	1844.62
1026.163	1810.62
1026.377	1710.62
1026.591	1780.62
1026.805	1676.62
1027.019	1629.62
1027.233	1574.62
1027.447	1546.62
1027.661	1634.62
1027.875	1518.62
1028.088	1517.62
1028.302	1447.62
1028.516	1420.62
1028.73	1352.62
1028.943	1337.62
1029.157	1266.62
1029.37	1183.62
1029.584	0.62
1029.797	-0.38
1030.011	-1.38
1030.224	-0.38
