Data from QEP037381__179__14-56-05-843.txt Node

Date: Fri Dec 16 14:56:05 EST 2022
User: dcclab
Spectrometer: QEP03738
Trigger mode: 4
Integration Time (sec): 1.000000E1
Scans to average: 1
Electric dark correction enabled: true
Nonlinearity correction enabled: false
Boxcar width: 0
XAxis mode: Wavelengths
Number of Pixels in Spectrum: 1044
>>>>>Begin Spectral Data<<<<<
784.041	10.88
784.3	-0.12
784.558	-0.12
784.817	-4.12
785.075	113952.88
785.334	19899.88
785.592	9358.88
785.851	6436.88
786.109	4894.88
786.368	3790.88
786.626	3076.88
786.884	2543.88
787.143	2151.88
787.401	1782.88
787.659	1567.88
787.917	1345.88
788.175	1228.88
788.433	1094.88
788.691	970.88
788.949	899.88
789.207	879.88
789.465	776.88
789.723	749.88
789.98	679.88
790.238	693.88
790.496	675.88
790.753	632.88
791.011	690.88
791.268	624.88
791.526	581.88
791.783	632.88
792.041	609.88
792.298	512.88
792.556	558.88
792.813	545.88
793.07	545.88
793.327	528.88
793.584	609.88
793.841	535.88
794.099	532.88
794.356	593.88
794.613	498.88
794.869	527.88
795.126	504.88
795.383	477.88
795.64	528.88
795.897	462.88
796.153	513.88
796.41	503.88
796.667	488.88
796.923	512.88
797.18	507.88
797.436	521.88
797.693	503.88
797.949	558.88
798.206	586.88
798.462	506.88
798.718	592.88
798.974	565.88
799.231	614.88
799.487	602.88
799.743	614.88
799.999	657.88
800.255	664.88
800.511	659.88
800.767	720.88
801.023	735.88
801.279	791.88
801.534	871.88
801.79	973.88
802.046	1061.88
802.302	1315.88
802.557	1585.88
802.813	2019.88
803.068	2690.88
803.324	3836.88
803.579	5383.88
803.835	7590.88
804.09	10464.88
804.345	13873.88
804.601	17532.88
804.856	21172.88
805.111	24360.88
805.366	26957.88
805.621	28772.88
805.876	30113.88
806.131	31061.88
806.386	31536.88
806.641	32243.88
806.896	32625.88
807.151	33230.88
807.406	33841.88
807.661	34414.88
807.915	35177.88
808.17	35677.88
808.425	35999.88
808.679	36375.88
808.934	36754.88
809.188	37007.88
809.443	37420.88
809.697	37941.88
809.951	38184.88
810.206	38459.88
810.46	38778.88
810.714	39123.88
810.968	39543.88
811.223	39773.88
811.477	40233.88
811.731	40599.88
811.985	40841.88
812.239	40999.88
812.493	41244.88
812.747	41456.88
813	41417.88
813.254	41649.88
813.508	42065.88
813.762	41984.88
814.015	42350.88
814.269	42538.88
814.522	42987.88
814.776	43463.88
815.03	43920.88
815.283	44581.88
815.536	45244.88
815.79	46015.88
816.043	46591.88
816.296	47373.88
816.55	47923.88
816.803	48364.88
817.056	48964.88
817.309	49496.88
817.562	49933.88
817.815	50452.88
818.068	50844.88
818.321	51318.88
818.574	51933.88
818.827	52571.88
819.079	53212.88
819.332	54227.88
819.585	54841.88
819.838	55413.88
820.09	55762.88
820.343	56105.88
820.595	56619.88
820.848	56888.88
821.1	57090.88
821.353	57206.88
821.605	57008.88
821.857	57193.88
822.11	56887.88
822.362	56714.88
822.614	56790.88
822.866	56750.88
823.118	56731.88
823.37	56911.88
823.622	57113.88
823.874	57223.88
824.126	57387.88
824.378	57582.88
824.63	57821.88
824.882	57778.88
825.134	57894.88
825.385	57918.88
825.637	57773.88
825.888	57604.88
826.14	57478.88
826.392	57220.88
826.643	57001.88
826.895	56851.88
827.146	56772.88
827.397	56537.88
827.649	56534.88
827.9	56524.88
828.151	56797.88
828.402	56932.88
828.653	57136.88
828.905	57093.88
829.156	57405.88
829.407	57244.88
829.658	57285.88
829.909	57250.88
830.159	57154.88
830.41	56998.88
830.661	56390.88
830.912	56137.88
831.162	56088.88
831.413	55884.88
831.664	55879.88
831.914	56145.88
832.165	55865.88
832.415	55826.88
832.666	56054.88
832.916	55879.88
833.167	55915.88
833.417	55854.88
833.667	55528.88
833.917	55578.88
834.168	55417.88
834.418	55161.88
834.668	55094.88
834.918	54835.88
835.168	54645.88
835.418	54423.88
835.668	54337.88
835.918	54212.88
836.167	54072.88
836.417	53833.88
836.667	53963.88
836.917	53915.88
837.166	53769.88
837.416	53741.88
837.666	53669.88
837.915	53656.88
838.165	53626.88
838.414	53448.88
838.663	53407.88
838.913	53349.88
839.162	53153.88
839.411	53025.88
839.661	52911.88
839.91	52819.88
840.159	52600.88
840.408	52519.88
840.657	52598.88
840.906	52508.88
841.155	52554.88
841.404	52495.88
841.653	52563.88
841.902	52746.88
842.15	52612.88
842.399	52738.88
842.648	52791.88
842.897	52450.88
843.145	52167.88
843.394	51933.88
843.642	51495.88
843.891	51390.88
844.139	51065.88
844.388	50890.88
844.636	50711.88
844.884	50484.88
845.133	50632.88
845.381	50520.88
845.629	50453.88
845.877	50423.88
846.125	50314.88
846.373	50117.88
846.621	50138.88
846.869	49943.88
847.117	49638.88
847.365	49320.88
847.613	49265.88
847.861	49047.88
848.108	49046.88
848.356	48781.88
848.604	48815.88
848.851	48884.88
849.099	48880.88
849.346	48970.88
849.594	49242.88
849.841	49363.88
850.089	49484.88
850.336	49562.88
850.583	49466.88
850.831	49170.88
851.078	48826.88
851.325	48700.88
851.572	48569.88
851.819	48222.88
852.066	47419.88
852.313	46955.88
852.56	46775.88
852.807	46540.88
853.054	46443.88
853.301	46201.88
853.548	46351.88
853.794	46407.88
854.041	46524.88
854.288	46923.88
854.534	47249.88
854.781	47064.88
855.028	46962.88
855.274	46844.88
855.52	46642.88
855.767	46313.88
856.013	46366.88
856.26	46574.88
856.506	45955.88
856.752	45830.88
856.998	45717.88
857.244	46022.88
857.49	46379.88
857.736	46401.88
857.982	46281.88
858.228	46137.88
858.474	45890.88
858.72	45613.88
858.966	45195.88
859.212	44841.88
859.458	44182.88
859.703	43929.88
859.949	43601.88
860.195	43158.88
860.44	43141.88
860.686	42802.88
860.931	42827.88
861.177	42560.88
861.422	42445.88
861.667	42306.88
861.913	42231.88
862.158	42557.88
862.403	42615.88
862.648	42616.88
862.893	42683.88
863.138	42572.88
863.384	42598.88
863.629	42474.88
863.873	42464.88
864.118	42256.88
864.363	42065.88
864.608	41983.88
864.853	41876.88
865.098	41531.88
865.342	41561.88
865.587	41331.88
865.832	41163.88
866.076	41071.88
866.321	40916.88
866.565	40834.88
866.81	40652.88
867.054	40486.88
867.298	40480.88
867.543	40403.88
867.787	40197.88
868.031	40163.88
868.275	40163.88
868.519	39802.88
868.764	39871.88
869.008	39771.88
869.252	39496.88
869.496	39441.88
869.739	39274.88
869.983	39319.88
870.227	39248.88
870.471	39345.88
870.715	39275.88
870.958	39472.88
871.202	39434.88
871.446	39622.88
871.689	39392.88
871.933	39538.88
872.176	39487.88
872.42	39412.88
872.663	39350.88
872.906	39059.88
873.15	38991.88
873.393	38959.88
873.636	38833.88
873.879	38500.88
874.122	38141.88
874.366	37678.88
874.609	37303.88
874.852	37060.88
875.095	36826.88
875.337	36769.88
875.58	36592.88
875.823	36388.88
876.066	36294.88
876.309	36305.88
876.551	36056.88
876.794	35889.88
877.037	35832.88
877.279	35721.88
877.522	35833.88
877.764	35837.88
878.007	35735.88
878.249	35663.88
878.491	35621.88
878.734	35615.88
878.976	35515.88
879.218	35315.88
879.46	35034.88
879.702	34860.88
879.945	34665.88
880.187	34326.88
880.429	34081.88
880.671	33994.88
880.912	33812.88
881.154	33672.88
881.396	33504.88
881.638	33592.88
881.88	33609.88
882.121	33472.88
882.363	33277.88
882.605	33393.88
882.846	33259.88
883.088	33092.88
883.329	33052.88
883.571	33093.88
883.812	33193.88
884.053	33501.88
884.295	33915.88
884.536	34165.88
884.777	33913.88
885.018	33784.88
885.259	33600.88
885.5	33486.88
885.742	33648.88
885.982	33439.88
886.223	33202.88
886.464	33024.88
886.705	32790.88
886.946	32589.88
887.187	32178.88
887.428	31952.88
887.668	31560.88
887.909	31155.88
888.15	30979.88
888.39	30653.88
888.631	30427.88
888.871	30102.88
889.111	30154.88
889.352	29947.88
889.592	29666.88
889.833	29387.88
890.073	29177.88
890.313	29157.88
890.553	28946.88
890.793	28756.88
891.033	28670.88
891.273	28543.88
891.513	28499.88
891.753	28372.88
891.993	28275.88
892.233	28322.88
892.473	28553.88
892.713	28418.88
892.952	28401.88
893.192	28369.88
893.432	28125.88
893.671	28278.88
893.911	28137.88
894.15	27811.88
894.39	27690.88
894.629	27630.88
894.869	27472.88
895.108	27351.88
895.347	27137.88
895.587	27049.88
895.826	27068.88
896.065	26942.88
896.304	26908.88
896.543	26814.88
896.782	26726.88
897.021	26497.88
897.26	26643.88
897.499	26481.88
897.738	26361.88
897.977	26131.88
898.216	26066.88
898.454	25858.88
898.693	25580.88
898.932	25645.88
899.17	25299.88
899.409	25405.88
899.647	25281.88
899.886	25321.88
900.124	25209.88
900.363	25107.88
900.601	25327.88
900.839	25263.88
901.078	25221.88
901.316	25246.88
901.554	25318.88
901.792	25332.88
902.03	25348.88
902.268	25332.88
902.506	25409.88
902.744	25093.88
902.982	24911.88
903.22	24642.88
903.458	24377.88
903.695	24066.88
903.933	23819.88
904.171	23513.88
904.409	23263.88
904.646	22911.88
904.884	22588.88
905.121	22477.88
905.359	22376.88
905.596	22009.88
905.833	21904.88
906.071	21777.88
906.308	21697.88
906.545	21559.88
906.783	21518.88
907.02	21458.88
907.257	21417.88
907.494	21361.88
907.731	21247.88
907.968	21127.88
908.205	21065.88
908.442	20915.88
908.679	20782.88
908.915	20687.88
909.152	20570.88
909.389	20285.88
909.626	20117.88
909.862	20017.88
910.099	20027.88
910.335	19932.88
910.572	19728.88
910.808	19704.88
911.045	19610.88
911.281	19584.88
911.518	19522.88
911.754	19501.88
911.99	19329.88
912.226	19086.88
912.463	18927.88
912.699	18739.88
912.935	18764.88
913.171	18528.88
913.407	18382.88
913.643	18222.88
913.879	18028.88
914.114	17885.88
914.35	17749.88
914.586	17584.88
914.822	17405.88
915.057	17337.88
915.293	17142.88
915.529	17153.88
915.764	17204.88
916	17122.88
916.235	17050.88
916.471	17022.88
916.706	16859.88
916.941	16877.88
917.177	16855.88
917.412	16799.88
917.647	16821.88
917.882	16817.88
918.117	16772.88
918.352	16648.88
918.588	16668.88
918.823	16447.88
919.057	16240.88
919.292	15991.88
919.527	16083.88
919.762	15708.88
919.997	15681.88
920.232	15467.88
920.466	15364.88
920.701	15203.88
920.935	15175.88
921.17	14965.88
921.405	14831.88
921.639	14923.88
921.873	14818.88
922.108	14791.88
922.342	14690.88
922.576	14683.88
922.811	14610.88
923.045	14567.88
923.279	14498.88
923.513	14353.88
923.747	14372.88
923.981	14259.88
924.215	14123.88
924.449	14021.88
924.683	13966.88
924.917	13906.88
925.151	13732.88
925.385	13740.88
925.618	13663.88
925.852	13690.88
926.086	13529.88
926.319	13590.88
926.553	13498.88
926.786	13555.88
927.02	13493.88
927.253	13566.88
927.486	13566.88
927.72	13489.88
927.953	13440.88
928.186	13409.88
928.42	13287.88
928.653	13199.88
928.886	13183.88
929.119	13082.88
929.352	12987.88
929.585	12952.88
929.818	12871.88
930.051	12784.88
930.284	12677.88
930.516	12536.88
930.749	12441.88
930.982	12453.88
931.215	12330.88
931.447	12180.88
931.68	12134.88
931.912	12242.88
932.145	12052.88
932.377	12132.88
932.61	12249.88
932.842	12046.88
933.074	12130.88
933.307	12062.88
933.539	12083.88
933.771	12065.88
934.003	12061.88
934.236	12068.88
934.468	12137.88
934.7	11954.88
934.932	11944.88
935.164	11880.88
935.395	11824.88
935.627	11902.88
935.859	11748.88
936.091	11672.88
936.323	11728.88
936.554	11645.88
936.786	11569.88
937.017	11430.88
937.249	11442.88
937.481	11390.88
937.712	11497.88
937.943	11325.88
938.175	11385.88
938.406	11302.88
938.637	11403.88
938.869	11249.88
939.1	11247.88
939.331	11267.88
939.562	11110.88
939.793	11137.88
940.024	11121.88
940.255	11008.88
940.486	11004.88
940.717	10897.88
940.948	10890.88
941.179	10780.88
941.409	10727.88
941.64	10707.88
941.871	10769.88
942.102	10765.88
942.332	10749.88
942.563	10697.88
942.793	10698.88
943.024	10665.88
943.254	10695.88
943.484	10673.88
943.715	10658.88
943.945	10650.88
944.175	10549.88
944.405	10524.88
944.636	10595.88
944.866	10570.88
945.096	10458.88
945.326	10402.88
945.556	10448.88
945.786	10401.88
946.016	10277.88
946.245	10131.88
946.475	10132.88
946.705	10097.88
946.935	10019.88
947.164	10033.88
947.394	9868.88
947.624	9914.88
947.853	9840.88
948.083	9853.88
948.312	9729.88
948.542	9658.88
948.771	9592.88
949	9585.88
949.23	9589.88
949.459	9569.88
949.688	9616.88
949.917	9503.88
950.146	9567.88
950.375	9585.88
950.604	9368.88
950.833	9522.88
951.062	9475.88
951.291	9433.88
951.52	9284.88
951.749	9364.88
951.978	9277.88
952.206	9275.88
952.435	9179.88
952.664	9219.88
952.892	9208.88
953.121	9072.88
953.349	9129.88
953.578	9062.88
953.806	9027.88
954.035	8898.88
954.263	8814.88
954.491	8816.88
954.719	8876.88
954.948	8804.88
955.176	8701.88
955.404	8620.88
955.632	8664.88
955.86	8651.88
956.088	8571.88
956.316	8563.88
956.544	8450.88
956.772	8365.88
956.999	8353.88
957.227	8364.88
957.455	8217.88
957.683	8275.88
957.91	8145.88
958.138	8076.88
958.365	8140.88
958.593	8037.88
958.82	8034.88
959.048	7987.88
959.275	7925.88
959.502	7936.88
959.73	7882.88
959.957	7903.88
960.184	7948.88
960.411	7842.88
960.638	7862.88
960.865	7809.88
961.092	7809.88
961.319	7675.88
961.546	7818.88
961.773	7764.88
962	7726.88
962.227	7775.88
962.454	7710.88
962.68	7661.88
962.907	7539.88
963.134	7537.88
963.36	7504.88
963.587	7460.88
963.813	7379.88
964.04	7428.88
964.266	7252.88
964.493	7286.88
964.719	7280.88
964.945	7267.88
965.171	7104.88
965.398	7113.88
965.624	7174.88
965.85	6989.88
966.076	7005.88
966.302	6988.88
966.528	6965.88
966.754	6948.88
966.98	6915.88
967.206	6806.88
967.431	6790.88
967.657	6893.88
967.883	6753.88
968.109	6768.88
968.334	6713.88
968.56	6657.88
968.785	6691.88
969.011	6595.88
969.236	6717.88
969.462	6609.88
969.687	6591.88
969.912	6629.88
970.138	6592.88
970.363	6483.88
970.588	6555.88
970.813	6477.88
971.038	6401.88
971.263	6433.88
971.488	6403.88
971.713	6399.88
971.938	6368.88
972.163	6297.88
972.388	6238.88
972.613	6226.88
972.838	6170.88
973.062	6148.88
973.287	6165.88
973.512	6046.88
973.736	6106.88
973.961	6047.88
974.185	6043.88
974.41	5967.88
974.634	5885.88
974.858	5836.88
975.083	5869.88
975.307	5863.88
975.531	5772.88
975.755	5722.88
975.98	5676.88
976.204	5606.88
976.428	5577.88
976.652	5603.88
976.876	5490.88
977.1	5557.88
977.324	5496.88
977.547	5547.88
977.771	5480.88
977.995	5453.88
978.219	5361.88
978.442	5445.88
978.666	5345.88
978.89	5347.88
979.113	5315.88
979.337	5348.88
979.56	5253.88
979.783	5354.88
980.007	5187.88
980.23	5268.88
980.453	5196.88
980.677	5222.88
980.9	5154.88
981.123	5089.88
981.346	5133.88
981.569	5105.88
981.792	5118.88
982.015	5025.88
982.238	4942.88
982.461	4955.88
982.684	4946.88
982.907	4902.88
983.129	4856.88
983.352	4869.88
983.575	4827.88
983.797	4789.88
984.02	4752.88
984.242	4691.88
984.465	4679.88
984.687	4697.88
984.91	4699.88
985.132	4601.88
985.354	4673.88
985.577	4634.88
985.799	4556.88
986.021	4506.88
986.243	4474.88
986.465	4477.88
986.687	4477.88
986.909	4522.88
987.131	4471.88
987.353	4452.88
987.575	4456.88
987.797	4375.88
988.019	4337.88
988.241	4352.88
988.462	4338.88
988.684	4348.88
988.906	4353.88
989.127	4389.88
989.349	4251.88
989.57	4256.88
989.792	4278.88
990.013	4251.88
990.234	4233.88
990.456	4235.88
990.677	4259.88
990.898	4199.88
991.119	4134.88
991.341	4141.88
991.562	4092.88
991.783	4097.88
992.004	4008.88
992.225	3982.88
992.446	4039.88
992.667	3914.88
992.887	3983.88
993.108	3833.88
993.329	3943.88
993.55	3894.88
993.77	3816.88
993.991	3785.88
994.212	3797.88
994.432	3762.88
994.653	3756.88
994.873	3773.88
995.093	3606.88
995.314	3674.88
995.534	3705.88
995.754	3744.88
995.975	3708.88
996.195	3567.88
996.415	3668.88
996.635	3590.88
996.855	3614.88
997.075	3563.88
997.295	3543.88
997.515	3535.88
997.735	3586.88
997.955	3519.88
998.174	3527.88
998.394	3502.88
998.614	3528.88
998.834	3476.88
999.053	3543.88
999.273	3485.88
999.492	3505.88
999.712	3408.88
999.931	3403.88
1000.151	3416.88
1000.37	3366.88
1000.589	3389.88
1000.809	3315.88
1001.028	3371.88
1001.247	3340.88
1001.466	3238.88
1001.685	3324.88
1001.904	3242.88
1002.123	3162.88
1002.342	3197.88
1002.561	3125.88
1002.78	3116.88
1002.999	3196.88
1003.218	3128.88
1003.436	3087.88
1003.655	3154.88
1003.874	3045.88
1004.092	3088.88
1004.311	3095.88
1004.53	3064.88
1004.748	3083.88
1004.966	2979.88
1005.185	3021.88
1005.403	3035.88
1005.622	2972.88
1005.84	3072.88
1006.058	2962.88
1006.276	2967.88
1006.494	3439.88
1006.712	2979.88
1006.931	2982.88
1007.149	2933.88
1007.367	2956.88
1007.584	2953.88
1007.802	2997.88
1008.02	2932.88
1008.238	3041.88
1008.456	3063.88
1008.673	2891.88
1008.891	3009.88
1009.109	2994.88
1009.326	3037.88
1009.544	3143.88
1009.761	3079.88
1009.979	3201.88
1010.196	3203.88
1010.413	3344.88
1010.631	3455.88
1010.848	3514.88
1011.065	3556.88
1011.282	3527.88
1011.5	3396.88
1011.717	3487.88
1011.934	3385.88
1012.151	3450.88
1012.368	3422.88
1012.585	3350.88
1012.801	3416.88
1013.018	3354.88
1013.235	3341.88
1013.452	3316.88
1013.669	3344.88
1013.885	3326.88
1014.102	3357.88
1014.318	3375.88
1014.535	3282.88
1014.751	3273.88
1014.968	3318.88
1015.184	3309.88
1015.401	3188.88
1015.617	3207.88
1015.833	3129.88
1016.049	3126.88
1016.266	3069.88
1016.482	3029.88
1016.698	2967.88
1016.914	3010.88
1017.13	2922.88
1017.346	2927.88
1017.562	2970.88
1017.778	2860.88
1017.993	2814.88
1018.209	2880.88
1018.425	2863.88
1018.641	2785.88
1018.856	2793.88
1019.072	2847.88
1019.288	2812.88
1019.503	2797.88
1019.719	2672.88
1019.934	2707.88
1020.149	2759.88
1020.365	2706.88
1020.58	2602.88
1020.795	2636.88
1021.011	2557.88
1021.226	2503.88
1021.441	2482.88
1021.656	2353.88
1021.871	2301.88
1022.086	2292.88
1022.301	2264.88
1022.516	2260.88
1022.731	2240.88
1022.946	2160.88
1023.16	2142.88
1023.375	2111.88
1023.59	2055.88
1023.804	1990.88
1024.019	2080.88
1024.234	1912.88
1024.448	1958.88
1024.663	1853.88
1024.877	1854.88
1025.092	1866.88
1025.306	1854.88
1025.52	1709.88
1025.734	1799.88
1025.949	1698.88
1026.163	1662.88
1026.377	1593.88
1026.591	1593.88
1026.805	1499.88
1027.019	1499.88
1027.233	1459.88
1027.447	1396.88
1027.661	1492.88
1027.875	1393.88
1028.088	1409.88
1028.302	1327.88
1028.516	1299.88
1028.73	1256.88
1028.943	1218.88
1029.157	1153.88
1029.37	1077.88
1029.584	-2.12
1029.797	-4.12
1030.011	-0.12
1030.224	-0.12
