Data from QEP037381__176__14-55-35-842.txt Node

Date: Fri Dec 16 14:55:35 EST 2022
User: dcclab
Spectrometer: QEP03738
Trigger mode: 4
Integration Time (sec): 1.000000E1
Scans to average: 1
Electric dark correction enabled: true
Nonlinearity correction enabled: false
Boxcar width: 0
XAxis mode: Wavelengths
Number of Pixels in Spectrum: 1044
>>>>>Begin Spectral Data<<<<<
784.041	11.62
784.3	-2.38
784.558	-5.38
784.817	-2.38
785.075	114765.62
785.334	19967.62
785.592	9354.62
785.851	6471.62
786.109	4887.62
786.368	3807.62
786.626	3030.62
786.884	2551.62
787.143	2135.62
787.401	1776.62
787.659	1623.62
787.917	1353.62
788.175	1243.62
788.433	1085.62
788.691	984.62
788.949	925.62
789.207	863.62
789.465	770.62
789.723	739.62
789.98	657.62
790.238	715.62
790.496	668.62
790.753	626.62
791.011	682.62
791.268	620.62
791.526	597.62
791.783	605.62
792.041	580.62
792.298	503.62
792.556	577.62
792.813	542.62
793.07	529.62
793.327	516.62
793.584	600.62
793.841	530.62
794.099	545.62
794.356	602.62
794.613	516.62
794.869	532.62
795.126	494.62
795.383	480.62
795.64	502.62
795.897	461.62
796.153	520.62
796.41	511.62
796.667	506.62
796.923	503.62
797.18	521.62
797.436	536.62
797.693	511.62
797.949	570.62
798.206	586.62
798.462	524.62
798.718	559.62
798.974	565.62
799.231	598.62
799.487	595.62
799.743	623.62
799.999	686.62
800.255	652.62
800.511	652.62
800.767	723.62
801.023	739.62
801.279	803.62
801.534	892.62
801.79	952.62
802.046	1057.62
802.302	1309.62
802.557	1554.62
802.813	2026.62
803.068	2702.62
803.324	3773.62
803.579	5286.62
803.835	7513.62
804.09	10351.62
804.345	13715.62
804.601	17284.62
804.856	21015.62
805.111	24385.62
805.366	26847.62
805.621	28840.62
805.876	30216.62
806.131	31090.62
806.386	31737.62
806.641	32287.62
806.896	32913.62
807.151	33432.62
807.406	33965.62
807.661	34726.62
807.915	35203.62
808.17	35864.62
808.425	36162.62
808.679	36408.62
808.934	36922.62
809.188	37203.62
809.443	37776.62
809.697	37973.62
809.951	38340.62
810.206	38642.62
810.46	39099.62
810.714	39434.62
810.968	39730.62
811.223	40047.62
811.477	40228.62
811.731	40758.62
811.985	40983.62
812.239	41276.62
812.493	41407.62
812.747	41622.62
813	41604.62
813.254	41807.62
813.508	42098.62
813.762	42293.62
814.015	42394.62
814.269	42820.62
814.522	43242.62
814.776	43579.62
815.03	44183.62
815.283	44827.62
815.536	45614.62
815.79	46070.62
816.043	46897.62
816.296	47497.62
816.55	48068.62
816.803	48569.62
817.056	49126.62
817.309	49533.62
817.562	49936.62
817.815	50566.62
818.068	50851.62
818.321	51533.62
818.574	52207.62
818.827	52771.62
819.079	53321.62
819.332	54122.62
819.585	54862.62
819.838	55326.62
820.09	55890.62
820.343	56402.62
820.595	56551.62
820.848	56961.62
821.1	57149.62
821.353	57349.62
821.605	57176.62
821.857	57283.62
822.11	56997.62
822.362	56801.62
822.614	56778.62
822.866	56764.62
823.118	56806.62
823.37	56854.62
823.622	57164.62
823.874	57134.62
824.126	57354.62
824.378	57416.62
824.63	57513.62
824.882	57817.62
825.134	57799.62
825.385	57817.62
825.637	57811.62
825.888	57601.62
826.14	57498.62
826.392	57181.62
826.643	57011.62
826.895	56737.62
827.146	56691.62
827.397	56629.62
827.649	56608.62
827.9	56426.62
828.151	56713.62
828.402	56831.62
828.653	57032.62
828.905	57022.62
829.156	57168.62
829.407	56951.62
829.658	57098.62
829.909	57082.62
830.159	57008.62
830.41	56854.62
830.661	56441.62
830.912	56033.62
831.162	55690.62
831.413	55672.62
831.664	55720.62
831.914	55686.62
832.165	55638.62
832.415	55625.62
832.666	55614.62
832.916	55865.62
833.167	55643.62
833.417	55718.62
833.667	55566.62
833.917	55233.62
834.168	55055.62
834.418	54934.62
834.668	54649.62
834.918	54470.62
835.168	54266.62
835.418	53972.62
835.668	53994.62
835.918	53830.62
836.167	53942.62
836.417	53653.62
836.667	53656.62
836.917	53620.62
837.166	53354.62
837.416	53529.62
837.666	53509.62
837.915	53452.62
838.165	53222.62
838.414	53120.62
838.663	52995.62
838.913	52903.62
839.162	52755.62
839.411	52485.62
839.661	52400.62
839.91	52197.62
840.159	52206.62
840.408	52092.62
840.657	52233.62
840.906	52156.62
841.155	52098.62
841.404	51985.62
841.653	52106.62
841.902	52313.62
842.15	52195.62
842.399	52314.62
842.648	52092.62
842.897	51842.62
843.145	51868.62
843.394	51437.62
843.642	51139.62
843.891	50914.62
844.139	50672.62
844.388	50413.62
844.636	50042.62
844.884	50183.62
845.133	50053.62
845.381	50186.62
845.629	50070.62
845.877	49998.62
846.125	49767.62
846.373	49695.62
846.621	49533.62
846.869	49326.62
847.117	49107.62
847.365	48985.62
847.613	48606.62
847.861	48554.62
848.108	48439.62
848.356	48398.62
848.604	48263.62
848.851	48165.62
849.099	48172.62
849.346	48444.62
849.594	48590.62
849.841	48788.62
850.089	48726.62
850.336	48818.62
850.583	48928.62
850.831	48592.62
851.078	48234.62
851.325	48257.62
851.572	48099.62
851.819	47620.62
852.066	47076.62
852.313	46461.62
852.56	46438.62
852.807	45917.62
853.054	45824.62
853.301	45692.62
853.548	45774.62
853.794	45938.62
854.041	45997.62
854.288	46288.62
854.534	46690.62
854.781	46548.62
855.028	46362.62
855.274	46342.62
855.52	46080.62
855.767	45714.62
856.013	45691.62
856.26	45787.62
856.506	45427.62
856.752	45219.62
856.998	45322.62
857.244	45491.62
857.49	45596.62
857.736	45544.62
857.982	45438.62
858.228	45550.62
858.474	45238.62
858.72	45045.62
858.966	44483.62
859.212	44071.62
859.458	43639.62
859.703	43390.62
859.949	42807.62
860.195	42628.62
860.44	42392.62
860.686	42431.62
860.931	42043.62
861.177	42000.62
861.422	41971.62
861.667	41676.62
861.913	41837.62
862.158	41905.62
862.403	41920.62
862.648	41926.62
862.893	41975.62
863.138	41900.62
863.384	41847.62
863.629	41764.62
863.873	41668.62
864.118	41577.62
864.363	41410.62
864.608	41265.62
864.853	41174.62
865.098	40938.62
865.342	40757.62
865.587	40661.62
865.832	40516.62
866.076	40341.62
866.321	40285.62
866.565	40359.62
866.81	40069.62
867.054	40078.62
867.298	39911.62
867.543	39730.62
867.787	39547.62
868.031	39523.62
868.275	39314.62
868.519	39372.62
868.764	39347.62
869.008	39127.62
869.252	39106.62
869.496	38867.62
869.739	38739.62
869.983	38684.62
870.227	38590.62
870.471	38753.62
870.715	38767.62
870.958	38791.62
871.202	38895.62
871.446	38896.62
871.689	38978.62
871.933	38917.62
872.176	38936.62
872.42	38712.62
872.663	38663.62
872.906	38702.62
873.15	38355.62
873.393	38344.62
873.636	38079.62
873.879	37752.62
874.122	37413.62
874.366	37019.62
874.609	36677.62
874.852	36466.62
875.095	36336.62
875.337	36135.62
875.58	35873.62
875.823	35921.62
876.066	35821.62
876.309	35659.62
876.551	35362.62
876.794	35201.62
877.037	35242.62
877.279	35061.62
877.522	35148.62
877.764	35200.62
878.007	35197.62
878.249	35006.62
878.491	34959.62
878.734	35052.62
878.976	34869.62
879.218	34697.62
879.46	34632.62
879.702	34346.62
879.945	34130.62
880.187	33794.62
880.429	33491.62
880.671	33387.62
880.912	33271.62
881.154	33225.62
881.396	33119.62
881.638	33185.62
881.88	33137.62
882.121	32773.62
882.363	33030.62
882.605	32841.62
882.846	32671.62
883.088	32686.62
883.329	32592.62
883.571	32544.62
883.812	32659.62
884.053	32896.62
884.295	33389.62
884.536	33535.62
884.777	33328.62
885.018	33154.62
885.259	32990.62
885.5	32823.62
885.742	33170.62
885.982	32663.62
886.223	32603.62
886.464	32483.62
886.705	32246.62
886.946	32035.62
887.187	31695.62
887.428	31426.62
887.668	31059.62
887.909	30661.62
888.15	30362.62
888.39	30285.62
888.631	30047.62
888.871	29789.62
889.111	29488.62
889.352	29535.62
889.592	29205.62
889.833	29090.62
890.073	28878.62
890.313	28665.62
890.553	28384.62
890.793	28312.62
891.033	28179.62
891.273	28185.62
891.513	27985.62
891.753	27847.62
891.993	27869.62
892.233	27907.62
892.473	27975.62
892.713	28054.62
892.952	28039.62
893.192	28084.62
893.432	27918.62
893.671	27905.62
893.911	27732.62
894.15	27617.62
894.39	27362.62
894.629	27075.62
894.869	27061.62
895.108	26907.62
895.347	26849.62
895.587	26762.62
895.826	26637.62
896.065	26606.62
896.304	26599.62
896.543	26576.62
896.782	26376.62
897.021	26331.62
897.26	26234.62
897.499	26230.62
897.738	26143.62
897.977	25887.62
898.216	25638.62
898.454	25372.62
898.693	25336.62
898.932	25333.62
899.17	25064.62
899.409	25099.62
899.647	24894.62
899.886	24966.62
900.124	24900.62
900.363	24817.62
900.601	24933.62
900.839	24878.62
901.078	24912.62
901.316	25002.62
901.554	25069.62
901.792	25065.62
902.03	24918.62
902.268	24882.62
902.506	24858.62
902.744	24676.62
902.982	24702.62
903.22	24367.62
903.458	24127.62
903.695	23823.62
903.933	23462.62
904.171	23224.62
904.409	23017.62
904.646	22707.62
904.884	22338.62
905.121	22175.62
905.359	22021.62
905.596	21748.62
905.833	21573.62
906.071	21477.62
906.308	21523.62
906.545	21357.62
906.783	21204.62
907.02	21201.62
907.257	21160.62
907.494	21141.62
907.731	21135.62
907.968	20937.62
908.205	20765.62
908.442	20607.62
908.679	20522.62
908.915	20402.62
909.152	20189.62
909.389	20036.62
909.626	19907.62
909.862	19809.62
910.099	19692.62
910.335	19640.62
910.572	19466.62
910.808	19521.62
911.045	19399.62
911.281	19311.62
911.518	19320.62
911.754	19156.62
911.99	19050.62
912.226	18882.62
912.463	18695.62
912.699	18520.62
912.935	18418.62
913.171	18411.62
913.407	18118.62
913.643	18056.62
913.879	17888.62
914.114	17685.62
914.35	17526.62
914.586	17400.62
914.822	17219.62
915.057	17249.62
915.293	16986.62
915.529	16939.62
915.764	16842.62
916	16877.62
916.235	16768.62
916.471	16779.62
916.706	16647.62
916.941	16629.62
917.177	16547.62
917.412	16594.62
917.647	16652.62
917.882	16516.62
918.117	16466.62
918.352	16444.62
918.588	16465.62
918.823	16213.62
919.057	16070.62
919.292	15846.62
919.527	15840.62
919.762	15582.62
919.997	15502.62
920.232	15353.62
920.466	15190.62
920.701	14965.62
920.935	14993.62
921.17	14877.62
921.405	14707.62
921.639	14722.62
921.873	14689.62
922.108	14593.62
922.342	14636.62
922.576	14489.62
922.811	14399.62
923.045	14450.62
923.279	14310.62
923.513	14180.62
923.747	14183.62
923.981	14079.62
924.215	13959.62
924.449	13839.62
924.683	13740.62
924.917	13643.62
925.151	13585.62
925.385	13655.62
925.618	13602.62
925.852	13486.62
926.086	13420.62
926.319	13449.62
926.553	13415.62
926.786	13449.62
927.02	13332.62
927.253	13347.62
927.486	13353.62
927.72	13173.62
927.953	13315.62
928.186	13170.62
928.42	13151.62
928.653	13085.62
928.886	12932.62
929.119	12965.62
929.352	12833.62
929.585	12731.62
929.818	12689.62
930.051	12558.62
930.284	12577.62
930.516	12319.62
930.749	12187.62
930.982	12298.62
931.215	12167.62
931.447	12086.62
931.68	12013.62
931.912	12036.62
932.145	12030.62
932.377	11987.62
932.61	12119.62
932.842	11918.62
933.074	12030.62
933.307	11924.62
933.539	11999.62
933.771	11933.62
934.003	11900.62
934.236	12005.62
934.468	11907.62
934.7	11774.62
934.932	11766.62
935.164	11753.62
935.395	11696.62
935.627	11628.62
935.859	11731.62
936.091	11523.62
936.323	11599.62
936.554	11602.62
936.786	11452.62
937.017	11331.62
937.249	11356.62
937.481	11239.62
937.712	11295.62
937.943	11240.62
938.175	11150.62
938.406	11172.62
938.637	11266.62
938.869	11047.62
939.1	11132.62
939.331	11071.62
939.562	11095.62
939.793	10972.62
940.024	10906.62
940.255	10918.62
940.486	10861.62
940.717	10757.62
940.948	10734.62
941.179	10665.62
941.409	10636.62
941.64	10564.62
941.871	10640.62
942.102	10532.62
942.332	10583.62
942.563	10513.62
942.793	10614.62
943.024	10506.62
943.254	10603.62
943.484	10597.62
943.715	10542.62
943.945	10465.62
944.175	10368.62
944.405	10436.62
944.636	10443.62
944.866	10402.62
945.096	10433.62
945.326	10285.62
945.556	10281.62
945.786	10238.62
946.016	10141.62
946.245	10109.62
946.475	10031.62
946.705	9965.62
946.935	9896.62
947.164	9828.62
947.394	9775.62
947.624	9723.62
947.853	9708.62
948.083	9672.62
948.312	9625.62
948.542	9533.62
948.771	9456.62
949	9458.62
949.23	9420.62
949.459	9435.62
949.688	9517.62
949.917	9396.62
950.146	9369.62
950.375	9507.62
950.604	9257.62
950.833	9358.62
951.062	9316.62
951.291	9231.62
951.52	9252.62
951.749	9220.62
951.978	9141.62
952.206	9021.62
952.435	9137.62
952.664	9057.62
952.892	9017.62
953.121	8966.62
953.349	8964.62
953.578	8921.62
953.806	8901.62
954.035	8775.62
954.263	8783.62
954.491	8707.62
954.719	8742.62
954.948	8658.62
955.176	8552.62
955.404	8462.62
955.632	8558.62
955.86	8453.62
956.088	8425.62
956.316	8442.62
956.544	8398.62
956.772	8302.62
956.999	8272.62
957.227	8285.62
957.455	8091.62
957.683	8122.62
957.91	8058.62
958.138	7978.62
958.365	7993.62
958.593	7888.62
958.82	7812.62
959.048	7946.62
959.275	7912.62
959.502	7847.62
959.73	7820.62
959.957	7799.62
960.184	7809.62
960.411	7708.62
960.638	7811.62
960.865	7696.62
961.092	7763.62
961.319	7577.62
961.546	7699.62
961.773	7628.62
962	7621.62
962.227	7669.62
962.454	7631.62
962.68	7566.62
962.907	7507.62
963.134	7400.62
963.36	7394.62
963.587	7366.62
963.813	7278.62
964.04	7307.62
964.266	7145.62
964.493	7262.62
964.719	7129.62
964.945	7160.62
965.171	7019.62
965.398	7000.62
965.624	7016.62
965.85	6924.62
966.076	6914.62
966.302	6894.62
966.528	6888.62
966.754	6864.62
966.98	6751.62
967.206	6761.62
967.431	6673.62
967.657	6733.62
967.883	6746.62
968.109	6695.62
968.334	6668.62
968.56	6569.62
968.785	6551.62
969.011	6533.62
969.236	6608.62
969.462	6420.62
969.687	6516.62
969.912	6532.62
970.138	6513.62
970.363	6420.62
970.588	6431.62
970.813	6356.62
971.038	6307.62
971.263	6333.62
971.488	6283.62
971.713	6287.62
971.938	6288.62
972.163	6163.62
972.388	6154.62
972.613	6063.62
972.838	6075.62
973.062	6052.62
973.287	6050.62
973.512	5976.62
973.736	5949.62
973.961	5922.62
974.185	5914.62
974.41	5861.62
974.634	5787.62
974.858	5750.62
975.083	5791.62
975.307	5758.62
975.531	5689.62
975.755	5619.62
975.98	5551.62
976.204	5476.62
976.428	5528.62
976.652	5510.62
976.876	5433.62
977.1	5459.62
977.324	5383.62
977.547	5429.62
977.771	5415.62
977.995	5341.62
978.219	5263.62
978.442	5403.62
978.666	5297.62
978.89	5307.62
979.113	5268.62
979.337	5268.62
979.56	5232.62
979.783	5293.62
980.007	5177.62
980.23	5163.62
980.453	5096.62
980.677	5180.62
980.9	5087.62
981.123	4972.62
981.346	5062.62
981.569	5005.62
981.792	5015.62
982.015	4922.62
982.238	4863.62
982.461	4874.62
982.684	4834.62
982.907	4772.62
983.129	4748.62
983.352	4745.62
983.575	4707.62
983.797	4704.62
984.02	4679.62
984.242	4626.62
984.465	4635.62
984.687	4651.62
984.91	4647.62
985.132	4581.62
985.354	4636.62
985.577	4507.62
985.799	4537.62
986.021	4395.62
986.243	4404.62
986.465	4446.62
986.687	4452.62
986.909	4457.62
987.131	4384.62
987.353	4326.62
987.575	4370.62
987.797	4293.62
988.019	4250.62
988.241	4296.62
988.462	4265.62
988.684	4304.62
988.906	4231.62
989.127	4320.62
989.349	4208.62
989.57	4182.62
989.792	4172.62
990.013	4172.62
990.234	4180.62
990.456	4206.62
990.677	4131.62
990.898	4081.62
991.119	4055.62
991.341	4080.62
991.562	3989.62
991.783	3981.62
992.004	3946.62
992.225	3902.62
992.446	3959.62
992.667	3825.62
992.887	3906.62
993.108	3778.62
993.329	3908.62
993.55	3810.62
993.77	3687.62
993.991	3710.62
994.212	3758.62
994.432	3718.62
994.653	3687.62
994.873	3703.62
995.093	3566.62
995.314	3603.62
995.534	3654.62
995.754	3632.62
995.975	3650.62
996.195	3523.62
996.415	3589.62
996.635	3463.62
996.855	3497.62
997.075	3514.62
997.295	3494.62
997.515	3509.62
997.735	3531.62
997.955	3460.62
998.174	3444.62
998.394	3409.62
998.614	3477.62
998.834	3391.62
999.053	3443.62
999.273	3408.62
999.492	3469.62
999.712	3406.62
999.931	3343.62
1000.151	3327.62
1000.37	3303.62
1000.589	3332.62
1000.809	3226.62
1001.028	3326.62
1001.247	3269.62
1001.466	3101.62
1001.685	3246.62
1001.904	3212.62
1002.123	3158.62
1002.342	3146.62
1002.561	3051.62
1002.78	3108.62
1002.999	3132.62
1003.218	3080.62
1003.436	2993.62
1003.655	3054.62
1003.874	3017.62
1004.092	3016.62
1004.311	3054.62
1004.53	2982.62
1004.748	3043.62
1004.966	2950.62
1005.185	2987.62
1005.403	2963.62
1005.622	2911.62
1005.84	3016.62
1006.058	2912.62
1006.276	2923.62
1006.494	3385.62
1006.712	2919.62
1006.931	2977.62
1007.149	2887.62
1007.367	2875.62
1007.584	2911.62
1007.802	2962.62
1008.02	2891.62
1008.238	2987.62
1008.456	2971.62
1008.673	2836.62
1008.891	2955.62
1009.109	2894.62
1009.326	2950.62
1009.544	3062.62
1009.761	2971.62
1009.979	3098.62
1010.196	3159.62
1010.413	3292.62
1010.631	3392.62
1010.848	3411.62
1011.065	3458.62
1011.282	3383.62
1011.5	3315.62
1011.717	3424.62
1011.934	3326.62
1012.151	3316.62
1012.368	3356.62
1012.585	3285.62
1012.801	3327.62
1013.018	3267.62
1013.235	3230.62
1013.452	3251.62
1013.669	3263.62
1013.885	3243.62
1014.102	3269.62
1014.318	3273.62
1014.535	3219.62
1014.751	3184.62
1014.968	3144.62
1015.184	3222.62
1015.401	3082.62
1015.617	3122.62
1015.833	3022.62
1016.049	3035.62
1016.266	2960.62
1016.482	2998.62
1016.698	2892.62
1016.914	2882.62
1017.13	2841.62
1017.346	2850.62
1017.562	2862.62
1017.778	2812.62
1017.993	2766.62
1018.209	2800.62
1018.425	2806.62
1018.641	2750.62
1018.856	2731.62
1019.072	2767.62
1019.288	2776.62
1019.503	2739.62
1019.719	2639.62
1019.934	2649.62
1020.149	2725.62
1020.365	2626.62
1020.58	2544.62
1020.795	2597.62
1021.011	2487.62
1021.226	2435.62
1021.441	2482.62
1021.656	2322.62
1021.871	2261.62
1022.086	2231.62
1022.301	2183.62
1022.516	2207.62
1022.731	2207.62
1022.946	2121.62
1023.16	2109.62
1023.375	2027.62
1023.59	2001.62
1023.804	1992.62
1024.019	2064.62
1024.234	1879.62
1024.448	1931.62
1024.663	1849.62
1024.877	1846.62
1025.092	1826.62
1025.306	1802.62
1025.52	1699.62
1025.734	1762.62
1025.949	1679.62
1026.163	1641.62
1026.377	1530.62
1026.591	1614.62
1026.805	1478.62
1027.019	1476.62
1027.233	1424.62
1027.447	1386.62
1027.661	1475.62
1027.875	1379.62
1028.088	1368.62
1028.302	1277.62
1028.516	1262.62
1028.73	1245.62
1028.943	1209.62
1029.157	1123.62
1029.37	1060.62
1029.584	-1.38
1029.797	-2.38
1030.011	1.62
1030.224	0.62
