Data from QEP037381__145__14-50-25-837.txt Node

Date: Fri Dec 16 14:50:25 EST 2022
User: dcclab
Spectrometer: QEP03738
Trigger mode: 4
Integration Time (sec): 1.000000E1
Scans to average: 1
Electric dark correction enabled: true
Nonlinearity correction enabled: false
Boxcar width: 0
XAxis mode: Wavelengths
Number of Pixels in Spectrum: 1044
>>>>>Begin Spectral Data<<<<<
784.041	12.25
784.3	1.25
784.558	-0.75
784.817	-0.75
785.075	115294.25
785.334	19729.25
785.592	9157.25
785.851	6363.25
786.109	4765.25
786.368	3705.25
786.626	3011.25
786.884	2466.25
787.143	2080.25
787.401	1747.25
787.659	1539.25
787.917	1353.25
788.175	1267.25
788.433	1092.25
788.691	1009.25
788.949	903.25
789.207	886.25
789.465	773.25
789.723	743.25
789.98	707.25
790.238	731.25
790.496	684.25
790.753	662.25
791.011	706.25
791.268	637.25
791.526	631.25
791.783	644.25
792.041	621.25
792.298	544.25
792.556	600.25
792.813	580.25
793.07	567.25
793.327	542.25
793.584	638.25
793.841	544.25
794.099	582.25
794.356	644.25
794.613	548.25
794.869	576.25
795.126	541.25
795.383	529.25
795.64	552.25
795.897	505.25
796.153	558.25
796.41	557.25
796.667	555.25
796.923	563.25
797.18	559.25
797.436	602.25
797.693	570.25
797.949	626.25
798.206	658.25
798.462	576.25
798.718	658.25
798.974	631.25
799.231	693.25
799.487	695.25
799.743	723.25
799.999	762.25
800.255	780.25
800.511	799.25
800.767	882.25
801.023	885.25
801.279	958.25
801.534	1055.25
801.79	1194.25
802.046	1364.25
802.302	1694.25
802.557	2057.25
802.813	2686.25
803.068	3652.25
803.324	5113.25
803.579	7275.25
803.835	10319.25
804.09	14235.25
804.345	18912.25
804.601	23971.25
804.856	29273.25
805.111	33895.25
805.366	37570.25
805.621	40481.25
805.876	42143.25
806.131	43518.25
806.386	44541.25
806.641	45451.25
806.896	46141.25
807.151	47110.25
807.406	47867.25
807.661	48794.25
807.915	49607.25
808.17	50452.25
808.425	51009.25
808.679	51404.25
808.934	52047.25
809.188	52684.25
809.443	52988.25
809.697	53786.25
809.951	54239.25
810.206	54659.25
810.46	55145.25
810.714	55711.25
810.968	56270.25
811.223	56629.25
811.477	57095.25
811.731	57703.25
811.985	58023.25
812.239	58251.25
812.493	58668.25
812.747	59016.25
813	59085.25
813.254	59315.25
813.508	59783.25
813.762	60145.25
814.015	60225.25
814.269	60631.25
814.522	61364.25
814.776	62107.25
815.03	62861.25
815.283	63855.25
815.536	65026.25
815.79	65688.25
816.043	66780.25
816.296	67612.25
816.55	68574.25
816.803	69301.25
817.056	70123.25
817.309	70783.25
817.562	71614.25
817.815	72029.25
818.068	72941.25
818.321	73574.25
818.574	74603.25
818.827	75570.25
819.079	76320.25
819.332	77618.25
819.585	78425.25
819.838	79146.25
820.09	80091.25
820.343	80622.25
820.595	81142.25
820.848	81804.25
821.1	81996.25
821.353	82010.25
821.605	82192.25
821.857	82168.25
822.11	81762.25
822.362	81744.25
822.614	81689.25
822.866	81560.25
823.118	81500.25
823.37	81643.25
823.622	82003.25
823.874	82189.25
824.126	82509.25
824.378	82833.25
824.63	82975.25
824.882	83142.25
825.134	83028.25
825.385	83083.25
825.637	82937.25
825.888	82903.25
826.14	82762.25
826.392	82370.25
826.643	81957.25
826.895	81837.25
827.146	81448.25
827.397	81365.25
827.649	81526.25
827.9	81505.25
828.151	81676.25
828.402	82003.25
828.653	81996.25
828.905	82093.25
829.156	82528.25
829.407	82043.25
829.658	82067.25
829.909	82161.25
830.159	81830.25
830.41	81630.25
830.661	81085.25
830.912	80737.25
831.162	80517.25
831.413	80162.25
831.664	80323.25
831.914	80162.25
832.165	80199.25
832.415	80286.25
832.666	80245.25
832.916	80327.25
833.167	80080.25
833.417	79969.25
833.667	79730.25
833.917	79678.25
834.168	79371.25
834.418	79122.25
834.668	78817.25
834.918	78394.25
835.168	78232.25
835.418	78034.25
835.668	77841.25
835.918	77809.25
836.167	77551.25
836.417	77632.25
836.667	77447.25
836.917	77244.25
837.166	77093.25
837.416	77178.25
837.666	76843.25
837.915	76927.25
838.165	76457.25
838.414	76545.25
838.663	76265.25
838.913	76222.25
839.162	75969.25
839.411	75689.25
839.661	75369.25
839.91	75201.25
840.159	75098.25
840.408	74930.25
840.657	74871.25
840.906	74935.25
841.155	74931.25
841.404	74953.25
841.653	75119.25
841.902	75165.25
842.15	75233.25
842.399	75026.25
842.648	74866.25
842.897	74531.25
843.145	74200.25
843.394	73993.25
843.642	73375.25
843.891	73092.25
844.139	72878.25
844.388	72465.25
844.636	72375.25
844.884	72100.25
845.133	71927.25
845.381	71886.25
845.629	71792.25
845.877	71910.25
846.125	71867.25
846.373	71589.25
846.621	71328.25
846.869	71027.25
847.117	70647.25
847.365	70519.25
847.613	69927.25
847.861	69827.25
848.108	69843.25
848.356	69622.25
848.604	69492.25
848.851	69587.25
849.099	69436.25
849.346	69650.25
849.594	69758.25
849.841	70118.25
850.089	70327.25
850.336	70357.25
850.583	70143.25
850.831	69989.25
851.078	69342.25
851.325	69167.25
851.572	68918.25
851.819	68262.25
852.066	67451.25
852.313	66848.25
852.56	66509.25
852.807	66075.25
853.054	65823.25
853.301	65731.25
853.548	65736.25
853.794	65995.25
854.041	66154.25
854.288	66325.25
854.534	66787.25
854.781	66772.25
855.028	66266.25
855.274	66099.25
855.52	65898.25
855.767	65248.25
856.013	65309.25
856.26	65389.25
856.506	64855.25
856.752	64741.25
856.998	64845.25
857.244	64923.25
857.49	65089.25
857.736	65268.25
857.982	65466.25
858.228	64870.25
858.474	64685.25
858.72	64165.25
858.966	63847.25
859.212	63271.25
859.458	62630.25
859.703	62044.25
859.949	61437.25
860.195	61104.25
860.44	60517.25
860.686	60327.25
860.931	60199.25
861.177	60044.25
861.422	59967.25
861.667	59738.25
861.913	59756.25
862.158	59943.25
862.403	60092.25
862.648	60042.25
862.893	60016.25
863.138	60220.25
863.384	59944.25
863.629	59796.25
863.873	59754.25
864.118	59598.25
864.363	59263.25
864.608	59153.25
864.853	58818.25
865.098	58665.25
865.342	58442.25
865.587	58023.25
865.832	57967.25
866.076	57819.25
866.321	57823.25
866.565	57577.25
866.81	57502.25
867.054	57077.25
867.298	57018.25
867.543	56673.25
867.787	56491.25
868.031	56339.25
868.275	56171.25
868.519	56033.25
868.764	55984.25
869.008	55565.25
869.252	55594.25
869.496	55324.25
869.739	55131.25
869.983	55151.25
870.227	54836.25
870.471	54868.25
870.715	54924.25
870.958	55017.25
871.202	55088.25
871.446	55167.25
871.689	55214.25
871.933	55132.25
872.176	54973.25
872.42	55007.25
872.663	54763.25
872.906	54544.25
873.15	54166.25
873.393	54065.25
873.636	53771.25
873.879	53300.25
874.122	52754.25
874.366	52230.25
874.609	51892.25
874.852	51526.25
875.095	51273.25
875.337	51112.25
875.58	50865.25
875.823	50786.25
876.066	50710.25
876.309	50333.25
876.551	50139.25
876.794	49955.25
877.037	49882.25
877.279	49755.25
877.522	49781.25
877.764	50028.25
878.007	49870.25
878.249	49707.25
878.491	49689.25
878.734	49656.25
878.976	49445.25
879.218	49209.25
879.46	48928.25
879.702	48497.25
879.945	48267.25
880.187	47818.25
880.429	47620.25
880.671	47392.25
880.912	47095.25
881.154	47005.25
881.396	46941.25
881.638	46818.25
881.88	46803.25
882.121	46777.25
882.363	46628.25
882.605	46284.25
882.846	46077.25
883.088	46093.25
883.329	45830.25
883.571	45645.25
883.812	45638.25
884.053	45881.25
884.295	46243.25
884.536	46311.25
884.777	46013.25
885.018	45897.25
885.259	45715.25
885.5	45460.25
885.742	45911.25
885.982	45616.25
886.223	45315.25
886.464	45238.25
886.705	44880.25
886.946	44809.25
887.187	44284.25
887.428	44260.25
887.668	43552.25
887.909	43280.25
888.15	42883.25
888.39	42642.25
888.631	42318.25
888.871	42036.25
889.111	41817.25
889.352	41537.25
889.592	41092.25
889.833	40891.25
890.073	40679.25
890.313	40439.25
890.553	40188.25
890.793	39936.25
891.033	39897.25
891.273	39590.25
891.513	39399.25
891.753	39347.25
891.993	39204.25
892.233	39336.25
892.473	39503.25
892.713	39524.25
892.952	39296.25
893.192	39344.25
893.432	39300.25
893.671	39079.25
893.911	38919.25
894.15	38582.25
894.39	38471.25
894.629	38239.25
894.869	37985.25
895.108	37695.25
895.347	37486.25
895.587	37435.25
895.826	37227.25
896.065	37145.25
896.304	37068.25
896.543	37202.25
896.782	36701.25
897.021	36740.25
897.26	36712.25
897.499	36504.25
897.738	36364.25
897.977	36160.25
898.216	35849.25
898.454	35557.25
898.693	35236.25
898.932	35081.25
899.17	34982.25
899.409	34809.25
899.647	34668.25
899.886	34553.25
900.124	34719.25
900.363	34562.25
900.601	34470.25
900.839	34564.25
901.078	34555.25
901.316	34490.25
901.554	34618.25
901.792	34487.25
902.03	34491.25
902.268	34297.25
902.506	34247.25
902.744	33990.25
902.982	33939.25
903.22	33587.25
903.458	33270.25
903.695	32965.25
903.933	32546.25
904.171	32119.25
904.409	31708.25
904.646	31458.25
904.884	31022.25
905.121	30809.25
905.359	30522.25
905.596	30215.25
905.833	29904.25
906.071	29822.25
906.308	29701.25
906.545	29704.25
906.783	29482.25
907.02	29426.25
907.257	29326.25
907.494	29369.25
907.731	29226.25
907.968	28970.25
908.205	28752.25
908.442	28754.25
908.679	28523.25
908.915	28186.25
909.152	28078.25
909.389	27742.25
909.626	27668.25
909.862	27592.25
910.099	27234.25
910.335	27299.25
910.572	27165.25
910.808	27010.25
911.045	26936.25
911.281	26834.25
911.518	26744.25
911.754	26400.25
911.99	26414.25
912.226	26231.25
912.463	26057.25
912.699	25748.25
912.935	25592.25
913.171	25475.25
913.407	25194.25
913.643	25106.25
913.879	24793.25
914.114	24663.25
914.35	24256.25
914.586	24150.25
914.822	23824.25
915.057	23768.25
915.293	23522.25
915.529	23338.25
915.764	23358.25
916	23312.25
916.235	23218.25
916.471	23168.25
916.706	23087.25
916.941	22916.25
917.177	22979.25
917.412	23011.25
917.647	22910.25
917.882	22911.25
918.117	22786.25
918.352	22770.25
918.588	22614.25
918.823	22365.25
919.057	22234.25
919.292	21927.25
919.527	21854.25
919.762	21468.25
919.997	21314.25
920.232	21019.25
920.466	21018.25
920.701	20580.25
920.935	20547.25
921.17	20362.25
921.405	20348.25
921.639	20274.25
921.873	20169.25
922.108	20056.25
922.342	19982.25
922.576	19921.25
922.811	19828.25
923.045	19729.25
923.279	19642.25
923.513	19454.25
923.747	19417.25
923.981	19222.25
924.215	19085.25
924.449	19001.25
924.683	18894.25
924.917	18734.25
925.151	18721.25
925.385	18586.25
925.618	18608.25
925.852	18571.25
926.086	18414.25
926.319	18446.25
926.553	18326.25
926.786	18351.25
927.02	18285.25
927.253	18343.25
927.486	18258.25
927.72	18096.25
927.953	18139.25
928.186	18027.25
928.42	17970.25
928.653	17926.25
928.886	17761.25
929.119	17730.25
929.352	17602.25
929.585	17414.25
929.818	17211.25
930.051	17189.25
930.284	17050.25
930.516	16904.25
930.749	16775.25
930.982	16577.25
931.215	16666.25
931.447	16489.25
931.68	16422.25
931.912	16357.25
932.145	16354.25
932.377	16373.25
932.61	16438.25
932.842	16294.25
933.074	16315.25
933.307	16204.25
933.539	16327.25
933.771	16229.25
934.003	16198.25
934.236	16251.25
934.468	16188.25
934.7	16055.25
934.932	16046.25
935.164	15934.25
935.395	15854.25
935.627	15859.25
935.859	15760.25
936.091	15638.25
936.323	15731.25
936.554	15677.25
936.786	15535.25
937.017	15377.25
937.249	15387.25
937.481	15328.25
937.712	15333.25
937.943	15203.25
938.175	15151.25
938.406	15136.25
938.637	15117.25
938.869	14983.25
939.1	15086.25
939.331	14936.25
939.562	14890.25
939.793	14954.25
940.024	14749.25
940.255	14703.25
940.486	14630.25
940.717	14546.25
940.948	14500.25
941.179	14416.25
941.409	14439.25
941.64	14324.25
941.871	14365.25
942.102	14259.25
942.332	14376.25
942.563	14303.25
942.793	14222.25
943.024	14213.25
943.254	14170.25
943.484	14202.25
943.715	14193.25
943.945	14218.25
944.175	14123.25
944.405	14056.25
944.636	14087.25
944.866	13974.25
945.096	13982.25
945.326	13923.25
945.556	13919.25
945.786	13836.25
946.016	13668.25
946.245	13497.25
946.475	13457.25
946.705	13432.25
946.935	13316.25
947.164	13205.25
947.394	13062.25
947.624	13149.25
947.853	13030.25
948.083	12900.25
948.312	12866.25
948.542	12762.25
948.771	12773.25
949	12709.25
949.23	12694.25
949.459	12671.25
949.688	12733.25
949.917	12652.25
950.146	12655.25
950.375	12638.25
950.604	12469.25
950.833	12541.25
951.062	12515.25
951.291	12427.25
951.52	12410.25
951.749	12350.25
951.978	12268.25
952.206	12270.25
952.435	12200.25
952.664	12260.25
952.892	12082.25
953.121	12038.25
953.349	11997.25
953.578	12019.25
953.806	11868.25
954.035	11757.25
954.263	11799.25
954.491	11588.25
954.719	11683.25
954.948	11506.25
955.176	11520.25
955.404	11402.25
955.632	11413.25
955.86	11328.25
956.088	11263.25
956.316	11212.25
956.544	11218.25
956.772	11171.25
956.999	11010.25
957.227	11062.25
957.455	10902.25
957.683	10877.25
957.91	10746.25
958.138	10688.25
958.365	10654.25
958.593	10560.25
958.82	10459.25
959.048	10454.25
959.275	10481.25
959.502	10467.25
959.73	10325.25
959.957	10416.25
960.184	10320.25
960.411	10242.25
960.638	10345.25
960.865	10283.25
961.092	10242.25
961.319	10138.25
961.546	10180.25
961.773	10298.25
962	10155.25
962.227	10163.25
962.454	10053.25
962.68	10007.25
962.907	10023.25
963.134	9942.25
963.36	9845.25
963.587	9868.25
963.813	9669.25
964.04	9581.25
964.266	9489.25
964.493	9558.25
964.719	9530.25
964.945	9458.25
965.171	9308.25
965.398	9331.25
965.624	9299.25
965.85	9121.25
966.076	9137.25
966.302	9085.25
966.528	9029.25
966.754	9021.25
966.98	8953.25
967.206	8940.25
967.431	8847.25
967.657	8964.25
967.883	8867.25
968.109	8824.25
968.334	8698.25
968.56	8734.25
968.785	8755.25
969.011	8627.25
969.236	8641.25
969.462	8564.25
969.687	8547.25
969.912	8560.25
970.138	8506.25
970.363	8483.25
970.588	8440.25
970.813	8425.25
971.038	8289.25
971.263	8278.25
971.488	8262.25
971.713	8226.25
971.938	8202.25
972.163	8126.25
972.388	8058.25
972.613	8045.25
972.838	8017.25
973.062	8032.25
973.287	7960.25
973.512	7850.25
973.736	7889.25
973.961	7811.25
974.185	7732.25
974.41	7681.25
974.634	7577.25
974.858	7558.25
975.083	7535.25
975.307	7513.25
975.531	7419.25
975.755	7311.25
975.98	7267.25
976.204	7228.25
976.428	7141.25
976.652	7147.25
976.876	7165.25
977.1	7140.25
977.324	7080.25
977.547	7104.25
977.771	7069.25
977.995	7012.25
978.219	6930.25
978.442	7021.25
978.666	6927.25
978.89	6928.25
979.113	6859.25
979.337	6883.25
979.56	6835.25
979.783	6860.25
980.007	6697.25
980.23	6701.25
980.453	6659.25
980.677	6674.25
980.9	6666.25
981.123	6524.25
981.346	6586.25
981.569	6550.25
981.792	6495.25
982.015	6398.25
982.238	6331.25
982.461	6337.25
982.684	6283.25
982.907	6274.25
983.129	6186.25
983.352	6200.25
983.575	6151.25
983.797	6109.25
984.02	6048.25
984.242	5998.25
984.465	5972.25
984.687	5956.25
984.91	5973.25
985.132	5916.25
985.354	5944.25
985.577	5865.25
985.799	5767.25
986.021	5697.25
986.243	5718.25
986.465	5731.25
986.687	5765.25
986.909	5755.25
987.131	5687.25
987.353	5614.25
987.575	5621.25
987.797	5542.25
988.019	5549.25
988.241	5462.25
988.462	5458.25
988.684	5493.25
988.906	5556.25
989.127	5474.25
989.349	5386.25
989.57	5400.25
989.792	5405.25
990.013	5402.25
990.234	5389.25
990.456	5363.25
990.677	5291.25
990.898	5249.25
991.119	5222.25
991.341	5222.25
991.562	5151.25
991.783	5152.25
992.004	5019.25
992.225	5013.25
992.446	5006.25
992.667	4937.25
992.887	4966.25
993.108	4894.25
993.329	4950.25
993.55	4826.25
993.77	4761.25
993.991	4755.25
994.212	4800.25
994.432	4712.25
994.653	4744.25
994.873	4712.25
995.093	4539.25
995.314	4557.25
995.534	4597.25
995.754	4634.25
995.975	4602.25
996.195	4515.25
996.415	4525.25
996.635	4475.25
996.855	4483.25
997.075	4406.25
997.295	4438.25
997.515	4360.25
997.735	4405.25
997.955	4403.25
998.174	4354.25
998.394	4320.25
998.614	4315.25
998.834	4277.25
999.053	4343.25
999.273	4254.25
999.492	4297.25
999.712	4234.25
999.931	4194.25
1000.151	4224.25
1000.37	4198.25
1000.589	4159.25
1000.809	4108.25
1001.028	4167.25
1001.247	4082.25
1001.466	3936.25
1001.685	4070.25
1001.904	3986.25
1002.123	3951.25
1002.342	3935.25
1002.561	3861.25
1002.78	3825.25
1002.999	3879.25
1003.218	3800.25
1003.436	3814.25
1003.655	3824.25
1003.874	3706.25
1004.092	3707.25
1004.311	3730.25
1004.53	3685.25
1004.748	3768.25
1004.966	3698.25
1005.185	3711.25
1005.403	3674.25
1005.622	3675.25
1005.84	3672.25
1006.058	3530.25
1006.276	3575.25
1006.494	4064.25
1006.712	3551.25
1006.931	3587.25
1007.149	3551.25
1007.367	3532.25
1007.584	3588.25
1007.802	3598.25
1008.02	3504.25
1008.238	3591.25
1008.456	3624.25
1008.673	3482.25
1008.891	3576.25
1009.109	3502.25
1009.326	3551.25
1009.544	3652.25
1009.761	3570.25
1009.979	3666.25
1010.196	3677.25
1010.413	3812.25
1010.631	3842.25
1010.848	3903.25
1011.065	3941.25
1011.282	3869.25
1011.5	3784.25
1011.717	3856.25
1011.934	3797.25
1012.151	3799.25
1012.368	3742.25
1012.585	3658.25
1012.801	3747.25
1013.018	3695.25
1013.235	3641.25
1013.452	3690.25
1013.669	3623.25
1013.885	3657.25
1014.102	3746.25
1014.318	3699.25
1014.535	3591.25
1014.751	3634.25
1014.968	3643.25
1015.184	3590.25
1015.401	3490.25
1015.617	3489.25
1015.833	3425.25
1016.049	3384.25
1016.266	3360.25
1016.482	3356.25
1016.698	3238.25
1016.914	3287.25
1017.13	3182.25
1017.346	3177.25
1017.562	3270.25
1017.778	3140.25
1017.993	3140.25
1018.209	3189.25
1018.425	3157.25
1018.641	3081.25
1018.856	3061.25
1019.072	3105.25
1019.288	3145.25
1019.503	3045.25
1019.719	2998.25
1019.934	3005.25
1020.149	3029.25
1020.365	2994.25
1020.58	2873.25
1020.795	2929.25
1021.011	2849.25
1021.226	2799.25
1021.441	2776.25
1021.656	2677.25
1021.871	2580.25
1022.086	2516.25
1022.301	2564.25
1022.516	2496.25
1022.731	2531.25
1022.946	2446.25
1023.16	2454.25
1023.375	2369.25
1023.59	2312.25
1023.804	2248.25
1024.019	2359.25
1024.234	2197.25
1024.448	2248.25
1024.663	2153.25
1024.877	2158.25
1025.092	2116.25
1025.306	2102.25
1025.52	1989.25
1025.734	2043.25
1025.949	1957.25
1026.163	1873.25
1026.377	1818.25
1026.591	1855.25
1026.805	1734.25
1027.019	1742.25
1027.233	1677.25
1027.447	1617.25
1027.661	1683.25
1027.875	1610.25
1028.088	1601.25
1028.302	1514.25
1028.516	1474.25
1028.73	1459.25
1028.943	1409.25
1029.157	1341.25
1029.37	1224.25
1029.584	-1.75
1029.797	-2.75
1030.011	-4.75
1030.224	-2.75
