Data from QEP037381__188__14-57-35-843.txt Node

Date: Fri Dec 16 14:57:35 EST 2022
User: dcclab
Spectrometer: QEP03738
Trigger mode: 4
Integration Time (sec): 1.000000E1
Scans to average: 1
Electric dark correction enabled: true
Nonlinearity correction enabled: false
Boxcar width: 0
XAxis mode: Wavelengths
Number of Pixels in Spectrum: 1044
>>>>>Begin Spectral Data<<<<<
784.041	12.12
784.3	0.12
784.558	-0.88
784.817	-5.88
785.075	109467.12
785.334	19174.12
785.592	9040.12
785.851	6306.12
786.109	4673.12
786.368	3677.12
786.626	2980.12
786.884	2471.12
787.143	2085.12
787.401	1727.12
787.659	1538.12
787.917	1344.12
788.175	1221.12
788.433	1102.12
788.691	983.12
788.949	926.12
789.207	840.12
789.465	765.12
789.723	735.12
789.98	681.12
790.238	723.12
790.496	662.12
790.753	637.12
791.011	688.12
791.268	606.12
791.526	616.12
791.783	632.12
792.041	601.12
792.298	522.12
792.556	597.12
792.813	557.12
793.07	551.12
793.327	531.12
793.584	608.12
793.841	543.12
794.099	550.12
794.356	622.12
794.613	520.12
794.869	557.12
795.126	526.12
795.383	500.12
795.64	528.12
795.897	488.12
796.153	556.12
796.41	548.12
796.667	518.12
796.923	535.12
797.18	535.12
797.436	571.12
797.693	532.12
797.949	597.12
798.206	632.12
798.462	541.12
798.718	611.12
798.974	592.12
799.231	646.12
799.487	650.12
799.743	667.12
799.999	706.12
800.255	724.12
800.511	726.12
800.767	797.12
801.023	801.12
801.279	881.12
801.534	949.12
801.79	1062.12
802.046	1206.12
802.302	1464.12
802.557	1815.12
802.813	2364.12
803.068	3122.12
803.324	4430.12
803.579	6269.12
803.835	8872.12
804.09	12214.12
804.345	16135.12
804.601	20473.12
804.856	24972.12
805.111	28728.12
805.366	31833.12
805.621	34188.12
805.876	35669.12
806.131	36649.12
806.386	37429.12
806.641	38280.12
806.896	38925.12
807.151	39687.12
807.406	40338.12
807.661	40937.12
807.915	41805.12
808.17	42330.12
808.425	42913.12
808.679	43179.12
808.934	43801.12
809.188	44288.12
809.443	44820.12
809.697	45081.12
809.951	45617.12
810.206	45869.12
810.46	46553.12
810.714	46846.12
810.968	47169.12
811.223	47610.12
811.477	48011.12
811.731	48360.12
811.985	48674.12
812.239	48962.12
812.493	49332.12
812.747	49649.12
813	49755.12
813.254	49892.12
813.508	50125.12
813.762	50262.12
814.015	50718.12
814.269	51204.12
814.522	51658.12
814.776	52066.12
815.03	52800.12
815.283	53632.12
815.536	54455.12
815.79	55386.12
816.043	56036.12
816.296	56747.12
816.55	57619.12
816.803	58033.12
817.056	58802.12
817.309	59372.12
817.562	60097.12
817.815	60723.12
818.068	61213.12
818.321	61885.12
818.574	62555.12
818.827	63165.12
819.079	64074.12
819.332	65150.12
819.585	65946.12
819.838	66670.12
820.09	67058.12
820.343	67672.12
820.595	68079.12
820.848	68824.12
821.1	69001.12
821.353	68957.12
821.605	69043.12
821.857	68888.12
822.11	68789.12
822.362	68671.12
822.614	68423.12
822.866	68540.12
823.118	68546.12
823.37	68491.12
823.622	68883.12
823.874	68983.12
824.126	69213.12
824.378	69471.12
824.63	69679.12
824.882	70024.12
825.134	69765.12
825.385	69854.12
825.637	69732.12
825.888	69606.12
826.14	69518.12
826.392	69253.12
826.643	69200.12
826.895	68753.12
827.146	68670.12
827.397	68552.12
827.649	68451.12
827.9	68545.12
828.151	68621.12
828.402	68713.12
828.653	68806.12
828.905	69255.12
829.156	69224.12
829.407	69368.12
829.658	69315.12
829.909	69197.12
830.159	69088.12
830.41	68816.12
830.661	68367.12
830.912	67912.12
831.162	68011.12
831.413	67973.12
831.664	67767.12
831.914	67760.12
832.165	67731.12
832.415	67714.12
832.666	67792.12
832.916	67721.12
833.167	67755.12
833.417	67577.12
833.667	67517.12
833.917	67298.12
834.168	67256.12
834.418	67090.12
834.668	66595.12
834.918	66289.12
835.168	66209.12
835.418	65975.12
835.668	65909.12
835.918	65698.12
836.167	65596.12
836.417	65484.12
836.667	65422.12
836.917	65197.12
837.166	65106.12
837.416	65194.12
837.666	65227.12
837.915	65010.12
838.165	64947.12
838.414	64649.12
838.663	64713.12
838.913	64579.12
839.162	64375.12
839.411	64124.12
839.661	63870.12
839.91	63716.12
840.159	63684.12
840.408	63405.12
840.657	63656.12
840.906	63561.12
841.155	63583.12
841.404	63659.12
841.653	63591.12
841.902	63781.12
842.15	63962.12
842.399	63904.12
842.648	63587.12
842.897	63452.12
843.145	63187.12
843.394	62788.12
843.642	62558.12
843.891	62260.12
844.139	62107.12
844.388	61645.12
844.636	61527.12
844.884	61600.12
845.133	61207.12
845.381	61098.12
845.629	61214.12
845.877	61308.12
846.125	60906.12
846.373	60908.12
846.621	60776.12
846.869	60457.12
847.117	60282.12
847.365	59949.12
847.613	59722.12
847.861	59482.12
848.108	59240.12
848.356	59250.12
848.604	59199.12
848.851	59204.12
849.099	59264.12
849.346	59407.12
849.594	59542.12
849.841	59946.12
850.089	60044.12
850.336	59982.12
850.583	59913.12
850.831	59533.12
851.078	59248.12
851.325	59238.12
851.572	59060.12
851.819	58432.12
852.066	57739.12
852.313	57115.12
852.56	56796.12
852.807	56620.12
853.054	56315.12
853.301	56210.12
853.548	56143.12
853.794	56423.12
854.041	56760.12
854.288	57018.12
854.534	57227.12
854.781	57359.12
855.028	57086.12
855.274	56806.12
855.52	56654.12
855.767	56361.12
856.013	56299.12
856.26	56393.12
856.506	55486.12
856.752	55531.12
856.998	55665.12
857.244	55809.12
857.49	55960.12
857.736	56204.12
857.982	56157.12
858.228	56033.12
858.474	55657.12
858.72	55441.12
858.966	54850.12
859.212	54472.12
859.458	53857.12
859.703	53257.12
859.949	53036.12
860.195	52630.12
860.44	52185.12
860.686	52023.12
860.931	51851.12
861.177	51790.12
861.422	51560.12
861.667	51570.12
861.913	51842.12
862.158	51724.12
862.403	51861.12
862.648	51849.12
862.893	51924.12
863.138	51876.12
863.384	51736.12
863.629	51772.12
863.873	51563.12
864.118	51555.12
864.363	51186.12
864.608	51183.12
864.853	50887.12
865.098	50641.12
865.342	50329.12
865.587	50333.12
865.832	50271.12
866.076	50025.12
866.321	49968.12
866.565	49705.12
866.81	49473.12
867.054	49515.12
867.298	49383.12
867.543	49296.12
867.787	48993.12
868.031	48848.12
868.275	48707.12
868.519	48693.12
868.764	48560.12
869.008	48469.12
869.252	48392.12
869.496	48126.12
869.739	47992.12
869.983	48034.12
870.227	47800.12
870.471	47819.12
870.715	47951.12
870.958	47995.12
871.202	48008.12
871.446	48108.12
871.689	48079.12
871.933	48050.12
872.176	48265.12
872.42	47994.12
872.663	47851.12
872.906	47757.12
873.15	47506.12
873.393	47257.12
873.636	47003.12
873.879	46600.12
874.122	46179.12
874.366	45625.12
874.609	45453.12
874.852	44938.12
875.095	44890.12
875.337	44665.12
875.58	44506.12
875.823	44539.12
876.066	44335.12
876.309	44264.12
876.551	44040.12
876.794	43690.12
877.037	43661.12
877.279	43627.12
877.522	43666.12
877.764	43650.12
878.007	43631.12
878.249	43640.12
878.491	43458.12
878.734	43459.12
878.976	43431.12
879.218	43116.12
879.46	43011.12
879.702	42594.12
879.945	42397.12
880.187	42121.12
880.429	41857.12
880.671	41679.12
880.912	41418.12
881.154	41372.12
881.396	41222.12
881.638	41289.12
881.88	41169.12
882.121	40987.12
882.363	40954.12
882.605	40891.12
882.846	40750.12
883.088	40652.12
883.329	40267.12
883.571	40354.12
883.812	40341.12
884.053	40722.12
884.295	40981.12
884.536	41165.12
884.777	41044.12
885.018	40668.12
885.259	40490.12
885.5	40480.12
885.742	40816.12
885.982	40544.12
886.223	40296.12
886.464	40137.12
886.705	39908.12
886.946	39630.12
887.187	39224.12
887.428	39159.12
887.668	38665.12
887.909	38371.12
888.15	37849.12
888.39	37739.12
888.631	37455.12
888.871	37163.12
889.111	37040.12
889.352	36809.12
889.592	36571.12
889.833	36308.12
890.073	36050.12
890.313	35823.12
890.553	35611.12
890.793	35355.12
891.033	35337.12
891.273	35173.12
891.513	35054.12
891.753	34914.12
891.993	34940.12
892.233	34917.12
892.473	35019.12
892.713	34838.12
892.952	34998.12
893.192	34808.12
893.432	34897.12
893.671	34740.12
893.911	34586.12
894.15	34579.12
894.39	34156.12
894.629	34019.12
894.869	33803.12
895.108	33602.12
895.347	33412.12
895.587	33461.12
895.826	33336.12
896.065	33090.12
896.304	33171.12
896.543	33037.12
896.782	32953.12
897.021	32726.12
897.26	32769.12
897.499	32759.12
897.738	32565.12
897.977	32176.12
898.216	32032.12
898.454	31826.12
898.693	31432.12
898.932	31494.12
899.17	31279.12
899.409	31181.12
899.647	31288.12
899.886	31028.12
900.124	31105.12
900.363	31133.12
900.601	31014.12
900.839	30962.12
901.078	31027.12
901.316	31086.12
901.554	31122.12
901.792	31086.12
902.03	30980.12
902.268	30959.12
902.506	30923.12
902.744	30726.12
902.982	30544.12
903.22	30296.12
903.458	29866.12
903.695	29598.12
903.933	29441.12
904.171	28918.12
904.409	28560.12
904.646	28308.12
904.884	27976.12
905.121	27688.12
905.359	27388.12
905.596	27197.12
905.833	26888.12
906.071	26803.12
906.308	26818.12
906.545	26696.12
906.783	26536.12
907.02	26603.12
907.257	26385.12
907.494	26454.12
907.731	26198.12
907.968	26204.12
908.205	25982.12
908.442	25814.12
908.679	25644.12
908.915	25534.12
909.152	25423.12
909.389	25048.12
909.626	24949.12
909.862	24801.12
910.099	24700.12
910.335	24804.12
910.572	24487.12
910.808	24484.12
911.045	24305.12
911.281	24210.12
911.518	24127.12
911.754	23983.12
911.99	23896.12
912.226	23643.12
912.463	23428.12
912.699	23158.12
912.935	23160.12
913.171	22918.12
913.407	22691.12
913.643	22670.12
913.879	22343.12
914.114	22191.12
914.35	21903.12
914.586	21811.12
914.822	21600.12
915.057	21534.12
915.293	21233.12
915.529	21172.12
915.764	21158.12
916	21084.12
916.235	21119.12
916.471	21083.12
916.706	20878.12
916.941	20887.12
917.177	20807.12
917.412	20860.12
917.647	20708.12
917.882	20716.12
918.117	20718.12
918.352	20635.12
918.588	20597.12
918.823	20380.12
919.057	20191.12
919.292	19871.12
919.527	19913.12
919.762	19455.12
919.997	19376.12
920.232	19203.12
920.466	19059.12
920.701	18847.12
920.935	18682.12
921.17	18612.12
921.405	18389.12
921.639	18430.12
921.873	18357.12
922.108	18278.12
922.342	18226.12
922.576	18148.12
922.811	18038.12
923.045	17943.12
923.279	17994.12
923.513	17745.12
923.747	17659.12
923.981	17643.12
924.215	17467.12
924.449	17354.12
924.683	17270.12
924.917	17130.12
925.151	16981.12
925.385	17035.12
925.618	16936.12
925.852	16875.12
926.086	16781.12
926.319	16847.12
926.553	16820.12
926.786	16783.12
927.02	16802.12
927.253	16711.12
927.486	16612.12
927.72	16635.12
927.953	16692.12
928.186	16569.12
928.42	16475.12
928.653	16339.12
928.886	16284.12
929.119	16233.12
929.352	16056.12
929.585	15992.12
929.818	15771.12
930.051	15750.12
930.284	15613.12
930.516	15439.12
930.749	15352.12
930.982	15319.12
931.215	15211.12
931.447	15075.12
931.68	15049.12
931.912	15035.12
932.145	15010.12
932.377	15012.12
932.61	15092.12
932.842	14889.12
933.074	15036.12
933.307	14869.12
933.539	15003.12
933.771	14955.12
934.003	14861.12
934.236	14857.12
934.468	14848.12
934.7	14747.12
934.932	14792.12
935.164	14664.12
935.395	14640.12
935.627	14614.12
935.859	14551.12
936.091	14480.12
936.323	14475.12
936.554	14435.12
936.786	14217.12
937.017	14163.12
937.249	14214.12
937.481	14094.12
937.712	14125.12
937.943	14038.12
938.175	13959.12
938.406	13988.12
938.637	13947.12
938.869	13858.12
939.1	13798.12
939.331	13849.12
939.562	13750.12
939.793	13781.12
940.024	13645.12
940.255	13573.12
940.486	13477.12
940.717	13443.12
940.948	13403.12
941.179	13318.12
941.409	13327.12
941.64	13193.12
941.871	13263.12
942.102	13149.12
942.332	13165.12
942.563	13239.12
942.793	13203.12
943.024	13150.12
943.254	13057.12
943.484	13182.12
943.715	13176.12
943.945	13068.12
944.175	13000.12
944.405	13052.12
944.636	13013.12
944.866	13000.12
945.096	13072.12
945.326	12823.12
945.556	12824.12
945.786	12827.12
946.016	12738.12
946.245	12519.12
946.475	12444.12
946.705	12408.12
946.935	12272.12
947.164	12263.12
947.394	12154.12
947.624	12177.12
947.853	12126.12
948.083	12031.12
948.312	11959.12
948.542	11848.12
948.771	11867.12
949	11796.12
949.23	11777.12
949.459	11744.12
949.688	11759.12
949.917	11784.12
950.146	11726.12
950.375	11765.12
950.604	11701.12
950.833	11628.12
951.062	11650.12
951.291	11583.12
951.52	11498.12
951.749	11489.12
951.978	11394.12
952.206	11426.12
952.435	11376.12
952.664	11330.12
952.892	11284.12
953.121	11229.12
953.349	11138.12
953.578	11180.12
953.806	11033.12
954.035	10959.12
954.263	10910.12
954.491	10877.12
954.719	10881.12
954.948	10755.12
955.176	10719.12
955.404	10601.12
955.632	10655.12
955.86	10604.12
956.088	10509.12
956.316	10538.12
956.544	10507.12
956.772	10375.12
956.999	10266.12
957.227	10216.12
957.455	10203.12
957.683	10126.12
957.91	9990.12
958.138	10022.12
958.365	9913.12
958.593	9829.12
958.82	9848.12
959.048	9824.12
959.275	9732.12
959.502	9729.12
959.73	9666.12
959.957	9663.12
960.184	9678.12
960.411	9584.12
960.638	9619.12
960.865	9523.12
961.092	9611.12
961.319	9420.12
961.546	9623.12
961.773	9476.12
962	9497.12
962.227	9479.12
962.454	9414.12
962.68	9376.12
962.907	9388.12
963.134	9242.12
963.36	9213.12
963.587	9176.12
963.813	9014.12
964.04	9029.12
964.266	8935.12
964.493	8935.12
964.719	8936.12
964.945	8776.12
965.171	8726.12
965.398	8760.12
965.624	8696.12
965.85	8662.12
966.076	8619.12
966.302	8530.12
966.528	8497.12
966.754	8466.12
966.98	8411.12
967.206	8363.12
967.431	8289.12
967.657	8291.12
967.883	8333.12
968.109	8306.12
968.334	8175.12
968.56	8205.12
968.785	8134.12
969.011	8089.12
969.236	8150.12
969.462	8086.12
969.687	8051.12
969.912	8052.12
970.138	7987.12
970.363	7895.12
970.588	7906.12
970.813	7869.12
971.038	7792.12
971.263	7846.12
971.488	7785.12
971.713	7753.12
971.938	7781.12
972.163	7649.12
972.388	7604.12
972.613	7578.12
972.838	7605.12
973.062	7501.12
973.287	7478.12
973.512	7367.12
973.736	7481.12
973.961	7335.12
974.185	7284.12
974.41	7291.12
974.634	7110.12
974.858	7149.12
975.083	7118.12
975.307	7144.12
975.531	6994.12
975.755	6901.12
975.98	6875.12
976.204	6797.12
976.428	6788.12
976.652	6798.12
976.876	6712.12
977.1	6702.12
977.324	6644.12
977.547	6673.12
977.771	6669.12
977.995	6613.12
978.219	6489.12
978.442	6646.12
978.666	6528.12
978.89	6471.12
979.113	6513.12
979.337	6478.12
979.56	6396.12
979.783	6458.12
980.007	6306.12
980.23	6327.12
980.453	6295.12
980.677	6304.12
980.9	6221.12
981.123	6124.12
981.346	6215.12
981.569	6180.12
981.792	6147.12
982.015	6064.12
982.238	6010.12
982.461	6025.12
982.684	5954.12
982.907	5872.12
983.129	5805.12
983.352	5853.12
983.575	5802.12
983.797	5807.12
984.02	5710.12
984.242	5657.12
984.465	5668.12
984.687	5671.12
984.91	5689.12
985.132	5579.12
985.354	5564.12
985.577	5532.12
985.799	5496.12
986.021	5452.12
986.243	5410.12
986.465	5421.12
986.687	5368.12
986.909	5483.12
987.131	5391.12
987.353	5341.12
987.575	5325.12
987.797	5291.12
988.019	5196.12
988.241	5207.12
988.462	5193.12
988.684	5214.12
988.906	5197.12
989.127	5228.12
989.349	5002.12
989.57	5181.12
989.792	5136.12
990.013	5115.12
990.234	5105.12
990.456	5077.12
990.677	5050.12
990.898	4954.12
991.119	4987.12
991.341	4973.12
991.562	4845.12
991.783	4882.12
992.004	4819.12
992.225	4743.12
992.446	4811.12
992.667	4668.12
992.887	4733.12
993.108	4646.12
993.329	4692.12
993.55	4569.12
993.77	4575.12
993.991	4497.12
994.212	4538.12
994.432	4443.12
994.653	4500.12
994.873	4471.12
995.093	4344.12
995.314	4345.12
995.534	4452.12
995.754	4387.12
995.975	4376.12
996.195	4262.12
996.415	4296.12
996.635	4244.12
996.855	4261.12
997.075	4221.12
997.295	4250.12
997.515	4207.12
997.735	4211.12
997.955	4231.12
998.174	4120.12
998.394	4144.12
998.614	4145.12
998.834	4110.12
999.053	4141.12
999.273	4128.12
999.492	4117.12
999.712	4037.12
999.931	3997.12
1000.151	4042.12
1000.37	3974.12
1000.589	4022.12
1000.809	3863.12
1001.028	3978.12
1001.247	3902.12
1001.466	3741.12
1001.685	3839.12
1001.904	3799.12
1002.123	3775.12
1002.342	3759.12
1002.561	3735.12
1002.78	3710.12
1002.999	3740.12
1003.218	3680.12
1003.436	3637.12
1003.655	3702.12
1003.874	3591.12
1004.092	3563.12
1004.311	3576.12
1004.53	3535.12
1004.748	3617.12
1004.966	3507.12
1005.185	3546.12
1005.403	3526.12
1005.622	3492.12
1005.84	3559.12
1006.058	3423.12
1006.276	3452.12
1006.494	3902.12
1006.712	3453.12
1006.931	3504.12
1007.149	3398.12
1007.367	3381.12
1007.584	3432.12
1007.802	3457.12
1008.02	3389.12
1008.238	3494.12
1008.456	3462.12
1008.673	3338.12
1008.891	3468.12
1009.109	3398.12
1009.326	3460.12
1009.544	3538.12
1009.761	3482.12
1009.979	3565.12
1010.196	3636.12
1010.413	3747.12
1010.631	3793.12
1010.848	3898.12
1011.065	3854.12
1011.282	3842.12
1011.5	3762.12
1011.717	3861.12
1011.934	3763.12
1012.151	3783.12
1012.368	3719.12
1012.585	3666.12
1012.801	3729.12
1013.018	3718.12
1013.235	3658.12
1013.452	3664.12
1013.669	3685.12
1013.885	3642.12
1014.102	3666.12
1014.318	3651.12
1014.535	3578.12
1014.751	3631.12
1014.968	3578.12
1015.184	3585.12
1015.401	3491.12
1015.617	3481.12
1015.833	3475.12
1016.049	3405.12
1016.266	3380.12
1016.482	3374.12
1016.698	3247.12
1016.914	3224.12
1017.13	3182.12
1017.346	3191.12
1017.562	3241.12
1017.778	3126.12
1017.993	3119.12
1018.209	3161.12
1018.425	3168.12
1018.641	3084.12
1018.856	3079.12
1019.072	3094.12
1019.288	3172.12
1019.503	3114.12
1019.719	2998.12
1019.934	2985.12
1020.149	3056.12
1020.365	2960.12
1020.58	2878.12
1020.795	2885.12
1021.011	2795.12
1021.226	2771.12
1021.441	2806.12
1021.656	2655.12
1021.871	2583.12
1022.086	2545.12
1022.301	2525.12
1022.516	2511.12
1022.731	2524.12
1022.946	2459.12
1023.16	2389.12
1023.375	2330.12
1023.59	2329.12
1023.804	2252.12
1024.019	2298.12
1024.234	2180.12
1024.448	2202.12
1024.663	2102.12
1024.877	2071.12
1025.092	2081.12
1025.306	2056.12
1025.52	1952.12
1025.734	1987.12
1025.949	1903.12
1026.163	1842.12
1026.377	1765.12
1026.591	1800.12
1026.805	1691.12
1027.019	1716.12
1027.233	1646.12
1027.447	1569.12
1027.661	1685.12
1027.875	1590.12
1028.088	1578.12
1028.302	1468.12
1028.516	1463.12
1028.73	1393.12
1028.943	1381.12
1029.157	1288.12
1029.37	1230.12
1029.584	1.12
1029.797	1.12
1030.011	-5.88
1030.224	-1.88
