Data from QEP037381__168__14-54-15-841.txt Node

Date: Fri Dec 16 14:54:15 EST 2022
User: dcclab
Spectrometer: QEP03738
Trigger mode: 4
Integration Time (sec): 1.000000E1
Scans to average: 1
Electric dark correction enabled: true
Nonlinearity correction enabled: false
Boxcar width: 0
XAxis mode: Wavelengths
Number of Pixels in Spectrum: 1044
>>>>>Begin Spectral Data<<<<<
784.041	9.38
784.3	-1.62
784.558	-0.62
784.817	-2.62
785.075	111115.38
785.334	19211.38
785.592	9074.38
785.851	6176.38
786.109	4704.38
786.368	3664.38
786.626	2968.38
786.884	2470.38
787.143	2074.38
787.401	1739.38
787.659	1564.38
787.917	1369.38
788.175	1253.38
788.433	1114.38
788.691	1022.38
788.949	927.38
789.207	872.38
789.465	777.38
789.723	747.38
789.98	698.38
790.238	735.38
790.496	692.38
790.753	670.38
791.011	730.38
791.268	661.38
791.526	646.38
791.783	644.38
792.041	634.38
792.298	543.38
792.556	608.38
792.813	608.38
793.07	580.38
793.327	569.38
793.584	658.38
793.841	556.38
794.099	591.38
794.356	647.38
794.613	563.38
794.869	595.38
795.126	558.38
795.383	530.38
795.64	583.38
795.897	527.38
796.153	580.38
796.41	584.38
796.667	559.38
796.923	566.38
797.18	583.38
797.436	606.38
797.693	573.38
797.949	631.38
798.206	682.38
798.462	601.38
798.718	674.38
798.974	670.38
799.231	693.38
799.487	713.38
799.743	729.38
799.999	794.38
800.255	802.38
800.511	809.38
800.767	891.38
801.023	922.38
801.279	997.38
801.534	1126.38
801.79	1247.38
802.046	1415.38
802.302	1740.38
802.557	2153.38
802.813	2829.38
803.068	3813.38
803.324	5483.38
803.579	7641.38
803.835	10822.38
804.09	15075.38
804.345	20034.38
804.601	25578.38
804.856	30954.38
805.111	35920.38
805.366	39621.38
805.621	42639.38
805.876	44503.38
806.131	46025.38
806.386	46871.38
806.641	47800.38
806.896	48661.38
807.151	49640.38
807.406	50539.38
807.661	51471.38
807.915	52536.38
808.17	53304.38
808.425	53747.38
808.679	54347.38
808.934	55064.38
809.188	55650.38
809.443	56225.38
809.697	56922.38
809.951	57259.38
810.206	57850.38
810.46	58419.38
810.714	58969.38
810.968	59620.38
811.223	59946.38
811.477	60589.38
811.731	61232.38
811.985	61463.38
812.239	61921.38
812.493	62466.38
812.747	62641.38
813	62865.38
813.254	62984.38
813.508	63427.38
813.762	63871.38
814.015	64064.38
814.269	64736.38
814.522	65325.38
814.776	66100.38
815.03	67063.38
815.283	68055.38
815.536	69017.38
815.79	70064.38
816.043	71271.38
816.296	72275.38
816.55	73278.38
816.803	74163.38
817.056	74991.38
817.309	75733.38
817.562	76528.38
817.815	77058.38
818.068	78050.38
818.321	78967.38
818.574	79970.38
818.827	80867.38
819.079	81698.38
819.332	83097.38
819.585	84429.38
819.838	85104.38
820.09	85972.38
820.343	86660.38
820.595	87260.38
820.848	87762.38
821.1	88150.38
821.353	88113.38
821.605	88173.38
821.857	88397.38
822.11	88146.38
822.362	87925.38
822.614	88099.38
822.866	88010.38
823.118	87641.38
823.37	88056.38
823.622	88096.38
823.874	88525.38
824.126	88907.38
824.378	89069.38
824.63	89255.38
824.882	89614.38
825.134	89477.38
825.385	89576.38
825.637	89700.38
825.888	89517.38
826.14	89462.38
826.392	89068.38
826.643	88488.38
826.895	88376.38
827.146	88226.38
827.397	87986.38
827.649	88045.38
827.9	87933.38
828.151	88194.38
828.402	88551.38
828.653	88665.38
828.905	88882.38
829.156	89054.38
829.407	88955.38
829.658	88925.38
829.909	88951.38
830.159	88654.38
830.41	88441.38
830.661	88006.38
830.912	87434.38
831.162	87447.38
831.413	86940.38
831.664	87053.38
831.914	86906.38
832.165	86883.38
832.415	87199.38
832.666	87058.38
832.916	87235.38
833.167	86927.38
833.417	86944.38
833.667	86920.38
833.917	86549.38
834.168	86083.38
834.418	86013.38
834.668	85729.38
834.918	85219.38
835.168	85160.38
835.418	85079.38
835.668	84781.38
835.918	84611.38
836.167	84389.38
836.417	84416.38
836.667	84134.38
836.917	83979.38
837.166	83977.38
837.416	84306.38
837.666	84020.38
837.915	83742.38
838.165	83712.38
838.414	83250.38
838.663	83111.38
838.913	83121.38
839.162	82796.38
839.411	82531.38
839.661	82369.38
839.91	82239.38
840.159	82071.38
840.408	81918.38
840.657	82088.38
840.906	82107.38
841.155	82134.38
841.404	81884.38
841.653	82321.38
841.902	82236.38
842.15	82375.38
842.399	82403.38
842.648	82000.38
842.897	81918.38
843.145	81632.38
843.394	81003.38
843.642	80797.38
843.891	80412.38
844.139	79906.38
844.388	79720.38
844.636	79433.38
844.884	79352.38
845.133	79130.38
845.381	78818.38
845.629	78946.38
845.877	79056.38
846.125	78826.38
846.373	78886.38
846.621	78282.38
846.869	78146.38
847.117	77855.38
847.365	77384.38
847.613	77182.38
847.861	76901.38
848.108	76886.38
848.356	76720.38
848.604	76519.38
848.851	76698.38
849.099	76470.38
849.346	76897.38
849.594	77193.38
849.841	77423.38
850.089	77536.38
850.336	77630.38
850.583	77511.38
850.831	77078.38
851.078	76533.38
851.325	76285.38
851.572	76194.38
851.819	75309.38
852.066	74263.38
852.313	73941.38
852.56	73489.38
852.807	73250.38
853.054	72778.38
853.301	72754.38
853.548	72713.38
853.794	73100.38
854.041	73294.38
854.288	73543.38
854.534	74253.38
854.781	73961.38
855.028	73603.38
855.274	73574.38
855.52	73123.38
855.767	72677.38
856.013	72640.38
856.26	72812.38
856.506	72008.38
856.752	72036.38
856.998	72108.38
857.244	72347.38
857.49	72384.38
857.736	72824.38
857.982	72627.38
858.228	72718.38
858.474	72184.38
858.72	71788.38
858.966	71195.38
859.212	70693.38
859.458	70030.38
859.703	69106.38
859.949	68852.38
860.195	68207.38
860.44	67627.38
860.686	67371.38
860.931	67295.38
861.177	67132.38
861.422	66995.38
861.667	67064.38
861.913	67031.38
862.158	67197.38
862.403	67287.38
862.648	67493.38
862.893	67485.38
863.138	67587.38
863.384	67495.38
863.629	67245.38
863.873	67105.38
864.118	67165.38
864.363	66517.38
864.608	66353.38
864.853	66217.38
865.098	65980.38
865.342	65482.38
865.587	65478.38
865.832	65283.38
866.076	64880.38
866.321	64882.38
866.565	64811.38
866.81	64409.38
867.054	64306.38
867.298	64018.38
867.543	63966.38
867.787	63757.38
868.031	63468.38
868.275	63382.38
868.519	63341.38
868.764	63344.38
869.008	62922.38
869.252	62946.38
869.496	62510.38
869.739	62376.38
869.983	62309.38
870.227	62201.38
870.471	62044.38
870.715	62135.38
870.958	62213.38
871.202	62334.38
871.446	62628.38
871.689	62435.38
871.933	62451.38
872.176	62478.38
872.42	62336.38
872.663	62342.38
872.906	61947.38
873.15	61660.38
873.393	61368.38
873.636	60781.38
873.879	60232.38
874.122	59962.38
874.366	59255.38
874.609	58890.38
874.852	58674.38
875.095	58121.38
875.337	58057.38
875.58	57942.38
875.823	57842.38
876.066	57646.38
876.309	57366.38
876.551	57179.38
876.794	56616.38
877.037	56939.38
877.279	56676.38
877.522	56836.38
877.764	56754.38
878.007	56697.38
878.249	56802.38
878.491	56666.38
878.734	56505.38
878.976	56405.38
879.218	56316.38
879.46	55876.38
879.702	55638.38
879.945	55304.38
880.187	54894.38
880.429	54383.38
880.671	54067.38
880.912	53999.38
881.154	53958.38
881.396	53824.38
881.638	53717.38
881.88	53746.38
882.121	53555.38
882.363	53438.38
882.605	53424.38
882.846	53017.38
883.088	52777.38
883.329	52556.38
883.571	52409.38
883.812	52379.38
884.053	52744.38
884.295	53107.38
884.536	53199.38
884.777	52679.38
885.018	52606.38
885.259	52567.38
885.5	52425.38
885.742	52650.38
885.982	52372.38
886.223	52121.38
886.464	52065.38
886.705	51707.38
886.946	51567.38
887.187	51123.38
887.428	50787.38
887.668	50223.38
887.909	49919.38
888.15	49562.38
888.39	49297.38
888.631	49080.38
888.871	48549.38
889.111	48362.38
889.352	48059.38
889.592	47753.38
889.833	47517.38
890.073	47267.38
890.313	46982.38
890.553	46534.38
890.793	46342.38
891.033	46155.38
891.273	45907.38
891.513	45849.38
891.753	45742.38
891.993	45673.38
892.233	45560.38
892.473	45701.38
892.713	45747.38
892.952	45698.38
893.192	45623.38
893.432	45683.38
893.671	45662.38
893.911	45383.38
894.15	45064.38
894.39	44725.38
894.629	44553.38
894.869	44239.38
895.108	43916.38
895.347	43764.38
895.587	43740.38
895.826	43479.38
896.065	43231.38
896.304	43371.38
896.543	43247.38
896.782	43013.38
897.021	42814.38
897.26	42710.38
897.499	42614.38
897.738	42288.38
897.977	42083.38
898.216	41726.38
898.454	41303.38
898.693	41113.38
898.932	41075.38
899.17	40847.38
899.409	40585.38
899.647	40702.38
899.886	40495.38
900.124	40424.38
900.363	40323.38
900.601	40257.38
900.839	40434.38
901.078	40387.38
901.316	40416.38
901.554	40278.38
901.792	40459.38
902.03	40210.38
902.268	40279.38
902.506	40096.38
902.744	39932.38
902.982	39796.38
903.22	39416.38
903.458	39030.38
903.695	38575.38
903.933	38306.38
904.171	37826.38
904.409	37361.38
904.646	36995.38
904.884	36413.38
905.121	36183.38
905.359	35882.38
905.596	35604.38
905.833	35420.38
906.071	35245.38
906.308	35240.38
906.545	34943.38
906.783	34792.38
907.02	34871.38
907.257	34656.38
907.494	34628.38
907.731	34551.38
907.968	34373.38
908.205	33961.38
908.442	33916.38
908.679	33837.38
908.915	33688.38
909.152	33278.38
909.389	32896.38
909.626	32891.38
909.862	32639.38
910.099	32388.38
910.335	32473.38
910.572	32233.38
910.808	32114.38
911.045	32051.38
911.281	31829.38
911.518	31793.38
911.754	31517.38
911.99	31375.38
912.226	31164.38
912.463	30983.38
912.699	30640.38
912.935	30427.38
913.171	30193.38
913.407	29930.38
913.643	29774.38
913.879	29414.38
914.114	29223.38
914.35	29083.38
914.586	28665.38
914.822	28530.38
915.057	28384.38
915.293	28168.38
915.529	27838.38
915.764	27906.38
916	27872.38
916.235	27862.38
916.471	27733.38
916.706	27510.38
916.941	27638.38
917.177	27478.38
917.412	27518.38
917.647	27501.38
917.882	27314.38
918.117	27284.38
918.352	27147.38
918.588	27089.38
918.823	26818.38
919.057	26668.38
919.292	26350.38
919.527	26183.38
919.762	25793.38
919.997	25607.38
920.232	25298.38
920.466	25240.38
920.701	24845.38
920.935	24760.38
921.17	24559.38
921.405	24342.38
921.639	24402.38
921.873	24215.38
922.108	24093.38
922.342	24032.38
922.576	23993.38
922.811	23861.38
923.045	23712.38
923.279	23789.38
923.513	23372.38
923.747	23338.38
923.981	23256.38
924.215	23104.38
924.449	22993.38
924.683	22759.38
924.917	22638.38
925.151	22614.38
925.385	22544.38
925.618	22486.38
925.852	22320.38
926.086	22282.38
926.319	22317.38
926.553	22109.38
926.786	22215.38
927.02	22136.38
927.253	22228.38
927.486	22054.38
927.72	21928.38
927.953	21909.38
928.186	21814.38
928.42	21820.38
928.653	21643.38
928.886	21489.38
929.119	21445.38
929.352	21371.38
929.585	21194.38
929.818	21079.38
930.051	20865.38
930.284	20723.38
930.516	20424.38
930.749	20391.38
930.982	20298.38
931.215	20149.38
931.447	19975.38
931.68	19938.38
931.912	19887.38
932.145	19783.38
932.377	19781.38
932.61	19989.38
932.842	19874.38
933.074	19806.38
933.307	19754.38
933.539	19776.38
933.771	19715.38
934.003	19664.38
934.236	19768.38
934.468	19678.38
934.7	19592.38
934.932	19525.38
935.164	19489.38
935.395	19301.38
935.627	19318.38
935.859	19247.38
936.091	19244.38
936.323	19165.38
936.554	19082.38
936.786	18893.38
937.017	18794.38
937.249	18823.38
937.481	18676.38
937.712	18694.38
937.943	18533.38
938.175	18514.38
938.406	18653.38
938.637	18574.38
938.869	18289.38
939.1	18439.38
939.331	18252.38
939.562	18233.38
939.793	18162.38
940.024	18150.38
940.255	18012.38
940.486	17942.38
940.717	17721.38
940.948	17781.38
941.179	17630.38
941.409	17660.38
941.64	17578.38
941.871	17547.38
942.102	17450.38
942.332	17540.38
942.563	17560.38
942.793	17515.38
943.024	17453.38
943.254	17451.38
943.484	17472.38
943.715	17385.38
943.945	17376.38
944.175	17270.38
944.405	17250.38
944.636	17333.38
944.866	17259.38
945.096	17169.38
945.326	17025.38
945.556	17049.38
945.786	16992.38
946.016	16910.38
946.245	16715.38
946.475	16492.38
946.705	16418.38
946.935	16391.38
947.164	16322.38
947.394	16223.38
947.624	16209.38
947.853	16055.38
948.083	15943.38
948.312	15978.38
948.542	15761.38
948.771	15746.38
949	15696.38
949.23	15724.38
949.459	15689.38
949.688	15653.38
949.917	15568.38
950.146	15597.38
950.375	15697.38
950.604	15428.38
950.833	15469.38
951.062	15440.38
951.291	15361.38
951.52	15351.38
951.749	15262.38
951.978	15181.38
952.206	15161.38
952.435	15136.38
952.664	15029.38
952.892	14988.38
953.121	14898.38
953.349	14843.38
953.578	14824.38
953.806	14702.38
954.035	14574.38
954.263	14641.38
954.491	14525.38
954.719	14331.38
954.948	14418.38
955.176	14196.38
955.404	14163.38
955.632	14204.38
955.86	14033.38
956.088	14027.38
956.316	13901.38
956.544	13872.38
956.772	13771.38
956.999	13655.38
957.227	13731.38
957.455	13461.38
957.683	13452.38
957.91	13327.38
958.138	13273.38
958.365	13181.38
958.593	13170.38
958.82	13062.38
959.048	13085.38
959.275	12964.38
959.502	13001.38
959.73	12915.38
959.957	12954.38
960.184	12844.38
960.411	12867.38
960.638	12847.38
960.865	12789.38
961.092	12722.38
961.319	12669.38
961.546	12718.38
961.773	12721.38
962	12668.38
962.227	12659.38
962.454	12549.38
962.68	12375.38
962.907	12493.38
963.134	12249.38
963.36	12215.38
963.587	12101.38
963.813	12043.38
964.04	11999.38
964.266	11876.38
964.493	11967.38
964.719	11787.38
964.945	11790.38
965.171	11556.38
965.398	11658.38
965.624	11592.38
965.85	11508.38
966.076	11408.38
966.302	11383.38
966.528	11280.38
966.754	11301.38
966.98	11265.38
967.206	11163.38
967.431	11131.38
967.657	11038.38
967.883	11074.38
968.109	11026.38
968.334	10901.38
968.56	10885.38
968.785	10843.38
969.011	10751.38
969.236	10774.38
969.462	10709.38
969.687	10683.38
969.912	10709.38
970.138	10670.38
970.363	10535.38
970.588	10473.38
970.813	10505.38
971.038	10387.38
971.263	10366.38
971.488	10316.38
971.713	10285.38
971.938	10392.38
972.163	10171.38
972.388	10088.38
972.613	10048.38
972.838	10061.38
973.062	9973.38
973.287	9931.38
973.512	9872.38
973.736	9787.38
973.961	9775.38
974.185	9720.38
974.41	9649.38
974.634	9511.38
974.858	9413.38
975.083	9447.38
975.307	9448.38
975.531	9322.38
975.755	9198.38
975.98	9114.38
976.204	9031.38
976.428	9014.38
976.652	9019.38
976.876	8944.38
977.1	8868.38
977.324	8829.38
977.547	8860.38
977.771	8822.38
977.995	8747.38
978.219	8698.38
978.442	8770.38
978.666	8722.38
978.89	8653.38
979.113	8644.38
979.337	8632.38
979.56	8536.38
979.783	8588.38
980.007	8428.38
980.23	8405.38
980.453	8328.38
980.677	8325.38
980.9	8327.38
981.123	8203.38
981.346	8238.38
981.569	8141.38
981.792	8146.38
982.015	8070.38
982.238	7997.38
982.461	7885.38
982.684	7824.38
982.907	7792.38
983.129	7747.38
983.352	7794.38
983.575	7730.38
983.797	7628.38
984.02	7543.38
984.242	7554.38
984.465	7530.38
984.687	7529.38
984.91	7456.38
985.132	7407.38
985.354	7414.38
985.577	7378.38
985.799	7253.38
986.021	7157.38
986.243	7137.38
986.465	7172.38
986.687	7149.38
986.909	7191.38
987.131	7020.38
987.353	7055.38
987.575	7020.38
987.797	6952.38
988.019	6907.38
988.241	6936.38
988.462	6842.38
988.684	6885.38
988.906	6910.38
989.127	6918.38
989.349	6735.38
989.57	6747.38
989.792	6776.38
990.013	6696.38
990.234	6713.38
990.456	6669.38
990.677	6642.38
990.898	6566.38
991.119	6481.38
991.341	6513.38
991.562	6425.38
991.783	6388.38
992.004	6294.38
992.225	6299.38
992.446	6296.38
992.667	6145.38
992.887	6188.38
993.108	6097.38
993.329	6158.38
993.55	6065.38
993.77	5992.38
993.991	5968.38
994.212	5942.38
994.432	5898.38
994.653	5841.38
994.873	5794.38
995.093	5706.38
995.314	5665.38
995.534	5699.38
995.754	5671.38
995.975	5674.38
996.195	5603.38
996.415	5564.38
996.635	5535.38
996.855	5588.38
997.075	5486.38
997.295	5439.38
997.515	5434.38
997.735	5442.38
997.955	5396.38
998.174	5376.38
998.394	5385.38
998.614	5375.38
998.834	5297.38
999.053	5338.38
999.273	5324.38
999.492	5362.38
999.712	5267.38
999.931	5159.38
1000.151	5208.38
1000.37	5138.38
1000.589	5153.38
1000.809	5071.38
1001.028	5099.38
1001.247	5012.38
1001.466	4880.38
1001.685	4992.38
1001.904	4888.38
1002.123	4815.38
1002.342	4828.38
1002.561	4743.38
1002.78	4800.38
1002.999	4801.38
1003.218	4702.38
1003.436	4634.38
1003.655	4651.38
1003.874	4617.38
1004.092	4595.38
1004.311	4607.38
1004.53	4503.38
1004.748	4546.38
1004.966	4494.38
1005.185	4508.38
1005.403	4538.38
1005.622	4461.38
1005.84	4486.38
1006.058	4410.38
1006.276	4376.38
1006.494	4875.38
1006.712	4342.38
1006.931	4417.38
1007.149	4315.38
1007.367	4317.38
1007.584	4303.38
1007.802	4322.38
1008.02	4294.38
1008.238	4383.38
1008.456	4320.38
1008.673	4220.38
1008.891	4333.38
1009.109	4237.38
1009.326	4373.38
1009.544	4374.38
1009.761	4296.38
1009.979	4383.38
1010.196	4410.38
1010.413	4559.38
1010.631	4566.38
1010.848	4616.38
1011.065	4681.38
1011.282	4626.38
1011.5	4522.38
1011.717	4611.38
1011.934	4542.38
1012.151	4487.38
1012.368	4478.38
1012.585	4357.38
1012.801	4434.38
1013.018	4431.38
1013.235	4366.38
1013.452	4363.38
1013.669	4384.38
1013.885	4330.38
1014.102	4324.38
1014.318	4341.38
1014.535	4265.38
1014.751	4257.38
1014.968	4236.38
1015.184	4240.38
1015.401	4118.38
1015.617	4142.38
1015.833	4051.38
1016.049	4015.38
1016.266	3984.38
1016.482	3913.38
1016.698	3869.38
1016.914	3860.38
1017.13	3823.38
1017.346	3815.38
1017.562	3812.38
1017.778	3722.38
1017.993	3697.38
1018.209	3732.38
1018.425	3710.38
1018.641	3649.38
1018.856	3634.38
1019.072	3669.38
1019.288	3684.38
1019.503	3565.38
1019.719	3512.38
1019.934	3553.38
1020.149	3583.38
1020.365	3522.38
1020.58	3389.38
1020.795	3437.38
1021.011	3326.38
1021.226	3260.38
1021.441	3295.38
1021.656	3159.38
1021.871	3083.38
1022.086	3040.38
1022.301	3016.38
1022.516	3010.38
1022.731	2967.38
1022.946	2901.38
1023.16	2836.38
1023.375	2818.38
1023.59	2717.38
1023.804	2703.38
1024.019	2833.38
1024.234	2620.38
1024.448	2619.38
1024.663	2536.38
1024.877	2564.38
1025.092	2489.38
1025.306	2454.38
1025.52	2329.38
1025.734	2389.38
1025.949	2297.38
1026.163	2230.38
1026.377	2162.38
1026.591	2169.38
1026.805	2091.38
1027.019	2044.38
1027.233	1986.38
1027.447	1905.38
1027.661	1981.38
1027.875	1915.38
1028.088	1893.38
1028.302	1802.38
1028.516	1726.38
1028.73	1675.38
1028.943	1652.38
1029.157	1585.38
1029.37	1490.38
1029.584	-2.62
1029.797	-1.62
1030.011	-0.62
1030.224	0.38
