Data from QEP037381__150__14-51-15-838.txt Node

Date: Fri Dec 16 14:51:15 EST 2022
User: dcclab
Spectrometer: QEP03738
Trigger mode: 4
Integration Time (sec): 1.000000E1
Scans to average: 1
Electric dark correction enabled: true
Nonlinearity correction enabled: false
Boxcar width: 0
XAxis mode: Wavelengths
Number of Pixels in Spectrum: 1044
>>>>>Begin Spectral Data<<<<<
784.041	11.88
784.3	1.88
784.558	-2.12
784.817	-5.12
785.075	112351.88
785.334	19627.88
785.592	9194.88
785.851	6394.88
786.109	4862.88
786.368	3749.88
786.626	3071.88
786.884	2526.88
787.143	2145.88
787.401	1768.88
787.659	1584.88
787.917	1354.88
788.175	1251.88
788.433	1108.88
788.691	964.88
788.949	911.88
789.207	852.88
789.465	760.88
789.723	736.88
789.98	678.88
790.238	699.88
790.496	663.88
790.753	643.88
791.011	692.88
791.268	610.88
791.526	602.88
791.783	627.88
792.041	605.88
792.298	519.88
792.556	590.88
792.813	566.88
793.07	534.88
793.327	532.88
793.584	611.88
793.841	529.88
794.099	548.88
794.356	593.88
794.613	520.88
794.869	549.88
795.126	508.88
795.383	505.88
795.64	531.88
795.897	492.88
796.153	549.88
796.41	517.88
796.667	505.88
796.923	525.88
797.18	517.88
797.436	544.88
797.693	525.88
797.949	585.88
798.206	604.88
798.462	537.88
798.718	593.88
798.974	568.88
799.231	629.88
799.487	640.88
799.743	640.88
799.999	679.88
800.255	714.88
800.511	671.88
800.767	754.88
801.023	772.88
801.279	840.88
801.534	939.88
801.79	1058.88
802.046	1140.88
802.302	1410.88
802.557	1721.88
802.813	2225.88
803.068	2889.88
803.324	4176.88
803.579	5919.88
803.835	8313.88
804.09	11474.88
804.345	15119.88
804.601	19225.88
804.856	23406.88
805.111	27012.88
805.366	29900.88
805.621	32013.88
805.876	33560.88
806.131	34485.88
806.386	35219.88
806.641	35869.88
806.896	36571.88
807.151	37314.88
807.406	37828.88
807.661	38418.88
807.915	39096.88
808.17	39754.88
808.425	40103.88
808.679	40527.88
808.934	41056.88
809.188	41315.88
809.443	41767.88
809.697	42249.88
809.951	42575.88
810.206	43089.88
810.46	43535.88
810.714	43851.88
810.968	44235.88
811.223	44565.88
811.477	45000.88
811.731	45269.88
811.985	45422.88
812.239	45752.88
812.493	46105.88
812.747	46301.88
813	46464.88
813.254	46489.88
813.508	46904.88
813.762	47116.88
814.015	47133.88
814.269	47501.88
814.522	48097.88
814.776	48469.88
815.03	49251.88
815.283	49946.88
815.536	50651.88
815.79	51432.88
816.043	52331.88
816.296	53010.88
816.55	53600.88
816.803	54029.88
817.056	54906.88
817.309	55346.88
817.562	55770.88
817.815	56382.88
818.068	56747.88
818.321	57536.88
818.574	58096.88
818.827	58936.88
819.079	59535.88
819.332	60416.88
819.585	61093.88
819.838	61943.88
820.09	62249.88
820.343	62841.88
820.595	63139.88
820.848	63664.88
821.1	63861.88
821.353	63993.88
821.605	64004.88
821.857	63947.88
822.11	63707.88
822.362	63396.88
822.614	63352.88
822.866	63441.88
823.118	63506.88
823.37	63537.88
823.622	63645.88
823.874	63764.88
824.126	64110.88
824.378	64246.88
824.63	64557.88
824.882	64691.88
825.134	64638.88
825.385	64550.88
825.637	64489.88
825.888	64289.88
826.14	64481.88
826.392	63978.88
826.643	63591.88
826.895	63434.88
827.146	63245.88
827.397	63231.88
827.649	63211.88
827.9	63162.88
828.151	63158.88
828.402	63345.88
828.653	63555.88
828.905	63714.88
829.156	63625.88
829.407	63711.88
829.658	63683.88
829.909	63747.88
830.159	63502.88
830.41	63288.88
830.661	63024.88
830.912	62547.88
831.162	62336.88
831.413	62291.88
831.664	62253.88
831.914	62112.88
832.165	62090.88
832.415	62061.88
832.666	62057.88
832.916	62135.88
833.167	62036.88
833.417	62130.88
833.667	61728.88
833.917	61509.88
834.168	61689.88
834.418	61471.88
834.668	60971.88
834.918	60733.88
835.168	60455.88
835.418	60333.88
835.668	60263.88
835.918	59937.88
836.167	60096.88
836.417	59650.88
836.667	59730.88
836.917	59610.88
837.166	59476.88
837.416	59662.88
837.666	59601.88
837.915	59468.88
838.165	59292.88
838.414	59067.88
838.663	59039.88
838.913	58981.88
839.162	58800.88
839.411	58687.88
839.661	58432.88
839.91	58193.88
840.159	58110.88
840.408	58151.88
840.657	57894.88
840.906	57921.88
841.155	58063.88
841.404	57917.88
841.653	58016.88
841.902	58063.88
842.15	58108.88
842.399	58183.88
842.648	57849.88
842.897	57987.88
843.145	57480.88
843.394	57079.88
843.642	56861.88
843.891	56513.88
844.139	56415.88
844.388	56148.88
844.636	55849.88
844.884	55619.88
845.133	55746.88
845.381	55524.88
845.629	55441.88
845.877	55392.88
846.125	55453.88
846.373	55266.88
846.621	55064.88
846.869	54923.88
847.117	54541.88
847.365	54250.88
847.613	54046.88
847.861	53953.88
848.108	53881.88
848.356	53628.88
848.604	53486.88
848.851	53601.88
849.099	53543.88
849.346	53677.88
849.594	53987.88
849.841	54131.88
850.089	54066.88
850.336	54136.88
850.583	54081.88
850.831	53953.88
851.078	53591.88
851.325	53343.88
851.572	53137.88
851.819	52871.88
852.066	51970.88
852.313	51429.88
852.56	51131.88
852.807	51042.88
853.054	50763.88
853.301	50805.88
853.548	50552.88
853.794	50866.88
854.041	50879.88
854.288	51084.88
854.534	51488.88
854.781	51424.88
855.028	51244.88
855.274	51023.88
855.52	50940.88
855.767	50588.88
856.013	50643.88
856.26	50718.88
856.506	49991.88
856.752	50041.88
856.998	50003.88
857.244	50282.88
857.49	50357.88
857.736	50300.88
857.982	50262.88
858.228	50391.88
858.474	49862.88
858.72	49630.88
858.966	49299.88
859.212	48749.88
859.458	48258.88
859.703	47800.88
859.949	47296.88
860.195	47260.88
860.44	46808.88
860.686	46605.88
860.931	46601.88
861.177	46308.88
861.422	46088.88
861.667	46034.88
861.913	46134.88
862.158	46316.88
862.403	46161.88
862.648	46273.88
862.893	46405.88
863.138	46335.88
863.384	46277.88
863.629	46093.88
863.873	46168.88
864.118	46043.88
864.363	45640.88
864.608	45582.88
864.853	45271.88
865.098	45077.88
865.342	44862.88
865.587	44831.88
865.832	44591.88
866.076	44624.88
866.321	44419.88
866.565	44240.88
866.81	44007.88
867.054	43869.88
867.298	43750.88
867.543	43510.88
867.787	43508.88
868.031	43316.88
868.275	43329.88
868.519	43134.88
868.764	43053.88
869.008	43049.88
869.252	42728.88
869.496	42639.88
869.739	42639.88
869.983	42510.88
870.227	42406.88
870.471	42255.88
870.715	42508.88
870.958	42529.88
871.202	42600.88
871.446	42754.88
871.689	42650.88
871.933	42730.88
872.176	42631.88
872.42	42372.88
872.663	42370.88
872.906	42316.88
873.15	42057.88
873.393	41947.88
873.636	41641.88
873.879	41260.88
874.122	40886.88
874.366	40419.88
874.609	40147.88
874.852	39754.88
875.095	39648.88
875.337	39565.88
875.58	39334.88
875.823	39241.88
876.066	39045.88
876.309	39051.88
876.551	38703.88
876.794	38517.88
877.037	38553.88
877.279	38330.88
877.522	38303.88
877.764	38492.88
878.007	38309.88
878.249	38312.88
878.491	38256.88
878.734	38284.88
878.976	38256.88
879.218	37891.88
879.46	37775.88
879.702	37421.88
879.945	37236.88
880.187	36836.88
880.429	36718.88
880.671	36585.88
880.912	36372.88
881.154	36186.88
881.396	36135.88
881.638	36084.88
881.88	35954.88
882.121	35917.88
882.363	35905.88
882.605	35827.88
882.846	35596.88
883.088	35477.88
883.329	35354.88
883.571	35485.88
883.812	35377.88
884.053	35810.88
884.295	36043.88
884.536	36189.88
884.777	35944.88
885.018	35799.88
885.259	35637.88
885.5	35555.88
885.742	35804.88
885.982	35443.88
886.223	35416.88
886.464	35229.88
886.705	35004.88
886.946	34651.88
887.187	34213.88
887.428	34065.88
887.668	33677.88
887.909	33416.88
888.15	32902.88
888.39	32889.88
888.631	32669.88
888.871	32407.88
889.111	32183.88
889.352	32028.88
889.592	31833.88
889.833	31482.88
890.073	31399.88
890.313	31202.88
890.553	30980.88
890.793	30932.88
891.033	30639.88
891.273	30503.88
891.513	30374.88
891.753	30456.88
891.993	30249.88
892.233	30309.88
892.473	30286.88
892.713	30398.88
892.952	30327.88
893.192	30336.88
893.432	30300.88
893.671	30153.88
893.911	29955.88
894.15	29862.88
894.39	29629.88
894.629	29373.88
894.869	29328.88
895.108	29144.88
895.347	29071.88
895.587	28988.88
895.826	28947.88
896.065	28764.88
896.304	28670.88
896.543	28611.88
896.782	28477.88
897.021	28344.88
897.26	28348.88
897.499	28258.88
897.738	28187.88
897.977	27843.88
898.216	27633.88
898.454	27450.88
898.693	27205.88
898.932	27190.88
899.17	27121.88
899.409	26875.88
899.647	26807.88
899.886	26812.88
900.124	26877.88
900.363	26796.88
900.601	26724.88
900.839	26773.88
901.078	27009.88
901.316	26770.88
901.554	26932.88
901.792	26857.88
902.03	26929.88
902.268	26748.88
902.506	26705.88
902.744	26458.88
902.982	26526.88
903.22	26111.88
903.458	25922.88
903.695	25609.88
903.933	25339.88
904.171	24943.88
904.409	24705.88
904.646	24362.88
904.884	24070.88
905.121	23815.88
905.359	23616.88
905.596	23476.88
905.833	23164.88
906.071	23145.88
906.308	23094.88
906.545	23031.88
906.783	22918.88
907.02	22775.88
907.257	22720.88
907.494	22725.88
907.731	22628.88
907.968	22471.88
908.205	22324.88
908.442	22256.88
908.679	22145.88
908.915	21926.88
909.152	21759.88
909.389	21574.88
909.626	21494.88
909.862	21288.88
910.099	21248.88
910.335	21110.88
910.572	20945.88
910.808	20977.88
911.045	20933.88
911.281	20763.88
911.518	20759.88
911.754	20591.88
911.99	20433.88
912.226	20298.88
912.463	20047.88
912.699	20041.88
912.935	19755.88
913.171	19747.88
913.407	19535.88
913.643	19405.88
913.879	19180.88
914.114	19108.88
914.35	18831.88
914.586	18610.88
914.822	18458.88
915.057	18415.88
915.293	18225.88
915.529	18101.88
915.764	18226.88
916	18210.88
916.235	18098.88
916.471	18004.88
916.706	17876.88
916.941	17899.88
917.177	17823.88
917.412	17891.88
917.647	17725.88
917.882	17781.88
918.117	17750.88
918.352	17547.88
918.588	17670.88
918.823	17367.88
919.057	17237.88
919.292	16968.88
919.527	17012.88
919.762	16747.88
919.997	16602.88
920.232	16345.88
920.466	16374.88
920.701	16100.88
920.935	16015.88
921.17	15865.88
921.405	15849.88
921.639	15774.88
921.873	15681.88
922.108	15596.88
922.342	15570.88
922.576	15591.88
922.811	15366.88
923.045	15393.88
923.279	15367.88
923.513	15088.88
923.747	15209.88
923.981	15031.88
924.215	14899.88
924.449	14764.88
924.683	14695.88
924.917	14599.88
925.151	14562.88
925.385	14478.88
925.618	14443.88
925.852	14422.88
926.086	14294.88
926.319	14423.88
926.553	14318.88
926.786	14353.88
927.02	14245.88
927.253	14309.88
927.486	14257.88
927.72	14149.88
927.953	14206.88
928.186	14080.88
928.42	14010.88
928.653	13890.88
928.886	13827.88
929.119	13912.88
929.352	13746.88
929.585	13653.88
929.818	13564.88
930.051	13487.88
930.284	13285.88
930.516	13135.88
930.749	13055.88
930.982	13002.88
931.215	12977.88
931.447	12877.88
931.68	12843.88
931.912	12785.88
932.145	12733.88
932.377	12762.88
932.61	12817.88
932.842	12710.88
933.074	12752.88
933.307	12644.88
933.539	12753.88
933.771	12751.88
934.003	12709.88
934.236	12730.88
934.468	12608.88
934.7	12574.88
934.932	12574.88
935.164	12532.88
935.395	12428.88
935.627	12370.88
935.859	12422.88
936.091	12182.88
936.323	12305.88
936.554	12189.88
936.786	12176.88
937.017	12049.88
937.249	12036.88
937.481	11953.88
937.712	11998.88
937.943	11952.88
938.175	11871.88
938.406	11872.88
938.637	11854.88
938.869	11815.88
939.1	11821.88
939.331	11657.88
939.562	11654.88
939.793	11726.88
940.024	11630.88
940.255	11560.88
940.486	11458.88
940.717	11461.88
940.948	11402.88
941.179	11297.88
941.409	11313.88
941.64	11256.88
941.871	11244.88
942.102	11207.88
942.332	11193.88
942.563	11251.88
942.793	11175.88
943.024	11153.88
943.254	11137.88
943.484	11210.88
943.715	11177.88
943.945	11106.88
944.175	11006.88
944.405	11068.88
944.636	11035.88
944.866	11008.88
945.096	11023.88
945.326	10892.88
945.556	10933.88
945.786	10836.88
946.016	10825.88
946.245	10631.88
946.475	10592.88
946.705	10519.88
946.935	10416.88
947.164	10428.88
947.394	10339.88
947.624	10274.88
947.853	10330.88
948.083	10240.88
948.312	10113.88
948.542	10042.88
948.771	10003.88
949	9975.88
949.23	9944.88
949.459	9960.88
949.688	10098.88
949.917	9893.88
950.146	9968.88
950.375	9989.88
950.604	9862.88
950.833	9895.88
951.062	9821.88
951.291	9854.88
951.52	9741.88
951.749	9732.88
951.978	9620.88
952.206	9608.88
952.435	9656.88
952.664	9581.88
952.892	9643.88
953.121	9483.88
953.349	9574.88
953.578	9510.88
953.806	9370.88
954.035	9296.88
954.263	9276.88
954.491	9198.88
954.719	9122.88
954.948	9088.88
955.176	9056.88
955.404	8959.88
955.632	8983.88
955.86	8947.88
956.088	8918.88
956.316	8889.88
956.544	8867.88
956.772	8747.88
956.999	8657.88
957.227	8743.88
957.455	8568.88
957.683	8552.88
957.91	8492.88
958.138	8406.88
958.365	8316.88
958.593	8390.88
958.82	8272.88
959.048	8289.88
959.275	8256.88
959.502	8228.88
959.73	8213.88
959.957	8218.88
960.184	8191.88
960.411	8113.88
960.638	8175.88
960.865	8090.88
961.092	8157.88
961.319	8003.88
961.546	8053.88
961.773	8058.88
962	7999.88
962.227	8067.88
962.454	7955.88
962.68	7901.88
962.907	7924.88
963.134	7757.88
963.36	7782.88
963.587	7748.88
963.813	7572.88
964.04	7635.88
964.266	7560.88
964.493	7591.88
964.719	7566.88
964.945	7529.88
965.171	7409.88
965.398	7403.88
965.624	7332.88
965.85	7312.88
966.076	7242.88
966.302	7240.88
966.528	7148.88
966.754	7179.88
966.98	7191.88
967.206	7111.88
967.431	7001.88
967.657	7131.88
967.883	7074.88
968.109	7043.88
968.334	6927.88
968.56	6932.88
968.785	6909.88
969.011	6759.88
969.236	6897.88
969.462	6828.88
969.687	6875.88
969.912	6856.88
970.138	6756.88
970.363	6736.88
970.588	6726.88
970.813	6670.88
971.038	6636.88
971.263	6631.88
971.488	6634.88
971.713	6626.88
971.938	6517.88
972.163	6484.88
972.388	6438.88
972.613	6410.88
972.838	6402.88
973.062	6373.88
973.287	6358.88
973.512	6251.88
973.736	6285.88
973.961	6201.88
974.185	6196.88
974.41	6125.88
974.634	6064.88
974.858	6035.88
975.083	6071.88
975.307	6010.88
975.531	5929.88
975.755	5877.88
975.98	5821.88
976.204	5773.88
976.428	5748.88
976.652	5719.88
976.876	5701.88
977.1	5702.88
977.324	5686.88
977.547	5669.88
977.771	5638.88
977.995	5577.88
978.219	5550.88
978.442	5641.88
978.666	5575.88
978.89	5498.88
979.113	5520.88
979.337	5470.88
979.56	5438.88
979.783	5525.88
980.007	5404.88
980.23	5423.88
980.453	5340.88
980.677	5338.88
980.9	5337.88
981.123	5226.88
981.346	5276.88
981.569	5291.88
981.792	5225.88
982.015	5114.88
982.238	5103.88
982.461	5105.88
982.684	5065.88
982.907	5018.88
983.129	4988.88
983.352	4967.88
983.575	4987.88
983.797	4876.88
984.02	4842.88
984.242	4843.88
984.465	4872.88
984.687	4860.88
984.91	4869.88
985.132	4746.88
985.354	4772.88
985.577	4735.88
985.799	4674.88
986.021	4551.88
986.243	4559.88
986.465	4624.88
986.687	4643.88
986.909	4653.88
987.131	4635.88
987.353	4531.88
987.575	4598.88
987.797	4491.88
988.019	4456.88
988.241	4475.88
988.462	4416.88
988.684	4486.88
988.906	4474.88
989.127	4476.88
989.349	4362.88
989.57	4345.88
989.792	4348.88
990.013	4374.88
990.234	4351.88
990.456	4360.88
990.677	4296.88
990.898	4248.88
991.119	4216.88
991.341	4276.88
991.562	4143.88
991.783	4191.88
992.004	4137.88
992.225	4047.88
992.446	4130.88
992.667	3984.88
992.887	4072.88
993.108	3936.88
993.329	4053.88
993.55	3985.88
993.77	3900.88
993.991	3821.88
994.212	3891.88
994.432	3838.88
994.653	3808.88
994.873	3794.88
995.093	3677.88
995.314	3677.88
995.534	3747.88
995.754	3767.88
995.975	3763.88
996.195	3659.88
996.415	3684.88
996.635	3674.88
996.855	3681.88
997.075	3642.88
997.295	3610.88
997.515	3593.88
997.735	3660.88
997.955	3602.88
998.174	3597.88
998.394	3564.88
998.614	3600.88
998.834	3500.88
999.053	3597.88
999.273	3526.88
999.492	3591.88
999.712	3553.88
999.931	3441.88
1000.151	3458.88
1000.37	3467.88
1000.589	3446.88
1000.809	3350.88
1001.028	3471.88
1001.247	3360.88
1001.466	3225.88
1001.685	3375.88
1001.904	3285.88
1002.123	3233.88
1002.342	3291.88
1002.561	3207.88
1002.78	3225.88
1002.999	3253.88
1003.218	3182.88
1003.436	3146.88
1003.655	3142.88
1003.874	3076.88
1004.092	3118.88
1004.311	3173.88
1004.53	3056.88
1004.748	3116.88
1004.966	3062.88
1005.185	3079.88
1005.403	3068.88
1005.622	3037.88
1005.84	3119.88
1006.058	3024.88
1006.276	2994.88
1006.494	3500.88
1006.712	2980.88
1006.931	3067.88
1007.149	2970.88
1007.367	2946.88
1007.584	2984.88
1007.802	3018.88
1008.02	2964.88
1008.238	3051.88
1008.456	3051.88
1008.673	2943.88
1008.891	3012.88
1009.109	2977.88
1009.326	3003.88
1009.544	3144.88
1009.761	3075.88
1009.979	3138.88
1010.196	3236.88
1010.413	3306.88
1010.631	3374.88
1010.848	3422.88
1011.065	3439.88
1011.282	3373.88
1011.5	3333.88
1011.717	3414.88
1011.934	3335.88
1012.151	3298.88
1012.368	3322.88
1012.585	3228.88
1012.801	3300.88
1013.018	3256.88
1013.235	3197.88
1013.452	3229.88
1013.669	3235.88
1013.885	3188.88
1014.102	3290.88
1014.318	3190.88
1014.535	3179.88
1014.751	3217.88
1014.968	3194.88
1015.184	3213.88
1015.401	3078.88
1015.617	3107.88
1015.833	2953.88
1016.049	3013.88
1016.266	2929.88
1016.482	2963.88
1016.698	2873.88
1016.914	2889.88
1017.13	2821.88
1017.346	2779.88
1017.562	2860.88
1017.778	2795.88
1017.993	2737.88
1018.209	2807.88
1018.425	2770.88
1018.641	2696.88
1018.856	2696.88
1019.072	2743.88
1019.288	2773.88
1019.503	2689.88
1019.719	2646.88
1019.934	2596.88
1020.149	2745.88
1020.365	2647.88
1020.58	2531.88
1020.795	2598.88
1021.011	2486.88
1021.226	2425.88
1021.441	2446.88
1021.656	2313.88
1021.871	2291.88
1022.086	2245.88
1022.301	2217.88
1022.516	2203.88
1022.731	2226.88
1022.946	2154.88
1023.16	2127.88
1023.375	2033.88
1023.59	2014.88
1023.804	1976.88
1024.019	2054.88
1024.234	1922.88
1024.448	1914.88
1024.663	1845.88
1024.877	1856.88
1025.092	1874.88
1025.306	1819.88
1025.52	1703.88
1025.734	1776.88
1025.949	1684.88
1026.163	1635.88
1026.377	1568.88
1026.591	1599.88
1026.805	1519.88
1027.019	1485.88
1027.233	1439.88
1027.447	1374.88
1027.661	1485.88
1027.875	1402.88
1028.088	1375.88
1028.302	1306.88
1028.516	1272.88
1028.73	1272.88
1028.943	1237.88
1029.157	1155.88
1029.37	1068.88
1029.584	-3.12
1029.797	-4.12
1030.011	0.88
1030.224	-0.12
